Data from 20171114-ORNL-Ar_H_NY_Subt18_08-03-57-422.txt Node
Date: Tue Nov 14 08:03:57 EST 2017
User: Ender
Spectrometer: HR+D1039
Trigger mode: 0
Integration Time (sec): 2.730000E-2
Scans to average: 10
Electric dark correction enabled: true
Nonlinearity correction enabled: false
Boxcar width: 0
XAxis mode: Wavelengths
Number of Pixels in Spectrum: 2048
>>>>>Begin Spectral Data<<<<<
187.836	0.51
188.309	0.51
188.782	0.51
189.255	1.91
189.728	-6.49
190.201	3.11
190.674	-0.09
191.147	5.31
191.619	-7.59
192.092	0.61
192.565	3.91
193.038	0.21
193.511	-2.29
193.984	2.61
194.456	-3.79
194.929	1.11
195.402	-2.19
195.874	3.21
196.347	4.41
196.82	-6.49
197.292	8.41
197.765	0.21
198.237	-2.99
198.71	0.31
199.182	-0.99
199.655	-1.69
200.127	3.81
200.6	-2.99
201.072	-2.79
201.544	0.61
202.017	-1.59
202.489	6.71
202.961	-0.99
203.433	0.41
203.906	-6.49
204.378	-11.59
204.85	-1.19
205.322	-5.59
205.794	-1.79
206.266	0.41
206.739	-4.59
207.211	0.01
207.683	-10.89
208.155	-6.49
208.627	-4.99
209.099	3.11
209.57	-8.39
210.042	-3.39
210.514	-7.49
210.986	-2.69
211.458	-12.49
211.93	-4.39
212.402	2.01
212.873	-5.19
213.345	-10.59
213.817	-11.79
214.288	-3.59
214.76	-8.19
215.232	-2.19
215.703	-6.49
216.175	-6.99
216.646	-8.09
217.118	-11.79
217.589	-8.59
218.061	-6.29
218.532	-4.69
219.004	-6.19
219.475	-4.59
219.946	-3.79
220.418	-6.99
220.889	4.61
221.36	-0.99
221.832	-6.09
222.303	-11.59
222.774	3.11
223.245	-6.39
223.717	-6.99
224.188	0.41
224.659	-12.59
225.13	-7.09
225.601	-6.09
226.072	-0.69
226.543	-4.59
227.014	0.41
227.485	-0.19
227.956	-10.19
228.427	-3.19
228.898	5.21
229.369	4.01
229.839	-0.49
230.31	-6.89
230.781	-5.99
231.252	-4.49
231.722	0.81
232.193	-4.79
232.664	-5.19
233.135	-5.49
233.605	-6.59
234.076	-5.39
234.546	-1.19
235.017	4.01
235.487	0.31
235.958	-6.19
236.428	-5.89
236.899	5.11
237.369	-2.09
237.84	-6.59
238.31	5.31
238.78	-2.09
239.251	-3.09
239.721	-1.09
240.191	-0.69
240.662	-3.99
241.132	-2.29
241.602	-8.29
242.072	-3.39
242.542	8.31
243.013	-2.59
243.483	1.41
243.953	-2.79
244.423	-2.09
244.893	-6.79
245.363	-3.69
245.833	1.61
246.303	-3.89
246.773	2.91
247.243	-0.59
247.712	-1.29
248.182	3.41
248.652	-0.69
249.122	-8.89
249.592	3.11
250.061	4.21
250.531	7.51
251.001	-0.59
251.471	-0.99
251.94	7.11
252.41	-5.79
252.879	-8.79
253.349	4.71
253.818	8.31
254.288	0.91
254.757	0.81
255.227	-2.69
255.696	0.41
256.166	1.01
256.635	0.11
257.105	4.61
257.574	1.81
258.043	0.31
258.513	-2.39
258.982	0.11
259.451	-6.39
259.92	-4.29
260.389	-1.09
260.859	7.21
261.328	2.91
261.797	1.01
262.266	-0.39
262.735	10.91
263.204	3.61
263.673	0.91
264.142	5.21
264.611	-4.69
265.08	5.31
265.549	-2.79
266.018	-0.39
266.487	-5.49
266.955	-7.49
267.424	-1.39
267.893	2.51
268.362	5.91
268.83	-3.99
269.299	5.21
269.768	1.81
270.236	3.41
270.705	-2.89
271.174	-1.59
271.642	1.31
272.111	4.41
272.579	4.21
273.048	0.01
273.516	-3.59
273.985	-1.69
274.453	10.61
274.922	4.71
275.39	3.91
275.858	-0.89
276.327	9.61
276.795	10.71
277.263	0.21
277.731	6.51
278.2	5.61
278.668	0.91
279.136	12.41
279.604	-0.49
280.072	9.71
280.54	6.11
281.008	6.31
281.477	7.01
281.945	5.81
282.413	8.81
282.881	9.41
283.348	2.31
283.816	9.31
284.284	8.61
284.752	17.51
285.22	3.81
285.688	9.41
286.156	0.61
286.623	15.81
287.091	1.21
287.559	6.81
288.026	3.11
288.494	4.81
288.962	2.01
289.429	1.51
289.897	10.41
290.364	12.21
290.832	12.61
291.3	10.71
291.767	6.81
292.234	11.11
292.702	6.11
293.169	14.11
293.637	16.41
294.104	6.91
294.571	1.21
295.039	7.31
295.506	10.31
295.973	6.21
296.44	6.81
296.908	12.91
297.375	9.91
297.842	16.41
298.309	13.51
298.776	7.21
299.243	12.81
299.71	12.31
300.177	14.41
300.644	14.31
301.111	13.21
301.578	20.41
302.045	14.91
302.512	16.41
302.979	16.31
303.446	15.71
303.913	14.91
304.379	18.01
304.846	27.71
305.313	18.01
305.78	12.81
306.246	18.71
306.713	18.21
307.18	21.31
307.646	15.21
308.113	17.91
308.579	15.61
309.046	18.21
309.512	19.41
309.979	9.41
310.445	25.51
310.912	21.91
311.378	21.71
311.845	24.91
312.311	18.61
312.777	26.31
313.244	17.31
313.71	31.11
314.176	24.31
314.642	22.11
315.109	23.31
315.575	28.11
316.041	27.31
316.507	21.11
316.973	26.71
317.439	23.01
317.905	24.01
318.371	28.31
318.837	25.91
319.303	24.31
319.769	26.51
320.235	22.21
320.701	26.71
321.167	30.21
321.633	26.61
322.099	23.71
322.564	32.41
323.03	33.81
323.496	26.51
323.962	33.21
324.427	26.31
324.893	29.31
325.359	23.31
325.824	31.31
326.29	31.41
326.755	24.41
327.221	29.81
327.686	29.31
328.152	36.81
328.617	34.11
329.083	34.61
329.548	38.41
330.014	34.41
330.479	34.31
330.944	33.51
331.41	35.11
331.875	39.91
332.34	36.01
332.805	31.51
333.271	37.21
333.736	24.41
334.201	38.81
334.666	34.31
335.131	39.31
335.596	37.31
336.061	42.11
336.526	34.11
336.991	38.51
337.456	52.91
337.921	39.41
338.386	28.91
338.851	43.31
339.316	43.51
339.781	41.21
340.246	49.31
340.711	48.51
341.175	45.81
341.64	33.81
342.105	38.51
342.569	46.11
343.034	47.91
343.499	41.11
343.963	47.11
344.428	56.71
344.893	53.01
345.357	52.61
345.822	48.31
346.286	55.31
346.751	61.41
347.215	58.91
347.679	58.71
348.144	74.71
348.608	64.81
349.073	61.11
349.537	58.21
350.001	65.81
350.465	72.71
350.93	66.21
351.394	67.21
351.858	54.01
352.322	69.51
352.786	58.81
353.25	73.51
353.715	87.41
354.179	78.41
354.643	96.41
355.107	96.71
355.571	81.51
356.035	82.41
356.498	88.31
356.962	92.21
357.426	100.21
357.89	86.11
358.354	69.31
358.818	65.91
359.281	70.01
359.745	62.41
360.209	63.91
360.673	62.51
361.136	65.21
361.6	77.41
362.064	72.41
362.527	71.71
362.991	78.71
363.454	73.41
363.918	70.41
364.381	75.71
364.845	66.81
365.308	78.31
365.772	73.31
366.235	78.51
366.698	75.31
367.162	74.21
367.625	77.81
368.088	79.81
368.552	85.21
369.015	81.81
369.478	88.41
369.941	83.81
370.404	80.11
370.867	95.11
371.331	87.51
371.794	95.41
372.257	88.11
372.72	95.21
373.183	90.21
373.646	76.31
374.109	90.71
374.572	92.11
375.035	94.11
375.497	94.21
375.96	89.41
376.423	90.91
376.886	96.21
377.349	95.61
377.811	90.51
378.274	96.31
378.737	92.41
379.199	96.81
379.662	99.51
380.125	104.31
380.587	107.51
381.05	100.11
381.512	100.41
381.975	113.81
382.437	104.41
382.9	111.81
383.362	115.01
383.825	122.91
384.287	113.71
384.75	109.11
385.212	116.61
385.674	113.11
386.136	127.21
386.599	117.21
387.061	117.31
387.523	117.91
387.985	114.51
388.447	123.71
388.91	117.81
389.372	121.81
389.834	120.91
390.296	117.71
390.758	123.91
391.22	130.81
391.682	132.81
392.144	134.81
392.606	137.01
393.068	132.51
393.529	138.31
393.991	128.91
394.453	124.91
394.915	126.61
395.377	129.91
395.838	127.51
396.3	136.21
396.762	138.21
397.224	136.61
397.685	128.01
398.147	128.61
398.608	123.81
399.07	124.91
399.531	136.41
399.993	141.91
400.454	147.01
400.916	140.51
401.377	137.91
401.839	153.11
402.3	143.01
402.762	157.91
403.223	173.21
403.684	166.91
404.145	156.01
404.607	154.11
405.068	157.51
405.529	154.51
405.99	168.91
406.451	160.41
406.913	165.71
407.374	158.21
407.835	155.91
408.296	161.41
408.757	164.51
409.218	180.81
409.679	166.51
410.14	168.41
410.601	166.21
411.062	172.51
411.522	168.81
411.983	172.21
412.444	164.81
412.905	175.71
413.366	185.01
413.826	190.81
414.287	206.41
414.748	257.91
415.208	249.31
415.669	208.81
416.13	202.91
416.59	198.11
417.051	211.81
417.511	212.11
417.972	227.81
418.432	249.41
418.893	294.11
419.353	254.91
419.814	201.81
420.274	183.51
420.734	176.41
421.195	192.91
421.655	187.91
422.115	188.91
422.576	189.91
423.036	193.61
423.496	196.61
423.956	214.11
424.416	227.81
424.876	256.41
425.336	246.21
425.797	250.01
426.257	245.51
426.717	227.01
427.177	228.21
427.637	211.01
428.097	229.81
428.556	230.21
429.016	251.71
429.476	239.91
429.936	255.01
430.396	259.21
430.856	271.61
431.315	286.31
431.775	314.41
432.235	346.21
432.694	323.61
433.154	327.91
433.614	334.91
434.073	302.31
434.533	264.81
434.993	251.61
435.452	272.81
435.912	262.71
436.371	248.51
436.83	250.61
437.29	240.91
437.749	226.41
438.209	227.61
438.668	248.41
439.127	256.11
439.587	242.01
440.046	224.11
440.505	233.91
440.964	250.11
441.424	274.51
441.883	261.21
442.342	241.31
442.801	219.21
443.26	216.51
443.719	214.91
444.178	215.11
444.637	203.41
445.096	207.01
445.555	215.81
446.014	214.51
446.473	219.81
446.932	227.21
447.391	220.11
447.849	227.81
448.308	212.41
448.767	214.31
449.226	228.41
449.685	237.51
450.143	240.71
450.602	233.11
451.061	220.01
451.519	227.71
451.978	224.31
452.436	232.51
452.895	229.21
453.353	234.31
453.812	231.51
454.27	231.61
454.729	230.11
455.187	228.41
455.646	226.91
456.104	229.81
456.562	248.21
457.021	257.51
457.479	239.41
457.937	249.61
458.395	253.51
458.854	238.01
459.312	239.91
459.77	251.71
460.228	246.81
460.686	233.11
461.144	244.01
461.602	237.31
462.06	235.61
462.518	240.91
462.976	245.21
463.434	245.71
463.892	254.11
464.35	264.61
464.808	273.91
465.266	256.71
465.724	258.31
466.181	262.41
466.639	269.31
467.097	280.41
467.555	287.81
468.012	286.61
468.47	291.71
468.928	308.51
469.385	321.01
469.843	320.11
470.3	317.31
470.758	330.01
471.215	347.41
471.673	370.61
472.13	373.31
472.588	384.51
473.045	360.91
473.503	358.41
473.96	371.61
474.417	375.71
474.875	405.21
475.332	430.51
475.789	425.51
476.246	434.51
476.704	453.01
477.161	466.31
477.618	470.51
478.075	516.81
478.532	550.01
478.989	604.91
479.446	683.41
479.903	669.41
480.36	708.11
480.817	748.91
481.274	839.21
481.731	910.11
482.188	989.21
482.645	1096.71
483.102	1181.81
483.558	1277.31
484.015	1334.31
484.472	1322.51
484.929	1276.71
485.385	1248.21
485.842	1212.81
486.299	1178.91
486.755	1105.51
487.212	957.91
487.668	829.21
488.125	776.71
488.582	704.71
489.038	678.61
489.494	653.81
489.951	631.51
490.407	612.01
490.864	591.01
491.32	584.31
491.776	583.51
492.233	585.81
492.689	553.81
493.145	564.11
493.602	549.61
494.058	551.31
494.514	557.51
494.97	574.11
495.426	584.11
495.882	568.11
496.338	554.71
496.794	556.91
497.251	556.21
497.707	566.61
498.163	572.61
498.618	576.21
499.074	583.91
499.53	593.61
499.986	598.61
500.442	580.91
500.898	557.31
501.354	559.81
501.809	569.21
502.265	565.41
502.721	569.01
503.177	576.61
503.632	583.51
504.088	585.51
504.543	595.91
504.999	617.81
505.455	590.21
505.91	582.11
506.366	585.31
506.821	577.61
507.277	580.21
507.732	576.11
508.187	575.41
508.643	590.21
509.098	584.71
509.553	602.41
510.009	607.61
510.464	612.71
510.919	618.91
511.375	629.11
511.83	635.91
512.285	645.31
512.74	683.01
513.195	692.41
513.65	684.51
514.105	683.11
514.56	690.21
515.015	709.01
515.47	707.71
515.925	695.31
516.38	709.01
516.835	718.41
517.29	705.61
517.745	700.31
518.2	684.81
518.655	673.41
519.109	671.71
519.564	665.11
520.019	653.21
520.474	640.21
520.928	640.71
521.383	650.61
521.838	629.91
522.292	634.41
522.747	631.31
523.201	623.61
523.656	619.21
524.11	626.31
524.565	621.11
525.019	611.41
525.474	615.01
525.928	616.51
526.382	611.41
526.837	616.11
527.291	630.11
527.745	616.51
528.2	620.61
528.654	613.51
529.108	608.61
529.562	604.21
530.016	606.71
530.47	603.11
530.925	611.31
531.379	611.81
531.833	619.41
532.287	617.41
532.741	608.31
533.195	610.01
533.649	610.71
534.103	624.41
534.556	613.81
535.01	617.61
535.464	611.11
535.918	629.71
536.372	631.91
536.826	621.31
537.279	604.01
537.733	618.71
538.187	615.71
538.64	615.51
539.094	621.81
539.548	637.41
540.001	625.91
540.455	630.31
540.908	635.11
541.362	634.51
541.815	650.31
542.269	659.61
542.722	654.61
543.175	658.41
543.629	665.51
544.082	679.31
544.536	668.41
544.989	680.11
545.442	678.41
545.895	679.81
546.349	684.21
546.802	678.11
547.255	682.61
547.708	683.71
548.161	699.21
548.614	701.41
549.067	714.01
549.52	699.91
549.973	691.91
550.426	694.71
550.879	678.51
551.332	688.51
551.785	687.01
552.238	697.51
552.691	696.81
553.144	706.21
553.596	723.81
554.049	725.51
554.502	750.01
554.955	766.61
555.407	764.01
555.86	754.51
556.313	746.11
556.765	739.71
557.218	742.01
557.67	739.31
558.123	739.71
558.576	736.81
559.028	730.51
559.48	749.31
559.933	735.11
560.385	705.21
560.838	682.51
561.29	657.91
561.742	659.61
562.195	644.81
562.647	641.81
563.099	655.91
563.551	645.31
564.004	655.41
564.456	647.91
564.908	628.51
565.36	618.21
565.812	606.21
566.264	598.31
566.716	594.61
567.168	577.31
567.62	585.31
568.072	582.41
568.524	576.21
568.976	569.11
569.428	558.01
569.88	563.71
570.332	565.71
570.784	557.21
571.235	566.11
571.687	566.41
572.139	579.91
572.59	590.61
573.042	583.41
573.494	576.71
573.945	582.01
574.397	563.31
574.849	566.91
575.3	565.61
575.752	562.81
576.203	549.41
576.655	557.01
577.106	544.91
577.557	537.61
578.009	539.71
578.46	543.71
578.912	541.71
579.363	538.61
579.814	547.11
580.265	531.51
580.717	537.91
581.168	538.91
581.619	544.41
582.07	545.81
582.521	538.11
582.972	528.11
583.423	545.31
583.875	542.01
584.326	545.11
584.777	558.01
585.227	576.01
585.678	579.61
586.129	598.31
586.58	614.61
587.031	635.61
587.482	669.41
587.933	696.41
588.384	664.21
588.834	638.81
589.285	616.01
589.736	619.81
590.186	615.21
590.637	616.41
591.088	589.31
591.538	596.41
591.989	579.41
592.439	581.61
592.89	567.91
593.34	550.71
593.791	553.91
594.241	551.41
594.692	545.71
595.142	544.51
595.593	540.71
596.043	549.31
596.493	555.31
596.943	550.61
597.394	557.51
597.844	559.91
598.294	569.61
598.744	600.61
599.195	622.11
599.645	636.51
600.095	662.61
600.545	717.41
600.995	750.11
601.445	797.21
601.895	857.11
602.345	884.91
602.795	863.61
603.245	838.71
603.695	788.71
604.145	749.51
604.594	718.51
605.044	670.51
605.494	623.11
605.944	582.81
606.393	571.91
606.843	554.91
607.293	567.11
607.743	557.31
608.192	563.01
608.642	568.61
609.091	576.01
609.541	569.41
609.99	570.61
610.44	580.91
610.889	546.31
611.339	526.51
611.788	509.61
612.238	533.71
612.687	544.41
613.136	528.41
613.586	532.61
614.035	530.41
614.484	539.41
614.933	536.31
615.383	538.01
615.832	536.31
616.281	529.31
616.73	518.01
617.179	506.01
617.628	484.91
618.077	476.71
618.526	459.61
618.975	471.71
619.424	473.31
619.873	470.71
620.322	467.41
620.771	453.11
621.22	453.01
621.669	447.81
622.118	456.51
622.567	447.51
623.015	420.21
623.464	424.51
623.913	420.31
624.361	420.61
624.81	411.61
625.259	420.21
625.707	410.21
626.156	419.41
626.604	430.91
627.053	420.51
627.501	419.41
627.95	423.31
628.398	427.41
628.847	425.51
629.295	422.11
629.744	432.81
630.192	423.41
630.64	421.21
631.089	419.11
631.537	402.31
631.985	389.51
632.433	393.71
632.881	396.01
633.33	400.61
633.778	383.01
634.226	389.41
634.674	395.61
635.122	405.61
635.57	403.61
636.018	422.71
636.466	423.21
636.914	400.81
637.362	419.91
637.81	429.21
638.258	432.01
638.705	430.71
639.153	449.31
639.601	453.11
640.049	468.01
640.497	496.61
640.944	507.91
641.392	474.61
641.84	459.71
642.287	429.51
642.735	414.81
643.182	414.01
643.63	416.61
644.078	417.11
644.525	421.81
644.973	430.01
645.42	436.71
645.867	447.21
646.315	453.41
646.762	478.21
647.21	497.61
647.657	510.61
648.104	527.61
648.551	544.31
648.999	582.91
649.446	636.31
649.893	687.31
650.34	784.61
650.787	925.51
651.234	1131.01
651.682	1450.01
652.129	1957.41
652.576	2724.91
653.023	4005.11
653.47	5567.01
653.917	7017.21
654.363	8223.41
654.81	9300.41
655.257	8880.01
655.704	5859.21
656.151	3462.31
656.598	2280.71
657.044	1618.61
657.491	1254.51
657.938	1016.61
658.385	846.71
658.831	746.51
659.278	675.81
659.724	603.21
660.171	550.31
660.618	509.71
661.064	486.01
661.511	456.41
661.957	444.81
662.404	443.11
662.85	449.41
663.296	428.71
663.743	398.21
664.189	385.01
664.635	386.71
665.082	385.11
665.528	376.01
665.974	371.71
666.42	357.01
666.867	362.01
667.313	331.81
667.759	337.11
668.205	322.61
668.651	326.31
669.097	325.11
669.543	312.91
669.989	317.01
670.435	325.71
670.881	320.71
671.327	332.61
671.773	341.31
672.219	351.51
672.665	398.61
673.11	419.01
673.556	461.71
674.002	490.71
674.448	483.01
674.893	410.31
675.339	353.71
675.785	323.41
676.23	302.21
676.676	287.21
677.122	273.91
677.567	268.51
678.013	264.31
678.458	262.31
678.904	264.51
679.349	244.81
679.794	259.01
680.24	255.71
680.685	249.71
681.131	251.61
681.576	252.81
682.021	253.61
682.466	250.11
682.912	252.31
683.357	247.81
683.802	275.31
684.247	286.51
684.692	324.61
685.137	348.01
685.583	392.51
686.028	405.71
686.473	382.01
686.918	326.31
687.363	294.41
687.807	285.11
688.252	266.41
688.697	253.21
689.142	242.41
689.587	237.81
690.032	226.61
690.477	245.71
690.921	248.61
691.366	268.91
691.811	280.81
692.255	312.21
692.7	330.61
693.145	360.01
693.589	484.21
694.034	788.11
694.478	1107.61
694.923	1303.71
695.367	1734.31
695.812	912.71
696.256	357.01
696.701	268.41
697.145	251.91
697.59	239.11
698.034	228.21
698.478	239.81
698.922	233.91
699.367	230.81
699.811	241.31
700.255	247.11
700.699	275.31
701.143	301.11
701.588	341.51
702.032	367.01
702.476	382.31
702.92	361.21
703.364	350.11
703.808	447.01
704.252	719.31
704.696	1032.81
705.14	1252.91
705.584	1626.31
706.027	801.21
706.471	377.11
706.915	287.11
707.359	252.31
707.803	232.31
708.246	223.51
708.69	225.01
709.134	220.51
709.577	224.91
710.021	224.71
710.465	224.21
710.908	215.71
711.352	207.91
711.795	215.21
712.239	248.31
712.682	269.51
713.126	298.51
713.569	330.21
714.012	258.81
714.456	219.81
714.899	213.61
715.342	197.81
715.786	185.21
716.229	182.61
716.672	178.51
717.115	176.51
717.558	175.51
718.002	183.51
718.445	186.41
718.888	208.61
719.331	201.71
719.774	217.01
720.217	216.11
720.66	205.81
721.103	190.21
721.546	184.01
721.989	182.51
722.432	155.21
722.874	168.31
723.317	164.61
723.76	160.71
724.203	176.71
724.645	219.51
725.088	314.51
725.531	410.71
725.974	468.41
726.416	399.51
726.859	214.81
727.301	173.11
727.744	161.21
728.187	157.71
728.629	167.81
729.071	180.61
729.514	188.81
729.956	186.11
730.399	202.11
730.841	209.11
731.283	196.91
731.726	194.01
732.168	188.01
732.61	188.31
733.053	197.11
733.495	219.51
733.937	246.21
734.379	277.31
734.821	307.41
735.263	379.31
735.705	576.51
736.148	1098.01
736.59	1869.41
737.032	2330.91
737.474	1906.61
737.916	604.41
738.357	304.21
738.799	232.01
739.241	216.21
739.683	203.01
740.125	204.61
740.567	211.31
741.008	231.31
741.45	227.51
741.892	233.41
742.334	259.61
742.775	274.21
743.217	255.01
743.658	194.41
744.1	187.91
744.542	197.41
744.983	235.51
745.425	259.61
745.866	258.71
746.307	208.01
746.749	198.01
747.19	228.91
747.632	318.01
748.073	595.91
748.514	1296.71
748.956	2090.21
749.397	2630.51
749.838	2182.61
750.279	2269.91
750.72	1137.61
751.162	400.31
751.603	234.01
752.044	182.11
752.485	149.41
752.926	147.81
753.367	146.71
753.808	136.31
754.249	134.31
754.69	126.91
755.131	133.21
755.572	135.01
756.013	128.11
756.453	130.91
756.894	132.01
757.335	136.01
757.776	138.31
758.216	146.91
758.657	137.01
759.098	143.91
759.538	156.91
759.979	188.51
760.42	264.51
760.86	481.61
761.301	1272.21
761.741	3189.61
762.182	5059.21
762.622	3586.21
763.063	1003.91
763.503	395.81
763.943	236.21
764.384	201.01
764.824	183.71
765.264	180.21
765.705	149.61
766.145	129.81
766.585	120.31
767.025	121.81
767.465	111.61
767.906	132.81
768.346	141.11
768.786	141.11
769.226	149.51
769.666	213.81
770.106	410.51
770.546	1059.61
770.986	1977.81
771.426	1826.01
771.866	593.31
772.306	231.41
772.745	143.41
773.185	110.21
773.625	119.91
774.065	103.71
774.505	113.11
774.944	149.91
775.384	259.51
775.824	468.81
776.263	464.41
776.703	215.21
777.142	111.01
777.582	97.81
778.021	80.91
778.461	85.71
778.9	86.31
779.34	88.51
779.779	84.71
780.219	72.41
780.658	76.71
781.097	75.11
781.537	77.71
781.976	72.81
782.415	69.41
782.855	70.71
783.294	73.31
783.733	71.21
784.172	70.91
784.611	71.01
785.05	72.11
785.489	75.71
785.928	80.91
786.367	90.51
786.806	82.11
787.245	88.21
787.684	94.71
788.123	110.21
788.562	101.11
789.001	90.41
789.44	89.11
789.879	83.01
790.317	82.21
790.756	88.91
791.195	91.01
791.634	103.11
792.072	142.21
792.511	246.21
792.95	693.51
793.388	1586.71
793.827	1490.71
794.265	498.11
794.704	201.81
795.142	132.11
795.581	114.11
796.019	96.21
796.458	98.91
796.896	85.71
797.334	87.91
797.773	104.11
798.211	153.11
798.649	296.81
799.087	734.91
799.526	1168.01
799.964	1475.01
800.402	1560.61
800.84	565.31
801.278	219.71
801.716	130.51
802.154	114.01
802.592	108.01
803.03	99.51
803.468	94.41
803.906	111.21
804.344	114.81
804.782	99.11
805.22	94.51
805.658	90.31
806.096	109.21
806.533	117.21
806.971	123.21
807.409	150.41
807.847	232.01
808.284	456.91
808.722	1333.31
809.16	2491.91
809.597	2308.31
810.035	4116.31
810.472	4672.51
810.91	1658.91
811.347	604.91
811.785	299.41
812.222	186.41
812.66	139.21
813.097	118.51
813.535	106.51
813.972	98.01
814.409	89.51
814.846	73.51
815.284	83.41
815.721	66.11
816.158	71.41
816.595	74.51
817.032	115.81
817.47	134.81
817.907	108.51
818.344	72.61
818.781	75.11
819.218	71.51
819.655	86.11
820.092	139.31
820.529	168.71
820.966	132.01
821.403	97.41
821.839	73.81
822.276	65.61
822.713	95.71
823.15	105.91
823.587	84.51
824.023	103.41
824.46	206.31
824.897	646.51
825.333	1048.41
825.77	450.01
826.206	171.41
826.643	92.51
827.08	74.41
827.516	60.61
827.953	53.61
828.389	62.01
828.825	50.31
829.262	47.51
829.698	42.51
830.135	46.51
830.571	34.51
831.007	48.71
831.443	44.01
831.88	43.71
832.316	40.41
832.752	49.11
833.188	41.01
833.624	45.71
834.06	48.61
834.497	53.51
834.933	48.81
835.369	57.81
835.805	45.01
836.241	48.41
836.677	54.71
837.112	58.21
837.548	77.41
837.984	97.51
838.42	139.91
838.856	345.51
839.292	1111.01
839.727	1797.01
840.163	819.71
840.599	673.21
841.034	1532.51
841.47	1686.01
841.906	600.31
842.341	246.31
842.777	150.71
843.212	154.81
843.648	147.31
844.083	81.81
844.519	66.11
844.954	50.81
845.39	37.61
845.825	43.21
846.261	40.21
846.696	39.01
847.131	37.21
847.566	41.51
848.002	44.11
848.437	34.31
848.872	45.31
849.307	46.91
849.742	55.71
850.177	118.21
850.613	407.01
851.048	676.51
851.483	286.51
851.918	109.81
852.353	57.41
852.788	37.81
853.223	29.51
853.657	44.71
854.092	31.71
854.527	33.21
854.962	33.51
855.397	30.61
855.832	42.61
856.266	33.61
856.701	26.91
857.136	36.01
857.57	30.61
858.005	33.61
858.44	42.01
858.874	35.91
859.309	39.21
859.743	21.91
860.178	30.11
860.612	29.81
861.047	46.71
861.481	49.71
861.915	58.01
862.35	41.21
862.784	25.91
863.218	32.81
863.653	23.21
864.087	40.01
864.521	44.61
864.955	48.11
865.39	107.71
865.824	128.21
866.258	84.01
866.692	134.41
867.126	151.51
867.56	88.51
867.994	40.91
868.428	26.01
868.862	40.21
869.296	44.01
869.73	48.41
870.164	47.51
870.598	41.31
871.031	26.71
871.465	25.31
871.899	24.61
872.333	17.41
872.766	17.91
873.2	16.41
873.634	24.01
874.067	19.71
874.501	22.41
874.935	24.81
875.368	20.71
875.802	22.71
876.235	13.21
876.669	21.21
877.102	17.01
877.535	24.91
877.969	12.81
878.402	19.61
878.836	15.71
879.269	17.11
879.702	22.71
880.135	9.21
880.569	15.01
881.002	20.21
881.435	20.21
881.868	10.21
882.301	19.11
882.734	12.91
883.167	16.11
883.601	13.91
884.034	11.91
884.467	9.21
884.899	12.81
885.332	12.71
885.765	9.11
886.198	11.71
886.631	14.81
887.064	11.01
887.497	17.71
887.929	22.31
888.362	9.61
888.795	9.81
889.228	15.41
889.66	12.51
890.093	10.81
890.526	16.41
890.958	15.41
891.391	12.91
891.823	11.31
892.256	12.21
892.688	9.81
893.121	11.21
893.553	14.81
893.985	17.11
894.418	14.11
894.85	4.31
895.282	12.61
895.715	10.91
896.147	15.21
896.579	12.31
897.011	9.31
897.444	11.71
897.876	6.81
898.308	9.31
898.74	9.11
899.172	7.71
899.604	23.41
900.036	10.11
900.468	12.11
900.9	2.01
901.332	10.01
901.764	2.51
902.196	12.41
902.628	11.91
903.06	6.41
903.491	25.81
903.923	13.41
904.355	15.21
904.787	23.61
905.218	15.91
905.65	11.21
906.082	11.41
906.513	12.11
906.945	9.81
907.376	8.81
907.808	19.21
908.239	19.01
908.671	13.01
909.102	14.01
909.534	13.01
909.965	35.41
910.397	68.51
910.828	235.01
911.259	371.61
911.691	165.11
912.122	77.01
912.553	40.61
912.984	28.31
913.415	12.71
913.847	16.81
914.278	10.81
914.709	7.71
915.14	13.81
915.571	11.31
916.002	11.81
916.433	16.21
916.864	15.11
917.295	4.31
917.726	16.91
918.157	9.81
918.587	18.51
919.018	17.31
919.449	15.11
919.88	14.11
920.311	17.71
920.741	31.81
921.172	129.71
921.603	117.01
922.033	56.51
922.464	33.51
922.895	16.21
923.325	14.21
923.756	16.41
924.186	7.21
924.617	11.41
925.047	17.01
925.478	15.81
925.908	20.11
926.338	4.01
926.769	4.01
927.199	7.51
927.629	4.71
928.06	10.51
928.49	8.81
928.92	5.61
929.35	6.41
929.78	7.81
930.21	7.21
930.641	4.21
931.071	6.71
931.501	8.21
931.931	7.81
932.361	6.71
932.791	-4.39
933.221	4.81
933.651	5.01
934.08	14.51
934.51	24.81
934.94	11.31
935.37	7.11
935.8	6.91
936.229	-1.99
936.659	5.91
937.089	2.91
937.519	9.21
937.948	15.81
938.378	13.01
938.807	0.41
939.237	3.01
939.666	9.81
940.096	-5.09
940.525	1.01
940.955	4.01
941.384	-2.69
941.814	-2.69
942.243	1.21
942.672	3.51
943.102	-0.29
943.531	-3.89
943.96	5.71
944.39	3.41
944.819	1.41
945.248	1.71
945.677	1.31
946.106	4.71
946.535	6.41
946.964	1.51
947.393	3.21
947.822	4.91
948.251	-0.79
948.68	2.61
949.109	-0.59
949.538	7.01
949.967	1.61
950.396	5.61
950.825	-3.49
951.254	1.41
951.682	-9.79
952.111	-0.99
952.54	3.11
952.969	-5.39
953.397	-12.89
953.826	-1.79
954.254	-5.39
954.683	2.21
955.112	-5.09
955.54	-1.09
955.969	3.21
956.397	-0.79
956.826	-0.09
957.254	4.61
957.682	6.81
958.111	8.81
958.539	-0.29
958.967	-3.29
959.396	3.21
959.824	0.91
960.252	3.01
960.68	-2.49
961.109	-1.69
961.537	-5.19
961.965	-1.09
962.393	6.21
962.821	-5.19
963.249	2.21
963.677	1.81
964.105	-0.69
964.533	34.21
964.961	31.61
965.389	17.31
965.817	3.41
966.245	-0.29
966.672	2.01
967.1	-3.69
967.528	0.71
967.956	-4.69
968.383	-3.39
968.811	-6.69
969.239	-3.29
969.666	-1.89
970.094	-0.49
970.522	6.61
970.949	2.51
971.377	-1.39
971.804	-6.19
972.232	-0.09
972.659	0.61
973.087	-5.09
973.514	-0.29
973.941	-0.19
974.369	3.41
974.796	-0.49
975.223	-1.59
975.651	2.01
976.078	3.51
976.505	2.01
976.932	-1.49
977.359	10.01
977.786	6.11
978.214	2.11
978.641	-5.19
979.068	-4.49
979.495	-0.29
979.922	-0.29
980.349	-4.49
980.776	4.51
981.202	-4.99
981.629	2.31
982.056	3.81
982.483	-1.59
982.91	0.91
983.337	-5.19
983.763	4.21
984.19	-7.29
984.617	-5.19
985.043	-5.19
985.47	1.51
985.897	-6.79
986.323	-9.29
986.75	1.81
987.176	3.01
987.603	-0.69
988.029	-1.09
988.456	-5.89
988.882	3.31
989.308	-4.19
989.735	-3.19
990.161	1.41
990.587	-4.79
991.014	0.91
991.44	9.01
991.866	-1.89
992.292	-4.59
992.719	-4.19
993.145	2.81
993.571	-9.99
993.997	-2.69
994.423	-2.99
994.849	0.81
995.275	1.21
995.701	3.01
996.127	-4.79
996.553	2.01
996.979	-6.49
997.405	-1.49
997.83	-8.69
998.256	-8.79
998.682	-5.79
999.108	-5.39
999.534	-2.89
999.959	-1.09
1000.385	-1.49
1000.811	-1.19
1001.236	-5.79
1001.662	-4.59
1002.087	-7.59
1002.513	-6.39
1002.938	1.51
1003.364	-1.59
1003.789	-2.89
1004.215	8.41
1004.64	-3.19
1005.066	-0.09
1005.491	7.01
1005.916	-1.09
1006.342	-8.29
1006.767	-8.09
1007.192	3.01
1007.617	-5.79
1008.042	-1.89
1008.468	-5.49
1008.893	-5.79
1009.318	-8.69
1009.743	-7.49
1010.168	3.51
1010.593	1.21
1011.018	-2.89
1011.443	-1.79
1011.868	2.71
1012.293	-5.29
1012.718	-4.59
1013.143	3.01
1013.567	-8.19
1013.992	-4.89
1014.417	-12.49
1014.842	3.51
1015.267	-2.59
1015.691	-1.19
1016.116	9.11
1016.541	3.01
1016.965	3.51
1017.39	2.71
1017.814	1.21
1018.239	-3.49
1018.663	-3.69
1019.088	-12.09
1019.512	1.11
1019.937	-5.29
1020.361	1.11
1020.785	-8.19
1021.21	-3.09
1021.634	1.71
1022.058	-0.09
1022.483	1.71
1022.907	-3.89
1023.331	1.21
1023.755	-5.99
1024.179	-4.39
1024.604	-10.69
1025.028	-0.49
1025.452	2.21
1025.876	-1.59
1026.3	0.01
1026.724	-8.49
1027.148	-8.79
1027.572	-8.19
1027.996	-4.79
1028.42	-1.59
1028.843	1.61
1029.267	-4.79
1029.691	-5.39
1030.115	-5.59
1030.539	-7.49
1030.962	-1.09
1031.386	-8.79
1031.81	1.41
1032.233	-4.89
1032.657	-3.19
1033.08	-1.39
1033.504	-1.19
1033.927	0.81
1034.351	-3.99
1034.774	-7.89
1035.198	-6.09
1035.621	-2.89
1036.045	-3.19
1036.468	-1.39
1036.891	-9.49
1037.315	-11.59
1037.738	-9.59
1038.161	0.01
1038.584	-3.79
1039.008	-6.19
1039.431	-0.19
1039.854	-0.89
1040.277	-5.69
1040.7	-9.89
1041.123	1.41
1041.546	-8.19
1041.969	-11.89
1042.392	-8.09
1042.815	2.51
1043.238	-1.49
1043.661	4.61
1044.084	-8.49
1044.507	-4.29
1044.93	-2.29
1045.352	-6.99
1045.775	-2.69
1046.198	-2.19
1046.621	-7.79
1047.043	6.21
1047.466	10.61
1047.889	-1.59
1048.311	-4.09
1048.734	0.21
1049.156	-3.79
1049.579	2.11
1050.001	0.21
1050.424	-2.69
1050.846	-1.29
1051.269	-1.29
1051.691	-2.99
1052.113	-3.69
1052.536	-0.09
1052.958	-2.19
1053.38	-2.79
1053.802	-6.09
1054.225	-3.59
1054.647	-6.39
1055.069	-5.19
1055.491	6.41
1055.913	-7.59
1056.335	-1.29
1056.757	-3.29
1057.179	-2.19
1057.601	-9.29
1058.023	-2.39
1058.445	-1.99
1058.867	-6.29
1059.289	-3.59
1059.711	-5.99
1060.133	0.21
1060.555	-1.49
1060.976	-7.59
1061.398	-6.79
1061.82	-9.19
1062.241	-8.39
1062.663	-11.69
1063.085	-5.29
1063.506	4.21
1063.928	2.71
1064.35	-3.49
1064.771	-3.89
1065.193	-1.69
1065.614	-9.79
1066.035	-6.59
1066.457	-2.19
1066.878	3.81
1067.3	-5.99
1067.721	2.31
1068.142	-2.79
1068.564	-6.19
1068.985	-3.99
1069.406	-0.49
1069.827	-3.89
1070.248	-1.49
1070.67	0.31
1071.091	-4.09
1071.512	1.21
1071.933	0.21
1072.354	-6.49
1072.775	-4.69
1073.196	-10.99
1073.617	-3.29
1074.038	-4.49
1074.459	-1.39
1074.88	-7.29
1075.3	3.31
1075.721	-5.59
1076.142	4.51
1076.563	-0.99
1076.983	-7.79
1077.404	-9.79
1077.825	-7.19
1078.246	-0.39
1078.666	-10.79
1079.087	-1.09
1079.507	-9.89
1079.928	-4.49
1080.348	3.31
1080.769	-6.09
1081.189	-2.29
1081.61	-2.19
1082.03	-4.09
1082.451	-7.59
1082.871	-0.39
1083.291	-6.29
1083.711	-6.09
1084.132	-6.29
1084.552	-2.59
1084.972	-1.69
1085.392	-10.19
1085.813	-7.79
1086.233	-5.59
1086.653	-3.09
1087.073	-3.09
1087.493	-9.59
1087.913	-9.39
1088.333	-3.39
1088.753	-0.59
1089.173	2.61
1089.593	-4.39
1090.013	-0.19
1090.433	-0.69
1090.852	-3.59
1091.272	-0.09
1091.692	-5.39
1092.112	-1.49
1092.531	-10.79
1092.951	-14.59
1093.371	-7.49
1093.79	8.11
1094.21	2.81
1094.63	-2.59
1095.049	-2.69
1095.469	-4.49
1095.888	-5.59
1096.308	0.41
1096.727	5.81
1097.146	-6.29
1097.566	3.01
1097.985	-5.19
1098.405	-3.79
1098.824	-7.89
1099.243	-10.29
1099.662	-5.69
1100.082	-2.49
1100.501	-0.09
1100.92	-10.39
1101.339	-5.19
1101.758	-6.59
