Data from 20171114-ORNL-Ar_H_NY_Subt18_08-04-21-443.txt Node
Date: Tue Nov 14 08:04:21 EST 2017
User: Ender
Spectrometer: HR+D1039
Trigger mode: 0
Integration Time (sec): 2.730000E-2
Scans to average: 10
Electric dark correction enabled: true
Nonlinearity correction enabled: false
Boxcar width: 0
XAxis mode: Wavelengths
Number of Pixels in Spectrum: 2048
>>>>>Begin Spectral Data<<<<<
187.836	-2.69
188.309	-2.69
188.782	-2.69
189.255	1.31
189.728	-9.59
190.201	3.51
190.674	-3.49
191.147	4.51
191.619	-4.99
192.092	2.61
192.565	7.71
193.038	1.11
193.511	2.31
193.984	5.61
194.456	-3.79
194.929	-0.69
195.402	-2.29
195.874	-1.19
196.347	0.81
196.82	-6.59
197.292	6.41
197.765	-5.19
198.237	-9.89
198.71	4.11
199.182	-1.49
199.655	1.81
200.127	-0.79
200.6	-4.49
201.072	-4.59
201.544	-2.99
202.017	-2.19
202.489	2.91
202.961	-1.69
203.433	-4.69
203.906	-7.89
204.378	-8.39
204.85	-4.99
205.322	-4.99
205.794	-2.79
206.266	-4.19
206.739	-8.29
207.211	2.61
207.683	-4.49
208.155	-5.99
208.627	-3.39
209.099	-3.89
209.57	-13.49
210.042	-7.89
210.514	-1.09
210.986	-3.69
211.458	-7.29
211.93	-1.89
212.402	3.91
212.873	0.61
213.345	-11.39
213.817	-11.99
214.288	-0.29
214.76	-5.89
215.232	-0.29
215.703	-9.79
216.175	-2.69
216.646	-3.89
217.118	-3.49
217.589	-5.09
218.061	-4.99
218.532	3.61
219.004	-2.59
219.475	-7.39
219.946	-2.69
220.418	-2.69
220.889	3.41
221.36	-1.69
221.832	-5.39
222.303	-6.09
222.774	-2.59
223.245	-10.79
223.717	-0.09
224.188	-6.29
224.659	-3.79
225.13	-11.99
225.601	-4.79
226.072	2.41
226.543	-3.29
227.014	-4.39
227.485	-0.49
227.956	-2.19
228.427	-0.89
228.898	5.11
229.369	5.81
229.839	-0.29
230.31	-2.09
230.781	7.31
231.252	3.61
231.722	3.61
232.193	-4.69
232.664	-1.29
233.135	6.11
233.605	-2.09
234.076	-3.69
234.546	6.11
235.017	8.81
235.487	6.51
235.958	-3.39
236.428	0.61
236.899	6.91
237.369	6.51
237.84	3.11
238.31	1.81
238.78	1.21
239.251	0.61
239.721	3.01
240.191	-0.39
240.662	-4.29
241.132	0.71
241.602	3.81
242.072	5.41
242.542	11.51
243.013	0.91
243.483	2.91
243.953	6.01
244.423	1.51
244.893	-1.69
245.363	0.71
245.833	0.61
246.303	4.01
246.773	11.71
247.243	-2.39
247.712	7.91
248.182	12.21
248.652	11.31
249.122	3.81
249.592	15.81
250.061	24.51
250.531	33.71
251.001	16.01
251.471	26.61
251.94	19.61
252.41	10.31
252.879	7.21
253.349	10.71
253.818	2.31
254.288	7.11
254.757	2.91
255.227	5.01
255.696	9.51
256.166	9.91
256.635	6.91
257.105	9.11
257.574	16.71
258.043	16.21
258.513	17.81
258.982	21.51
259.451	12.11
259.92	16.01
260.389	10.51
260.859	17.91
261.328	11.71
261.797	18.71
262.266	9.81
262.735	14.51
263.204	7.01
263.673	3.21
264.142	7.01
264.611	1.11
265.08	5.81
265.549	-0.09
266.018	7.81
266.487	1.91
266.955	-3.19
267.424	4.01
267.893	7.51
268.362	6.31
268.83	8.71
269.299	11.41
269.768	8.51
270.236	8.91
270.705	5.41
271.174	4.61
271.642	13.41
272.111	12.71
272.579	17.61
273.048	26.71
273.516	28.61
273.985	31.11
274.453	22.51
274.922	23.51
275.39	17.81
275.858	3.81
276.327	12.71
276.795	23.01
277.263	11.11
277.731	32.81
278.2	57.31
278.668	65.11
279.136	47.81
279.604	17.51
280.072	15.31
280.54	16.11
281.008	14.51
281.477	15.41
281.945	12.81
282.413	15.01
282.881	15.41
283.348	8.31
283.816	19.51
284.284	17.61
284.752	23.31
285.22	19.01
285.688	17.81
286.156	13.41
286.623	40.11
287.091	50.11
287.559	32.61
288.026	18.71
288.494	17.01
288.962	7.81
289.429	10.01
289.897	16.11
290.364	18.51
290.832	19.61
291.3	13.41
291.767	21.51
292.234	13.71
292.702	16.91
293.169	22.81
293.637	30.01
294.104	17.11
294.571	9.81
295.039	14.31
295.506	17.41
295.973	14.71
296.44	13.81
296.908	12.91
297.375	23.91
297.842	21.41
298.309	22.81
298.776	12.61
299.243	26.11
299.71	21.31
300.177	18.71
300.644	14.61
301.111	25.01
301.578	24.91
302.045	19.71
302.512	19.81
302.979	27.31
303.446	21.01
303.913	18.01
304.379	18.11
304.846	27.91
305.313	22.51
305.78	26.21
306.246	23.71
306.713	25.31
307.18	23.61
307.646	26.51
308.113	29.01
308.579	24.91
309.046	23.31
309.512	24.51
309.979	11.31
310.445	25.61
310.912	34.01
311.378	33.31
311.845	31.41
312.311	24.91
312.777	27.81
313.244	24.91
313.71	39.11
314.176	33.71
314.642	30.81
315.109	34.01
315.575	33.71
316.041	37.51
316.507	32.31
316.973	39.31
317.439	29.61
317.905	35.91
318.371	40.91
318.837	31.61
319.303	33.81
319.769	33.41
320.235	35.41
320.701	33.41
321.167	34.51
321.633	33.91
322.099	43.21
322.564	48.11
323.03	39.81
323.496	35.21
323.962	40.81
324.427	36.81
324.893	39.51
325.359	42.21
325.824	35.41
326.29	34.61
326.755	39.51
327.221	37.81
327.686	38.31
328.152	41.11
328.617	40.71
329.083	49.31
329.548	49.51
330.014	48.51
330.479	37.41
330.944	35.11
331.41	40.31
331.875	43.81
332.34	41.81
332.805	46.41
333.271	48.61
333.736	40.71
334.201	48.41
334.666	48.01
335.131	56.61
335.596	51.41
336.061	45.11
336.526	39.41
336.991	49.31
337.456	50.81
337.921	41.21
338.386	43.01
338.851	41.71
339.316	48.51
339.781	43.31
340.246	50.81
340.711	43.41
341.175	41.51
341.64	44.41
342.105	46.71
342.569	54.11
343.034	57.51
343.499	51.21
343.963	48.91
344.428	62.91
344.893	55.31
345.357	58.41
345.822	53.81
346.286	63.91
346.751	64.71
347.215	66.91
347.679	62.61
348.144	86.41
348.608	74.51
349.073	68.21
349.537	67.01
350.001	72.91
350.465	84.11
350.93	76.61
351.394	79.41
351.858	74.31
352.322	85.31
352.786	76.61
353.25	89.91
353.715	103.61
354.179	93.71
354.643	115.31
355.107	120.31
355.571	100.61
356.035	97.71
356.498	108.11
356.962	111.41
357.426	121.11
357.89	106.31
358.354	82.11
358.818	77.81
359.281	73.81
359.745	71.01
360.209	73.91
360.673	74.91
361.136	78.11
361.6	81.01
362.064	79.01
362.527	86.91
362.991	88.91
363.454	73.01
363.918	75.51
364.381	73.11
364.845	79.71
365.308	76.91
365.772	79.71
366.235	76.01
366.698	73.51
367.162	82.11
367.625	80.91
368.088	79.81
368.552	81.81
369.015	82.01
369.478	85.01
369.941	94.41
370.404	87.51
370.867	90.41
371.331	95.11
371.794	107.61
372.257	108.61
372.72	104.01
373.183	101.61
373.646	101.51
374.109	91.81
374.572	95.51
375.035	98.61
375.497	97.11
375.96	94.71
376.423	94.61
376.886	105.61
377.349	101.81
377.811	93.01
378.274	101.21
378.737	94.61
379.199	105.21
379.662	97.51
380.125	107.61
380.587	113.41
381.05	109.51
381.512	113.71
381.975	122.71
382.437	117.31
382.9	118.51
383.362	121.71
383.825	128.11
384.287	138.41
384.75	125.31
385.212	123.91
385.674	127.71
386.136	126.61
386.599	112.71
387.061	120.81
387.523	120.51
387.985	121.51
388.447	133.81
388.91	130.41
389.372	143.51
389.834	139.01
390.296	136.81
390.758	140.31
391.22	149.11
391.682	188.91
392.144	263.81
392.606	209.51
393.068	153.21
393.529	155.51
393.991	136.41
394.453	135.71
394.915	144.91
395.377	171.01
395.838	195.31
396.3	134.01
396.762	127.51
397.224	120.31
397.685	115.61
398.147	119.11
398.608	120.41
399.07	121.21
399.531	124.81
399.993	127.11
400.454	129.11
400.916	134.31
401.377	131.01
401.839	135.81
402.3	140.61
402.762	142.91
403.223	159.41
403.684	156.31
404.145	143.71
404.607	149.41
405.068	153.61
405.529	156.21
405.99	164.21
406.451	162.11
406.913	155.71
407.374	143.81
407.835	145.91
408.296	148.81
408.757	152.31
409.218	168.91
409.679	162.91
410.14	154.61
410.601	164.01
411.062	171.51
411.522	174.81
411.983	173.11
412.444	154.61
412.905	158.51
413.366	166.41
413.826	175.41
414.287	198.31
414.748	238.01
415.208	224.31
415.669	188.51
416.13	179.71
416.59	181.61
417.051	187.31
417.511	197.41
417.972	217.21
418.432	224.71
418.893	260.01
419.353	230.71
419.814	182.81
420.274	164.81
420.734	165.91
421.195	182.21
421.655	182.41
422.115	170.11
422.576	180.31
423.036	172.31
423.496	185.51
423.956	196.01
424.416	210.11
424.876	242.71
425.336	242.61
425.797	232.61
426.257	225.11
426.717	218.01
427.177	210.41
427.637	204.51
428.097	208.41
428.556	210.91
429.016	241.71
429.476	234.51
429.936	245.21
430.396	250.31
430.856	263.41
431.315	280.91
431.775	313.21
432.235	335.01
432.694	318.21
433.154	318.31
433.614	341.41
434.073	297.91
434.533	260.21
434.993	240.11
435.452	251.81
435.912	256.81
436.371	254.31
436.83	252.01
437.29	239.31
437.749	223.41
438.209	220.11
438.668	240.81
439.127	259.41
439.587	236.41
440.046	221.91
440.505	233.81
440.964	251.21
441.424	278.41
441.883	274.61
442.342	227.41
442.801	202.31
443.26	199.51
443.719	205.51
444.178	197.11
444.637	185.01
445.096	201.51
445.555	198.91
446.014	201.41
446.473	202.71
446.932	202.51
447.391	202.11
447.849	209.01
448.308	201.91
448.767	197.41
449.226	220.21
449.685	215.01
450.143	228.71
450.602	221.21
451.061	211.11
451.519	210.71
451.978	208.21
452.436	212.71
452.895	218.21
453.353	224.01
453.812	218.61
454.27	213.61
454.729	217.31
455.187	212.41
455.646	221.51
456.104	220.01
456.562	230.91
457.021	233.21
457.479	228.31
457.937	239.01
458.395	233.61
458.854	221.31
459.312	227.41
459.77	239.61
460.228	228.81
460.686	216.21
461.144	227.31
461.602	217.31
462.06	212.81
462.518	226.91
462.976	231.51
463.434	237.21
463.892	238.51
464.35	252.61
464.808	257.11
465.266	240.21
465.724	243.01
466.181	237.51
466.639	244.01
467.097	260.61
467.555	273.51
468.012	273.91
468.47	283.21
468.928	293.21
469.385	308.81
469.843	313.91
470.3	323.91
470.758	313.01
471.215	342.71
471.673	361.01
472.13	363.31
472.588	370.01
473.045	335.71
473.503	341.51
473.96	349.61
474.417	364.21
474.875	383.11
475.332	423.81
475.789	410.91
476.246	411.91
476.704	441.81
477.161	455.21
477.618	461.51
478.075	505.11
478.532	550.31
478.989	610.71
479.446	709.21
479.903	694.11
480.36	728.91
480.817	775.71
481.274	877.91
481.731	975.11
482.188	1048.81
482.645	1192.11
483.102	1282.31
483.558	1404.91
484.015	1456.41
484.472	1440.71
484.929	1398.61
485.385	1350.91
485.842	1312.31
486.299	1242.71
486.755	1167.61
487.212	985.51
487.668	845.81
488.125	779.61
488.582	708.91
489.038	686.21
489.494	641.21
489.951	622.31
490.407	609.61
490.864	588.71
491.32	582.31
491.776	578.51
492.233	581.21
492.689	549.81
493.145	547.51
493.602	538.21
494.058	553.01
494.514	562.61
494.97	574.71
495.426	585.41
495.882	573.21
496.338	557.21
496.794	571.41
497.251	563.11
497.707	582.21
498.163	573.71
498.618	586.71
499.074	581.31
499.53	614.11
499.986	604.01
500.442	581.11
500.898	565.71
501.354	560.31
501.809	570.11
502.265	582.31
502.721	601.01
503.177	605.81
503.632	603.11
504.088	603.41
504.543	637.91
504.999	633.51
505.455	590.21
505.91	580.61
506.366	574.71
506.821	569.51
507.277	563.51
507.732	563.31
508.187	565.31
508.643	578.11
509.098	570.81
509.553	596.91
510.009	587.81
510.464	606.81
510.919	607.51
511.375	624.11
511.83	639.51
512.285	649.91
512.74	675.71
513.195	692.71
513.65	692.41
514.105	698.51
514.56	699.51
515.015	723.81
515.47	726.61
515.925	709.21
516.38	722.91
516.835	714.21
517.29	706.11
517.745	703.21
518.2	694.41
518.655	678.41
519.109	675.81
519.564	677.71
520.019	666.51
520.474	661.31
520.928	661.21
521.383	652.31
521.838	648.01
522.292	632.31
522.747	644.21
523.201	634.91
523.656	625.51
524.11	621.51
524.565	619.81
525.019	612.11
525.474	629.31
525.928	629.61
526.382	625.91
526.837	621.21
527.291	628.51
527.745	628.91
528.2	622.41
528.654	618.91
529.108	617.41
529.562	612.31
530.016	630.11
530.47	621.31
530.925	625.41
531.379	623.61
531.833	633.21
532.287	628.41
532.741	622.51
533.195	633.61
533.649	650.61
534.103	648.11
534.556	642.71
535.01	633.11
535.464	627.41
535.918	644.31
536.372	646.11
536.826	636.11
537.279	628.91
537.733	633.71
538.187	636.61
538.64	642.71
539.094	644.71
539.548	648.11
540.001	646.41
540.455	645.11
540.908	658.21
541.362	658.61
541.815	663.21
542.269	675.11
542.722	668.31
543.175	671.21
543.629	683.21
544.082	687.31
544.536	705.61
544.989	693.91
545.442	704.21
545.895	698.81
546.349	703.11
546.802	695.81
547.255	705.01
547.708	710.81
548.161	716.51
548.614	723.41
549.067	726.51
549.52	722.11
549.973	725.01
550.426	708.21
550.879	711.21
551.332	707.61
551.785	717.21
552.238	717.91
552.691	729.21
553.144	737.21
553.596	744.61
554.049	761.01
554.502	790.21
554.955	817.51
555.407	809.31
555.86	806.61
556.313	791.31
556.765	769.31
557.218	790.41
557.67	783.71
558.123	769.71
558.576	784.41
559.028	780.11
559.48	772.41
559.933	765.11
560.385	734.21
560.838	714.61
561.29	689.61
561.742	684.51
562.195	664.71
562.647	668.81
563.099	680.91
563.551	680.91
564.004	687.91
564.456	676.81
564.908	665.11
565.36	663.31
565.812	649.41
566.264	632.81
566.716	638.61
567.168	625.51
567.62	631.11
568.072	604.31
568.524	599.41
568.976	595.41
569.428	586.61
569.88	588.01
570.332	593.01
570.784	599.01
571.235	594.71
571.687	607.01
572.139	609.81
572.59	619.11
573.042	621.21
573.494	622.61
573.945	611.11
574.397	594.91
574.849	604.21
575.3	608.01
575.752	594.31
576.203	593.71
576.655	589.61
577.106	587.11
577.557	581.61
578.009	576.71
578.46	567.51
578.912	568.91
579.363	578.01
579.814	578.01
580.265	575.71
580.717	572.41
581.168	585.41
581.619	584.31
582.07	578.21
582.521	578.11
582.972	575.51
583.423	578.71
583.875	580.31
584.326	605.61
584.777	648.31
585.227	709.51
585.678	788.91
586.129	872.31
586.58	937.31
587.031	1030.91
587.482	1178.91
587.933	1339.41
588.384	1160.21
588.834	853.61
589.285	687.71
589.736	666.61
590.186	671.61
590.637	666.61
591.088	639.11
591.538	635.21
591.989	622.01
592.439	625.81
592.89	626.01
593.34	613.61
593.791	608.81
594.241	599.01
594.692	605.41
595.142	598.91
595.593	593.51
596.043	608.11
596.493	619.61
596.943	610.71
597.394	616.41
597.844	611.01
598.294	626.61
598.744	655.51
599.195	656.71
599.645	694.71
600.095	724.11
600.545	778.11
600.995	826.91
601.445	877.81
601.895	925.21
602.345	964.21
602.795	955.91
603.245	922.91
603.695	851.21
604.145	823.71
604.594	771.91
605.044	731.11
605.494	673.61
605.944	650.61
606.393	629.21
606.843	620.91
607.293	627.21
607.743	617.91
608.192	629.31
608.642	643.41
609.091	643.71
609.541	655.91
609.99	643.91
610.44	641.41
610.889	608.51
611.339	581.11
611.788	574.61
612.238	579.31
612.687	608.61
613.136	605.61
613.586	623.51
614.035	624.51
614.484	639.11
614.933	638.91
615.383	631.21
615.832	619.41
616.281	610.81
616.73	572.81
617.179	556.41
617.628	551.61
618.077	522.71
618.526	523.01
618.975	531.11
619.424	520.21
619.873	518.21
620.322	520.81
620.771	505.81
621.22	504.21
621.669	499.61
622.118	492.01
622.567	485.41
623.015	480.81
623.464	471.71
623.913	464.41
624.361	467.41
624.81	460.61
625.259	466.01
625.707	463.21
626.156	461.31
626.604	475.41
627.053	467.01
627.501	467.81
627.95	484.31
628.398	489.11
628.847	479.31
629.295	468.31
629.744	481.71
630.192	469.81
630.64	476.71
631.089	475.61
631.537	484.41
631.985	484.01
632.433	488.61
632.881	489.01
633.33	543.21
633.778	518.81
634.226	463.41
634.674	469.61
635.122	476.21
635.57	490.21
636.018	519.51
636.466	479.21
636.914	467.11
637.362	479.21
637.81	478.51
638.258	478.01
638.705	482.81
639.153	497.31
639.601	507.31
640.049	529.41
640.497	557.31
640.944	581.81
641.392	526.51
641.84	504.01
642.287	483.01
642.735	469.71
643.182	465.61
643.63	469.51
644.078	480.31
644.525	487.91
644.973	488.31
645.42	492.41
645.867	511.31
646.315	525.81
646.762	549.91
647.21	567.81
647.657	583.71
648.104	627.31
648.551	633.61
648.999	686.31
649.446	747.61
649.893	828.71
650.34	955.91
650.787	1140.61
651.234	1403.21
651.682	1818.01
652.129	2497.11
652.576	3573.71
653.023	5294.11
653.47	7355.91
653.917	9337.31
654.363	10913.01
654.81	12331.21
655.257	11731.21
655.704	7573.61
656.151	4449.51
656.598	2859.51
657.044	2021.11
657.491	1550.91
657.938	1239.51
658.385	1021.11
658.831	898.01
659.278	795.91
659.724	692.51
660.171	646.11
660.618	597.41
661.064	562.11
661.511	543.41
661.957	521.91
662.404	517.71
662.85	526.51
663.296	503.81
663.743	450.41
664.189	444.91
664.635	434.61
665.082	432.81
665.528	437.11
665.974	418.41
666.42	417.91
666.867	412.41
667.313	396.91
667.759	399.21
668.205	388.01
668.651	402.21
669.097	398.61
669.543	413.41
669.989	387.11
670.435	369.71
670.881	364.81
671.327	365.41
671.773	380.01
672.219	396.61
672.665	444.91
673.11	479.31
673.556	506.61
674.002	547.81
674.448	534.41
674.893	445.91
675.339	383.21
675.785	355.51
676.23	343.21
676.676	314.61
677.122	314.71
677.567	303.41
678.013	296.81
678.458	289.31
678.904	290.91
679.349	284.01
679.794	289.41
680.24	286.21
680.685	278.91
681.131	285.71
681.576	283.71
682.021	283.61
682.466	279.11
682.912	281.71
683.357	285.31
683.802	304.71
684.247	331.71
684.692	367.91
685.137	404.51
685.583	434.71
686.028	455.81
686.473	421.81
686.918	358.81
687.363	335.61
687.807	319.01
688.252	297.31
688.697	284.81
689.142	276.41
689.587	272.01
690.032	265.61
690.477	280.01
690.921	279.81
691.366	316.51
691.811	320.51
692.255	353.11
692.7	377.21
693.145	409.31
693.589	543.01
694.034	893.21
694.478	1228.61
694.923	1430.21
695.367	1895.01
695.812	987.21
696.256	404.41
696.701	299.91
697.145	273.31
697.59	263.41
698.034	261.41
698.478	264.11
698.922	260.71
699.367	268.21
699.811	268.61
700.255	282.01
700.699	307.01
701.143	344.11
701.588	386.41
702.032	418.81
702.476	429.61
702.92	403.01
703.364	390.41
703.808	502.71
704.252	818.31
704.696	1154.81
705.14	1370.01
705.584	1786.61
706.027	868.31
706.471	418.01
706.915	321.91
707.359	281.61
707.803	254.11
708.246	248.81
708.69	250.41
709.134	250.21
709.577	252.31
710.021	245.21
710.465	238.91
710.908	240.91
711.352	247.51
711.795	250.81
712.239	278.51
712.682	305.61
713.126	338.11
713.569	381.41
714.012	305.21
714.456	252.21
714.899	235.71
715.342	221.01
715.786	211.81
716.229	208.61
716.672	205.41
717.115	197.01
717.558	201.71
718.002	198.61
718.445	212.81
718.888	230.21
719.331	238.51
719.774	252.11
720.217	251.61
720.66	224.81
721.103	214.61
721.546	201.81
721.989	205.11
722.432	177.61
722.874	189.81
723.317	183.21
723.76	189.51
724.203	209.41
724.645	249.41
725.088	351.41
725.531	446.91
725.974	522.31
726.416	440.91
726.859	247.41
727.301	191.51
727.744	192.61
728.187	185.71
728.629	194.71
729.071	192.31
729.514	199.61
729.956	214.31
730.399	230.01
730.841	225.01
731.283	211.81
731.726	215.81
732.168	207.21
732.61	211.01
733.053	229.91
733.495	250.71
733.937	277.31
734.379	316.01
734.821	356.61
735.263	424.21
735.705	647.61
736.148	1223.81
736.59	2062.91
737.032	2555.31
737.474	2077.31
737.916	659.81
738.357	334.21
738.799	259.41
739.241	240.61
739.683	222.11
740.125	234.91
740.567	240.61
741.008	253.51
741.45	250.01
741.892	249.71
742.334	275.31
742.775	299.01
743.217	275.21
743.658	214.81
744.1	209.51
744.542	207.21
744.983	248.71
745.425	281.01
745.866	282.91
746.307	227.21
746.749	228.91
747.19	260.11
747.632	354.71
748.073	674.71
748.514	1439.61
748.956	2292.41
749.397	2883.61
749.838	2387.51
750.279	2468.31
750.72	1242.41
751.162	433.31
751.603	253.21
752.044	204.61
752.485	168.71
752.926	161.51
753.367	168.51
753.808	160.41
754.249	149.71
754.69	152.71
755.131	145.61
755.572	145.61
756.013	141.51
756.453	147.41
756.894	148.61
757.335	150.11
757.776	152.81
758.216	156.91
758.657	160.41
759.098	157.61
759.538	179.31
759.979	210.71
760.42	292.51
760.86	535.01
761.301	1400.91
761.741	3506.41
762.182	5416.01
762.622	3819.21
763.063	1075.91
763.503	437.81
763.943	278.21
764.384	277.61
764.824	329.31
765.264	358.11
765.705	256.61
766.145	168.81
766.585	152.71
767.025	146.41
767.465	154.81
767.906	189.61
768.346	262.61
768.786	284.21
769.226	218.31
769.666	251.01
770.106	471.41
770.546	1208.11
770.986	2179.11
771.426	1996.11
771.866	646.01
772.306	262.41
772.745	171.71
773.185	143.11
773.625	132.61
774.065	128.41
774.505	158.41
774.944	241.41
775.384	535.01
775.824	1023.11
776.263	1027.01
776.703	428.01
777.142	178.51
777.582	120.81
778.021	116.91
778.461	118.71
778.9	112.81
779.34	100.61
779.779	90.71
780.219	84.41
780.658	84.01
781.097	91.11
781.537	91.01
781.976	88.41
782.415	88.21
782.855	86.01
783.294	75.91
783.733	76.41
784.172	83.61
784.611	86.71
785.05	81.61
785.489	89.01
785.928	92.51
786.367	104.91
786.806	91.51
787.245	104.81
787.684	108.31
788.123	117.71
788.562	108.41
789.001	102.61
789.44	97.11
789.879	90.31
790.317	97.11
790.756	104.31
791.195	97.01
791.634	110.31
792.072	160.61
792.511	277.01
792.95	770.61
793.388	1755.81
793.827	1643.51
794.265	555.21
794.704	227.51
795.142	153.01
795.581	123.61
796.019	104.51
796.458	99.91
796.896	105.11
797.334	99.81
797.773	127.11
798.211	166.81
798.649	330.31
799.087	790.71
799.526	1284.61
799.964	1612.21
800.402	1693.41
800.84	625.81
801.278	240.51
801.716	149.41
802.154	127.31
802.592	119.51
803.03	109.61
803.468	108.21
803.906	113.11
804.344	118.01
804.782	113.61
805.22	104.91
805.658	105.81
806.096	117.21
806.533	121.71
806.971	140.31
807.409	176.11
807.847	247.41
808.284	505.31
808.722	1473.51
809.16	2717.31
809.597	2489.11
810.035	4432.01
810.472	4969.41
810.91	1760.81
811.347	651.11
811.785	332.81
812.222	209.21
812.66	162.01
813.097	131.81
813.535	114.41
813.972	105.71
814.409	97.01
814.846	86.21
815.284	93.31
815.721	87.01
816.158	79.41
816.595	94.71
817.032	148.41
817.47	161.51
817.907	145.51
818.344	117.91
818.781	94.21
819.218	80.61
819.655	105.51
820.092	152.01
820.529	183.31
820.966	147.51
821.403	109.51
821.839	90.91
822.276	86.81
822.713	96.81
823.15	109.51
823.587	89.91
824.023	112.01
824.46	226.81
824.897	706.71
825.333	1133.31
825.77	490.11
826.206	184.11
826.643	109.61
827.08	80.71
827.516	66.01
827.953	59.41
828.389	65.91
828.825	49.61
829.262	63.61
829.698	53.01
830.135	51.71
830.571	49.31
831.007	50.51
831.443	53.91
831.88	49.11
832.316	47.11
832.752	54.61
833.188	57.31
833.624	52.21
834.06	53.51
834.497	57.51
834.933	55.31
835.369	65.21
835.805	51.91
836.241	68.51
836.677	62.11
837.112	65.21
837.548	74.31
837.984	103.81
838.42	158.61
838.856	382.01
839.292	1203.21
839.727	1963.71
840.163	892.21
840.599	730.81
841.034	1654.01
841.47	1817.31
841.906	652.91
842.341	269.81
842.777	190.21
843.212	266.71
843.648	257.31
844.083	121.81
844.519	72.21
844.954	54.21
845.39	46.81
845.825	46.21
846.261	49.41
846.696	49.11
847.131	45.81
847.566	46.41
848.002	39.21
848.437	40.91
848.872	48.31
849.307	49.11
849.742	68.11
850.177	136.91
850.613	437.41
851.048	730.91
851.483	315.21
851.918	120.31
852.353	68.11
852.788	49.01
853.223	44.51
853.657	43.21
854.092	38.01
854.527	34.71
854.962	29.01
855.397	32.11
855.832	45.21
856.266	33.41
856.701	33.71
857.136	32.21
857.57	32.51
858.005	41.31
858.44	48.21
858.874	31.51
859.309	43.41
859.743	30.51
860.178	36.71
860.612	30.71
861.047	45.51
861.481	56.81
861.915	57.31
862.35	43.01
862.784	23.51
863.218	38.01
863.653	32.81
864.087	34.31
864.521	43.31
864.955	49.81
865.39	126.01
865.824	148.61
866.258	93.71
866.692	137.81
867.126	147.91
867.56	92.01
867.994	42.11
868.428	29.81
868.862	36.61
869.296	44.81
869.73	53.21
870.164	45.91
870.598	40.11
871.031	32.51
871.465	22.91
871.899	30.51
872.333	20.51
872.766	22.81
873.2	17.01
873.634	23.41
874.067	20.21
874.501	12.61
874.935	28.71
875.368	23.41
875.802	20.11
876.235	21.01
876.669	20.81
877.102	18.41
877.535	23.21
877.969	18.81
878.402	22.51
878.836	11.31
879.269	18.41
879.702	24.71
880.135	21.81
880.569	23.91
881.002	22.71
881.435	20.91
881.868	12.51
882.301	11.31
882.734	11.91
883.167	22.61
883.601	9.51
884.034	16.21
884.467	13.61
884.899	16.51
885.332	15.01
885.765	17.41
886.198	12.51
886.631	12.61
887.064	15.61
887.497	14.81
887.929	20.11
888.362	11.11
888.795	7.11
889.228	19.31
889.66	19.61
890.093	15.81
890.526	13.21
890.958	10.61
891.391	13.21
891.823	15.71
892.256	13.81
892.688	11.81
893.121	15.31
893.553	11.71
893.985	15.41
894.418	16.41
894.85	7.11
895.282	18.31
895.715	11.21
896.147	19.61
896.579	15.71
897.011	14.91
897.444	20.01
897.876	14.81
898.308	16.91
898.74	15.31
899.172	14.01
899.604	11.91
900.036	15.91
900.468	19.71
900.9	7.01
901.332	10.01
901.764	11.11
902.196	14.11
902.628	19.31
903.06	17.21
903.491	23.41
903.923	19.31
904.355	21.61
904.787	22.41
905.218	23.81
905.65	21.81
906.082	11.71
906.513	2.21
906.945	10.91
907.376	14.21
907.808	14.41
908.239	22.41
908.671	13.61
909.102	16.81
909.534	21.31
909.965	41.41
910.397	76.71
910.828	259.91
911.259	400.31
911.691	175.31
912.122	91.01
912.553	45.11
912.984	31.41
913.415	23.71
913.847	21.21
914.278	10.61
914.709	7.21
915.14	14.51
915.571	15.01
916.002	14.51
916.433	16.71
916.864	13.81
917.295	4.91
917.726	25.11
918.157	10.11
918.587	20.61
919.018	16.61
919.449	13.81
919.88	20.31
920.311	29.91
920.741	37.61
921.172	135.11
921.603	125.11
922.033	64.01
922.464	32.11
922.895	18.21
923.325	20.01
923.756	15.41
924.186	15.71
924.617	23.41
925.047	35.21
925.478	47.21
925.908	32.01
926.338	19.81
926.769	17.31
927.199	19.41
927.629	4.61
928.06	16.21
928.49	13.51
928.92	9.11
929.35	9.11
929.78	7.11
930.21	6.11
930.641	10.01
931.071	12.91
931.501	5.21
931.931	13.11
932.361	7.81
932.791	-1.89
933.221	-0.49
933.651	1.51
934.08	15.21
934.51	29.11
934.94	13.01
935.37	11.91
935.8	11.61
936.229	0.21
936.659	9.71
937.089	-0.49
937.519	10.41
937.948	19.71
938.378	10.11
938.807	-1.69
939.237	-3.19
939.666	6.11
940.096	-2.69
940.525	3.41
940.955	-0.19
941.384	5.41
941.814	-5.19
942.243	-5.19
942.672	8.11
943.102	-3.29
943.531	-1.49
943.96	4.51
944.39	7.91
944.819	0.01
945.248	4.51
945.677	3.71
946.106	3.31
946.535	0.41
946.964	2.31
947.393	8.11
947.822	5.71
948.251	-0.99
948.68	0.21
949.109	2.61
949.538	5.61
949.967	-0.99
950.396	-0.09
950.825	4.01
951.254	-2.79
951.682	-10.49
952.111	3.41
952.54	5.61
952.969	-2.49
953.397	-3.49
953.826	-6.19
954.254	-5.29
954.683	0.21
955.112	-3.89
955.54	-5.39
955.969	4.41
956.397	-7.39
956.826	-7.29
957.254	0.81
957.682	-0.39
958.111	5.31
958.539	-3.59
958.967	1.81
959.396	-2.89
959.824	-3.19
960.252	0.81
960.68	-5.19
961.109	-1.99
961.537	3.61
961.965	2.51
962.393	1.81
962.821	-1.29
963.249	-0.39
963.677	1.81
964.105	-0.39
964.533	38.51
964.961	38.01
965.389	10.81
965.817	3.01
966.245	2.91
966.672	0.11
967.1	-6.99
967.528	-1.39
967.956	-3.49
968.383	-1.39
968.811	-4.89
969.239	-2.09
969.666	-12.49
970.094	-0.79
970.522	4.41
970.949	1.51
971.377	-3.19
971.804	-1.79
972.232	-0.79
972.659	2.11
973.087	-1.99
973.514	0.01
973.941	-14.19
974.369	-1.19
974.796	7.61
975.223	2.31
975.651	0.61
976.078	8.31
976.505	-6.69
976.932	0.21
977.359	11.51
977.786	13.31
978.214	7.01
978.641	-9.19
979.068	-6.79
979.495	-7.09
979.922	2.91
980.349	0.21
980.776	4.61
981.202	-1.29
981.629	-0.19
982.056	7.51
982.483	-5.29
982.91	-1.89
983.337	3.21
983.763	3.61
984.19	-3.39
984.617	-3.59
985.043	-0.49
985.47	1.11
985.897	1.41
986.323	-2.09
986.75	0.61
987.176	-2.99
987.603	4.61
988.029	4.21
988.456	-3.09
988.882	2.31
989.308	-5.59
989.735	-6.49
990.161	5.31
990.587	0.21
991.014	0.31
991.44	8.01
991.866	-3.09
992.292	-8.19
992.719	-3.09
993.145	7.01
993.571	-3.39
993.997	-7.29
994.423	0.21
994.849	-4.49
995.275	1.01
995.701	0.11
996.127	-4.09
996.553	2.51
996.979	-8.59
997.405	-1.69
997.83	-5.09
998.256	-2.39
998.682	-6.69
999.108	-8.79
999.534	0.11
999.959	-3.09
1000.385	-2.79
1000.811	-0.79
1001.236	-3.09
1001.662	-4.49
1002.087	-6.69
1002.513	-3.09
1002.938	4.21
1003.364	-2.19
1003.789	2.71
1004.215	3.31
1004.64	3.61
1005.066	4.01
1005.491	-4.59
1005.916	-1.79
1006.342	-0.99
1006.767	-7.79
1007.192	3.51
1007.617	-1.49
1008.042	0.41
1008.468	-7.09
1008.893	-1.09
1009.318	-6.19
1009.743	-4.89
1010.168	3.31
1010.593	7.11
1011.018	-11.29
1011.443	-2.69
1011.868	4.51
1012.293	-5.09
1012.718	-4.69
1013.143	0.21
1013.567	0.11
1013.992	-4.69
1014.417	-15.09
1014.842	6.11
1015.267	-2.89
1015.691	-6.19
1016.116	7.81
1016.541	0.21
1016.965	1.21
1017.39	3.01
1017.814	0.21
1018.239	4.41
1018.663	-1.29
1019.088	-13.39
1019.512	-0.79
1019.937	0.61
1020.361	-5.89
1020.785	-10.89
1021.21	1.31
1021.634	-1.59
1022.058	1.01
1022.483	2.31
1022.907	1.21
1023.331	-0.29
1023.755	-5.39
1024.179	-6.29
1024.604	-8.89
1025.028	-6.69
1025.452	-2.69
1025.876	-0.19
1026.3	-2.99
1026.724	-11.79
1027.148	-0.89
1027.572	-1.29
1027.996	-3.99
1028.42	0.81
1028.843	-4.09
1029.267	-4.69
1029.691	-2.19
1030.115	-9.79
1030.539	-10.69
1030.962	-2.49
1031.386	-7.99
1031.81	-2.89
1032.233	3.01
1032.657	-3.89
1033.08	-5.39
1033.504	-4.19
1033.927	-9.29
1034.351	1.31
1034.774	-5.89
1035.198	0.51
1035.621	-7.89
1036.045	-1.79
1036.468	2.81
1036.891	-6.79
1037.315	-10.69
1037.738	-5.39
1038.161	-3.99
1038.584	0.71
1039.008	-4.59
1039.431	-1.39
1039.854	-8.89
1040.277	-7.09
1040.7	-4.59
1041.123	-2.29
1041.546	-9.09
1041.969	-2.39
1042.392	-7.79
1042.815	1.51
1043.238	1.01
1043.661	7.41
1044.084	-3.49
1044.507	-6.19
1044.93	-4.29
1045.352	-3.09
1045.775	0.41
1046.198	0.31
1046.621	3.81
1047.043	-0.99
1047.466	11.11
1047.889	0.41
1048.311	-2.09
1048.734	-1.69
1049.156	0.91
1049.579	-2.69
1050.001	-3.59
1050.424	-4.89
1050.846	-5.89
1051.269	-1.69
1051.691	-8.09
1052.113	-4.09
1052.536	-6.49
1052.958	-1.29
1053.38	-2.49
1053.802	-5.89
1054.225	5.11
1054.647	-8.79
1055.069	-2.79
1055.491	3.91
1055.913	-4.29
1056.335	-0.49
1056.757	-5.49
1057.179	-2.39
1057.601	-4.29
1058.023	-1.09
1058.445	-3.69
1058.867	-8.49
1059.289	-3.19
1059.711	-8.99
1060.133	-4.79
1060.555	-3.99
1060.976	-4.59
1061.398	-1.99
1061.82	-1.69
1062.241	-7.59
1062.663	-14.19
1063.085	-11.59
1063.506	1.61
1063.928	-8.09
1064.35	0.31
1064.771	-8.29
1065.193	1.11
1065.614	-7.79
1066.035	-1.29
1066.457	-2.09
1066.878	-3.69
1067.3	-3.59
1067.721	-2.89
1068.142	-3.09
1068.564	-4.19
1068.985	-2.49
1069.406	-7.29
1069.827	-4.29
1070.248	3.61
1070.67	-6.89
1071.091	-3.19
1071.512	-5.39
1071.933	-3.89
1072.354	-6.59
1072.775	0.71
1073.196	-7.59
1073.617	1.51
1074.038	-9.59
1074.459	-2.89
1074.88	-1.09
1075.3	-1.09
1075.721	-1.79
1076.142	0.91
1076.563	-0.79
1076.983	-8.39
1077.404	-7.39
1077.825	-6.89
1078.246	-9.49
1078.666	-13.89
1079.087	-1.09
1079.507	-1.59
1079.928	-3.09
1080.348	-0.09
1080.769	-3.29
1081.189	-2.39
1081.61	0.71
1082.03	-4.99
1082.451	-1.39
1082.871	-4.69
1083.291	-1.49
1083.711	-7.59
1084.132	-4.49
1084.552	-4.99
1084.972	-1.19
1085.392	-9.79
1085.813	-9.19
1086.233	-10.29
1086.653	-5.39
1087.073	0.81
1087.493	-9.59
1087.913	-6.39
1088.333	-4.69
1088.753	-3.99
1089.173	3.01
1089.593	-3.79
1090.013	3.21
1090.433	-3.39
1090.852	-6.29
1091.272	0.31
1091.692	0.91
1092.112	-7.29
1092.531	-6.69
1092.951	-8.59
1093.371	-3.19
1093.79	0.01
1094.21	-0.79
1094.63	-6.19
1095.049	-2.39
1095.469	-5.09
1095.888	-5.49
1096.308	-2.69
1096.727	8.41
1097.146	-4.29
1097.566	-3.49
1097.985	-5.39
1098.405	-2.59
1098.824	-3.59
1099.243	-6.59
1099.662	-10.29
1100.082	-4.89
1100.501	-7.49
1100.92	-4.39
1101.339	0.41
1101.758	-5.49
