Data from 20171114-ORNL-Ar_H_NY_Subt18_08-03-42-135.txt Node
Date: Tue Nov 14 08:03:42 EST 2017
User: Ender
Spectrometer: HR+D1039
Trigger mode: 0
Integration Time (sec): 2.730000E-2
Scans to average: 10
Electric dark correction enabled: true
Nonlinearity correction enabled: false
Boxcar width: 0
XAxis mode: Wavelengths
Number of Pixels in Spectrum: 2048
>>>>>Begin Spectral Data<<<<<
187.836	1.53
188.309	1.53
188.782	1.53
189.255	-1.77
189.728	1.93
190.201	2.43
190.674	1.53
191.147	4.23
191.619	-7.97
192.092	-1.97
192.565	3.73
193.038	-1.67
193.511	0.83
193.984	-0.27
194.456	-2.07
194.929	2.13
195.402	-0.37
195.874	-2.27
196.347	1.33
196.82	-4.67
197.292	8.03
197.765	-2.97
198.237	-8.67
198.71	2.13
199.182	-0.47
199.655	3.43
200.127	3.83
200.6	-3.77
201.072	-2.87
201.544	-5.67
202.017	-1.37
202.489	5.03
202.961	0.53
203.433	-1.17
203.906	-5.87
204.378	-5.27
204.85	0.13
205.322	-8.47
205.794	0.23
206.266	-5.87
206.739	-7.17
207.211	0.93
207.683	-5.47
208.155	-10.17
208.627	0.53
209.099	2.83
209.57	-9.87
210.042	-3.97
210.514	-5.07
210.986	-2.67
211.458	-8.37
211.93	-6.17
212.402	-2.67
212.873	-10.67
213.345	-7.37
213.817	-12.97
214.288	-0.47
214.76	-13.57
215.232	-4.97
215.703	-5.97
216.175	-5.47
216.646	-6.57
217.118	-9.67
217.589	-5.57
218.061	-1.97
218.532	-3.77
219.004	-2.67
219.475	-3.67
219.946	-6.67
220.418	-2.67
220.889	2.83
221.36	1.93
221.832	-6.17
222.303	-11.87
222.774	-3.57
223.245	-9.57
223.717	-6.27
224.188	-3.57
224.659	-4.67
225.13	-7.07
225.601	1.23
226.072	1.43
226.543	0.33
227.014	-0.87
227.485	-7.67
227.956	-6.47
228.427	-2.27
228.898	3.03
229.369	-2.37
229.839	-5.67
230.31	-12.17
230.781	-1.97
231.252	-6.77
231.722	-9.37
232.193	-1.97
232.664	-3.37
233.135	-0.27
233.605	-0.47
234.076	-3.67
234.546	6.73
235.017	-1.07
235.487	1.13
235.958	-7.17
236.428	-1.27
236.899	0.73
237.369	-0.67
237.84	-5.87
238.31	-1.07
238.78	-5.87
239.251	-3.87
239.721	-7.37
240.191	-7.87
240.662	-9.77
241.132	-4.27
241.602	-2.87
242.072	-1.37
242.542	3.13
243.013	-5.07
243.483	0.73
243.953	1.73
244.423	1.83
244.893	-5.67
245.363	-0.07
245.833	-0.77
246.303	-6.77
246.773	3.23
247.243	-4.67
247.712	-3.77
248.182	-1.37
248.652	1.53
249.122	-9.77
249.592	-4.57
250.061	1.83
250.531	-1.77
251.001	-1.57
251.471	0.13
251.94	7.33
252.41	-7.37
252.879	-3.77
253.349	5.43
253.818	8.13
254.288	1.13
254.757	-5.27
255.227	-7.77
255.696	1.63
256.166	8.33
256.635	2.13
257.105	0.83
257.574	2.03
258.043	-9.37
258.513	-5.87
258.982	-4.37
259.451	-1.57
259.92	-3.17
260.389	-0.17
260.859	5.13
261.328	4.93
261.797	1.43
262.266	-4.77
262.735	6.83
263.204	1.13
263.673	0.63
264.142	2.43
264.611	-1.87
265.08	-1.37
265.549	-5.87
266.018	-4.37
266.487	-5.37
266.955	-10.77
267.424	-8.07
267.893	4.83
268.362	-2.17
268.83	-2.07
269.299	4.53
269.768	-2.57
270.236	-2.77
270.705	-7.27
271.174	1.23
271.642	0.73
272.111	3.33
272.579	5.43
273.048	1.93
273.516	-3.27
273.985	3.33
274.453	2.83
274.922	9.63
275.39	4.63
275.858	-0.27
276.327	5.33
276.795	8.53
277.263	0.83
277.731	7.33
278.2	4.33
278.668	0.93
279.136	-6.27
279.604	-1.37
280.072	5.23
280.54	1.43
281.008	7.53
281.477	7.63
281.945	2.13
282.413	7.63
282.881	11.43
283.348	1.53
283.816	8.23
284.284	4.53
284.752	14.13
285.22	2.73
285.688	7.43
286.156	3.63
286.623	16.13
287.091	5.63
287.559	15.23
288.026	6.13
288.494	2.83
288.962	5.03
289.429	-2.17
289.897	14.43
290.364	9.63
290.832	7.83
291.3	6.03
291.767	11.93
292.234	12.83
292.702	4.93
293.169	11.73
293.637	12.63
294.104	10.83
294.571	-0.17
295.039	6.43
295.506	1.53
295.973	15.33
296.44	6.13
296.908	12.33
297.375	6.43
297.842	12.53
298.309	10.73
298.776	9.23
299.243	17.93
299.71	2.43
300.177	11.93
300.644	7.73
301.111	15.53
301.578	16.83
302.045	5.73
302.512	15.53
302.979	23.53
303.446	17.63
303.913	9.43
304.379	12.13
304.846	24.23
305.313	16.83
305.78	14.03
306.246	13.93
306.713	20.33
307.18	12.73
307.646	19.73
308.113	14.83
308.579	10.93
309.046	13.63
309.512	20.93
309.979	15.13
310.445	18.13
310.912	20.43
311.378	22.83
311.845	24.73
312.311	19.23
312.777	22.43
313.244	23.23
313.71	26.23
314.176	18.03
314.642	26.43
315.109	24.03
315.575	31.73
316.041	36.33
316.507	15.23
316.973	29.03
317.439	21.33
317.905	28.43
318.371	27.33
318.837	22.23
319.303	30.23
319.769	25.33
320.235	29.23
320.701	30.93
321.167	28.13
321.633	18.33
322.099	29.23
322.564	29.53
323.03	28.53
323.496	28.63
323.962	37.13
324.427	29.63
324.893	39.23
325.359	34.03
325.824	28.73
326.29	33.83
326.755	32.43
327.221	34.03
327.686	34.33
328.152	39.73
328.617	33.63
329.083	36.13
329.548	46.13
330.014	39.43
330.479	31.53
330.944	33.43
331.41	38.03
331.875	38.83
332.34	38.43
332.805	41.33
333.271	29.63
333.736	39.63
334.201	40.73
334.666	47.53
335.131	43.53
335.596	42.93
336.061	45.23
336.526	37.43
336.991	42.93
337.456	50.63
337.921	46.03
338.386	35.93
338.851	42.13
339.316	38.93
339.781	48.43
340.246	43.23
340.711	45.63
341.175	49.53
341.64	39.83
342.105	50.93
342.569	55.33
343.034	50.23
343.499	50.73
343.963	51.63
344.428	58.73
344.893	59.93
345.357	58.03
345.822	60.73
346.286	58.33
346.751	65.13
347.215	65.73
347.679	66.53
348.144	81.93
348.608	70.23
349.073	66.33
349.537	66.43
350.001	71.03
350.465	79.43
350.93	76.63
351.394	79.03
351.858	69.83
352.322	77.33
352.786	73.23
353.25	89.53
353.715	100.13
354.179	83.53
354.643	108.33
355.107	108.83
355.571	99.03
356.035	85.63
356.498	105.33
356.962	105.53
357.426	112.73
357.89	102.33
358.354	82.43
358.818	77.03
359.281	76.43
359.745	81.43
360.209	74.13
360.673	73.23
361.136	82.73
361.6	81.73
362.064	82.23
362.527	83.23
362.991	88.63
363.454	81.13
363.918	80.23
364.381	84.83
364.845	83.53
365.308	89.83
365.772	93.13
366.235	91.63
366.698	89.13
367.162	95.53
367.625	89.03
368.088	93.43
368.552	94.33
369.015	94.03
369.478	88.03
369.941	101.63
370.404	97.13
370.867	100.73
371.331	109.33
371.794	105.13
372.257	98.53
372.72	105.03
373.183	105.73
373.646	98.73
374.109	98.83
374.572	106.63
375.035	106.63
375.497	112.43
375.96	107.33
376.423	110.43
376.886	119.93
377.349	117.43
377.811	111.63
378.274	117.03
378.737	112.63
379.199	114.53
379.662	114.23
380.125	117.13
380.587	123.83
381.05	115.53
381.512	125.83
381.975	128.93
382.437	133.93
382.9	125.53
383.362	131.93
383.825	133.53
384.287	135.43
384.75	135.93
385.212	134.53
385.674	146.53
386.136	133.63
386.599	127.13
387.061	133.63
387.523	132.33
387.985	135.23
388.447	145.43
388.91	142.53
389.372	140.03
389.834	143.83
390.296	140.33
390.758	141.23
391.22	147.73
391.682	158.33
392.144	161.83
392.606	158.33
393.068	154.83
393.529	168.13
393.991	156.23
394.453	147.63
394.915	149.73
395.377	150.43
395.838	154.53
396.3	149.33
396.762	156.83
397.224	149.63
397.685	148.23
398.147	153.53
398.608	153.23
399.07	153.03
399.531	152.83
399.993	167.63
400.454	167.23
400.916	163.83
401.377	162.83
401.839	172.43
402.3	167.83
402.762	184.93
403.223	200.63
403.684	197.33
404.145	177.93
404.607	184.03
405.068	187.03
405.529	178.13
405.99	191.73
406.451	199.23
406.913	205.13
407.374	192.93
407.835	186.83
408.296	196.43
408.757	195.53
409.218	206.63
409.679	199.93
410.14	199.03
410.601	198.63
411.062	200.93
411.522	197.83
411.983	201.53
412.444	201.03
412.905	207.53
413.366	210.33
413.826	225.73
414.287	254.53
414.748	308.53
415.208	290.43
415.669	243.93
416.13	237.23
416.59	232.83
417.051	245.63
417.511	262.13
417.972	286.93
418.432	298.93
418.893	342.93
419.353	297.93
419.814	238.13
420.274	212.63
420.734	216.93
421.195	216.33
421.655	214.83
422.115	218.43
422.576	220.23
423.036	223.13
423.496	244.13
423.956	246.73
424.416	261.93
424.876	293.53
425.336	298.53
425.797	296.13
426.257	287.83
426.717	270.93
427.177	257.03
427.637	255.43
428.097	264.03
428.556	271.33
429.016	297.23
429.476	293.83
429.936	297.93
430.396	303.03
430.856	313.83
431.315	340.43
431.775	368.63
432.235	402.53
432.694	377.63
433.154	389.93
433.614	401.23
434.073	361.53
434.533	305.33
434.993	296.13
435.452	314.23
435.912	308.43
436.371	307.33
436.83	296.73
437.29	284.03
437.749	264.93
438.209	262.03
438.668	278.43
439.127	304.23
439.587	280.23
440.046	268.73
440.505	277.93
440.964	285.63
441.424	318.53
441.883	313.23
442.342	281.03
442.801	251.53
443.26	250.03
443.719	248.43
444.178	248.33
444.637	246.33
445.096	256.63
445.555	254.53
446.014	251.83
446.473	258.13
446.932	262.83
447.391	256.73
447.849	256.23
448.308	250.73
448.767	247.63
449.226	270.03
449.685	274.23
450.143	281.83
450.602	260.93
451.061	255.83
451.519	257.03
451.978	256.43
452.436	254.93
452.895	264.83
453.353	274.03
453.812	261.33
454.27	259.93
454.729	261.23
455.187	260.93
455.646	269.33
456.104	271.33
456.562	281.53
457.021	290.13
457.479	285.23
457.937	286.73
458.395	284.03
458.854	270.73
459.312	274.13
459.77	286.73
460.228	279.33
460.686	273.23
461.144	270.43
461.602	278.53
462.06	275.43
462.518	281.03
462.976	276.43
463.434	275.23
463.892	289.53
464.35	299.23
464.808	309.13
465.266	291.93
465.724	303.83
466.181	300.43
466.639	293.23
467.097	317.13
467.555	323.73
468.012	332.13
468.47	328.43
468.928	347.63
469.385	358.83
469.843	370.33
470.3	370.43
470.758	384.23
471.215	391.43
471.673	412.33
472.13	423.03
472.588	430.43
473.045	395.23
473.503	399.63
473.96	420.13
474.417	421.53
474.875	450.23
475.332	483.63
475.789	476.93
476.246	481.43
476.704	505.23
477.161	530.73
477.618	532.23
478.075	572.03
478.532	625.43
478.989	684.53
479.446	768.33
479.903	746.03
480.36	791.03
480.817	825.63
481.274	919.43
481.731	1002.03
482.188	1082.93
482.645	1196.43
483.102	1292.03
483.558	1393.73
484.015	1441.33
484.472	1424.13
484.929	1398.43
485.385	1361.83
485.842	1324.73
486.299	1273.43
486.755	1229.93
487.212	1078.23
487.668	934.03
488.125	867.23
488.582	780.63
489.038	758.43
489.494	721.23
489.951	694.03
490.407	676.63
490.864	657.43
491.32	656.73
491.776	660.83
492.233	657.03
492.689	628.43
493.145	617.33
493.602	616.13
494.058	621.03
494.514	619.63
494.97	630.53
495.426	629.33
495.882	625.83
496.338	615.73
496.794	623.13
497.251	598.13
497.707	614.93
498.163	623.83
498.618	630.23
499.074	628.13
499.53	652.73
499.986	646.73
500.442	626.63
500.898	618.93
501.354	612.93
501.809	621.33
502.265	618.53
502.721	631.73
503.177	634.93
503.632	635.03
504.088	637.13
504.543	653.73
504.999	669.63
505.455	646.43
505.91	634.13
506.366	628.83
506.821	636.63
507.277	628.03
507.732	628.63
508.187	633.73
508.643	647.03
509.098	636.43
509.553	659.73
510.009	659.43
510.464	666.13
510.919	669.13
511.375	673.53
511.83	688.83
512.285	687.33
512.74	729.43
513.195	745.03
513.65	733.23
514.105	741.53
514.56	731.23
515.015	750.93
515.47	771.03
515.925	749.23
516.38	753.93
516.835	759.13
517.29	754.13
517.745	754.43
518.2	736.73
518.655	723.53
519.109	723.33
519.564	704.53
520.019	699.73
520.474	687.73
520.928	701.93
521.383	685.03
521.838	679.03
522.292	686.03
522.747	680.83
523.201	678.83
523.656	671.03
524.11	674.03
524.565	671.13
525.019	659.33
525.474	670.33
525.928	672.03
526.382	660.23
526.837	661.23
527.291	669.53
527.745	658.23
528.2	652.13
528.654	645.33
529.108	651.53
529.562	647.83
530.016	651.33
530.47	643.23
530.925	642.53
531.379	649.73
531.833	653.63
532.287	650.33
532.741	652.73
533.195	646.63
533.649	654.83
534.103	655.83
534.556	648.13
535.01	651.73
535.464	638.13
535.918	652.43
536.372	650.43
536.826	654.23
537.279	655.53
537.733	647.03
538.187	649.83
538.64	652.73
539.094	651.03
539.548	667.23
540.001	654.43
540.455	671.53
540.908	671.13
541.362	680.03
541.815	678.73
542.269	692.53
542.722	701.03
543.175	707.33
543.629	704.33
544.082	716.93
544.536	720.53
544.989	707.13
545.442	726.33
545.895	717.53
546.349	717.83
546.802	717.53
547.255	721.03
547.708	730.53
548.161	729.73
548.614	737.23
549.067	742.63
549.52	731.43
549.973	722.43
550.426	725.63
550.879	711.93
551.332	714.53
551.785	729.53
552.238	718.53
552.691	733.43
553.144	744.33
553.596	753.73
554.049	764.83
554.502	780.93
554.955	797.93
555.407	801.73
555.86	784.93
556.313	778.23
556.765	768.93
557.218	764.63
557.67	774.73
558.123	762.23
558.576	764.63
559.028	765.73
559.48	769.73
559.933	760.93
560.385	735.73
560.838	719.03
561.29	691.93
561.742	691.03
562.195	675.93
562.647	675.33
563.099	683.53
563.551	682.93
564.004	688.43
564.456	675.43
564.908	663.33
565.36	644.53
565.812	637.83
566.264	617.83
566.716	628.33
567.168	615.83
567.62	615.03
568.072	604.93
568.524	600.93
568.976	609.23
569.428	587.73
569.88	595.53
570.332	584.23
570.784	584.23
571.235	588.23
571.687	599.73
572.139	590.03
572.59	607.93
573.042	605.23
573.494	596.93
573.945	603.53
574.397	578.23
574.849	590.13
575.3	576.13
575.752	586.83
576.203	569.03
576.655	569.73
577.106	567.73
577.557	564.93
578.009	567.53
578.46	556.43
578.912	560.73
579.363	549.83
579.814	558.43
580.265	548.83
580.717	555.23
581.168	554.73
581.619	557.73
582.07	564.43
582.521	554.63
582.972	545.93
583.423	559.13
583.875	559.03
584.326	558.03
584.777	570.23
585.227	586.93
585.678	605.13
586.129	616.13
586.58	643.43
587.031	655.33
587.482	673.83
587.933	707.23
588.384	674.33
588.834	647.13
589.285	633.93
589.736	627.13
590.186	633.73
590.637	634.23
591.088	612.73
591.538	605.03
591.989	596.23
592.439	591.43
592.89	584.03
593.34	562.33
593.791	573.03
594.241	563.93
594.692	564.13
595.142	552.63
595.593	560.43
596.043	568.03
596.493	567.53
596.943	576.23
597.394	575.03
597.844	577.73
598.294	590.53
598.744	612.03
599.195	629.33
599.645	662.83
600.095	686.23
600.545	734.53
600.995	769.93
601.445	801.83
601.895	855.33
602.345	893.13
602.795	879.53
603.245	847.13
603.695	813.93
604.145	764.63
604.594	730.23
605.044	693.93
605.494	641.13
605.944	603.63
606.393	590.43
606.843	571.53
607.293	571.63
607.743	569.23
608.192	575.53
608.642	589.93
609.091	596.23
609.541	593.73
609.99	589.43
610.44	589.63
610.889	564.93
611.339	543.13
611.788	541.73
612.238	552.93
612.687	560.13
613.136	554.63
613.586	553.63
614.035	553.23
614.484	558.33
614.933	565.33
615.383	554.03
615.832	541.13
616.281	548.03
616.73	528.63
617.179	517.43
617.628	508.03
618.077	500.23
618.526	482.13
618.975	485.83
619.424	478.63
619.873	473.63
620.322	486.73
620.771	463.93
621.22	466.73
621.669	454.23
622.118	452.53
622.567	439.03
623.015	437.93
623.464	438.73
623.913	433.23
624.361	423.13
624.81	426.23
625.259	434.43
625.707	427.33
626.156	430.33
626.604	433.13
627.053	429.53
627.501	428.83
627.95	436.43
628.398	444.03
628.847	437.63
629.295	433.43
629.744	438.53
630.192	435.13
630.64	427.43
631.089	415.83
631.537	408.93
631.985	405.13
632.433	407.13
632.881	391.13
633.33	402.33
633.778	395.73
634.226	390.73
634.674	408.23
635.122	409.33
635.57	409.43
636.018	419.53
636.466	421.43
636.914	418.33
637.362	431.23
637.81	440.03
638.258	440.13
638.705	441.83
639.153	457.33
639.601	459.43
640.049	481.83
640.497	509.63
640.944	530.73
641.392	485.53
641.84	474.43
642.287	444.03
642.735	419.53
643.182	433.73
643.63	426.13
644.078	428.03
644.525	434.43
644.973	443.73
645.42	450.33
645.867	457.73
646.315	476.23
646.762	494.43
647.21	507.23
647.657	525.13
648.104	552.73
648.551	562.63
648.999	600.73
649.446	651.33
649.893	707.63
650.34	795.13
650.787	941.33
651.234	1147.03
651.682	1461.73
652.129	1941.33
652.576	2718.13
653.023	3953.83
653.47	5475.93
653.917	6897.83
654.363	8071.03
654.81	9137.43
655.257	8681.83
655.704	5819.43
656.151	3471.33
656.598	2285.53
657.044	1629.43
657.491	1274.73
657.938	1031.33
658.385	867.43
658.831	752.53
659.278	685.93
659.724	604.73
660.171	560.53
660.618	511.23
661.064	492.43
661.511	466.03
661.957	459.33
662.404	452.03
662.85	458.53
663.296	426.73
663.743	400.43
664.189	404.23
664.635	389.23
665.082	393.33
665.528	379.53
665.974	383.43
666.42	369.83
666.867	366.73
667.313	352.83
667.759	348.63
668.205	340.53
668.651	336.23
669.097	326.33
669.543	327.43
669.989	327.83
670.435	330.13
670.881	323.63
671.327	335.23
671.773	342.83
672.219	353.83
672.665	396.93
673.11	422.63
673.556	453.03
674.002	495.43
674.448	486.33
674.893	406.93
675.339	353.83
675.785	324.03
676.23	313.33
676.676	287.53
677.122	283.73
677.567	275.73
678.013	278.73
678.458	264.23
678.904	259.53
679.349	251.23
679.794	262.23
680.24	251.83
680.685	251.83
681.131	259.93
681.576	252.23
682.021	262.93
682.466	251.13
682.912	254.43
683.357	252.23
683.802	282.43
684.247	299.13
684.692	324.23
685.137	352.43
685.583	391.43
686.028	408.13
686.473	381.63
686.918	320.03
687.363	305.93
687.807	286.43
688.252	265.33
688.697	260.03
689.142	239.93
689.587	247.13
690.032	239.43
690.477	251.03
690.921	256.03
691.366	269.43
691.811	293.83
692.255	314.53
692.7	332.33
693.145	370.43
693.589	480.33
694.034	783.33
694.478	1090.73
694.923	1292.13
695.367	1715.23
695.812	909.63
696.256	375.23
696.701	268.03
697.145	254.73
697.59	241.43
698.034	235.13
698.478	229.53
698.922	231.33
699.367	229.93
699.811	240.93
700.255	254.63
700.699	266.53
701.143	294.03
701.588	337.43
702.032	375.13
702.476	373.53
702.92	356.03
703.364	351.03
703.808	446.33
704.252	711.03
704.696	1016.63
705.14	1235.93
705.584	1605.53
706.027	802.63
706.471	388.53
706.915	290.03
707.359	252.53
707.803	226.23
708.246	218.53
708.69	220.33
709.134	229.63
709.577	227.93
710.021	226.43
710.465	225.23
710.908	216.43
711.352	213.43
711.795	221.13
712.239	247.53
712.682	272.33
713.126	296.83
713.569	330.13
714.012	257.23
714.456	226.43
714.899	211.63
715.342	190.23
715.786	190.23
716.229	184.13
716.672	191.73
717.115	183.03
717.558	181.43
718.002	177.23
718.445	191.93
718.888	201.33
719.331	208.43
719.774	224.53
720.217	219.53
720.66	204.03
721.103	194.03
721.546	177.53
721.989	178.33
722.432	161.03
722.874	174.43
723.317	158.13
723.76	168.13
724.203	175.43
724.645	221.23
725.088	313.73
725.531	403.43
725.974	475.23
726.416	407.03
726.859	225.93
727.301	172.13
727.744	169.63
728.187	165.13
728.629	167.83
729.071	176.83
729.514	182.03
729.956	186.93
730.399	200.63
730.841	199.53
731.283	198.83
731.726	192.13
732.168	189.53
732.61	192.83
733.053	193.43
733.495	220.93
733.937	251.03
734.379	280.03
734.821	307.43
735.263	376.03
735.705	567.33
736.148	1067.13
736.59	1814.33
737.032	2292.93
737.474	1892.23
737.916	601.03
738.357	309.53
738.799	239.83
739.241	218.53
739.683	207.03
740.125	207.33
740.567	217.63
741.008	237.43
741.45	234.53
741.892	232.63
742.334	260.23
742.775	281.13
743.217	276.13
743.658	201.63
744.1	182.93
744.542	191.73
744.983	243.73
745.425	285.93
745.866	285.83
746.307	209.63
746.749	199.03
747.19	227.03
747.632	311.93
748.073	576.93
748.514	1271.73
748.956	2056.43
749.397	2576.53
749.838	2157.83
750.279	2241.53
750.72	1136.93
751.162	410.23
751.603	236.83
752.044	183.03
752.485	158.73
752.926	147.63
753.367	144.73
753.808	133.13
754.249	143.63
754.69	137.73
755.131	132.43
755.572	136.33
756.013	126.23
756.453	135.93
756.894	131.73
757.335	136.33
757.776	144.33
758.216	140.23
758.657	144.53
759.098	136.23
759.538	158.23
759.979	181.63
760.42	259.13
760.86	477.63
761.301	1235.93
761.741	3130.13
762.182	4946.43
762.622	3546.03
763.063	991.73
763.503	398.43
763.943	236.33
764.384	205.53
764.824	183.93
765.264	177.03
765.705	151.03
766.145	132.33
766.585	122.83
767.025	121.93
767.465	118.23
767.906	125.73
768.346	142.53
768.786	147.43
769.226	145.83
769.666	210.23
770.106	408.93
770.546	1048.53
770.986	1932.93
771.426	1801.73
771.866	586.43
772.306	242.43
772.745	146.23
773.185	125.53
773.625	116.83
774.065	108.83
774.505	121.33
774.944	159.53
775.384	290.93
775.824	520.83
776.263	527.23
776.703	235.13
777.142	124.93
777.582	95.43
778.021	85.93
778.461	93.13
778.9	89.73
779.34	91.13
779.779	70.33
780.219	74.53
780.658	73.83
781.097	74.33
781.537	81.23
781.976	76.13
782.415	74.73
782.855	75.83
783.294	70.43
783.733	72.63
784.172	71.33
784.611	67.93
785.05	74.73
785.489	73.73
785.928	89.23
786.367	86.13
786.806	86.13
787.245	94.03
787.684	96.73
788.123	99.13
788.562	93.73
789.001	88.93
789.44	82.93
789.879	80.93
790.317	83.73
790.756	94.23
791.195	90.83
791.634	102.63
792.072	142.53
792.511	248.73
792.95	682.93
793.388	1553.83
793.827	1476.33
794.265	493.63
794.704	201.23
795.142	129.13
795.581	114.73
796.019	97.43
796.458	83.33
796.896	88.03
797.334	96.33
797.773	104.73
798.211	148.53
798.649	295.13
799.087	706.43
799.526	1139.63
799.964	1450.63
800.402	1550.73
800.84	570.73
801.278	220.73
801.716	133.63
802.154	108.43
802.592	98.63
803.03	94.03
803.468	91.73
803.906	107.03
804.344	103.03
804.782	105.73
805.22	93.03
805.658	93.93
806.096	105.33
806.533	109.63
806.971	128.73
807.409	160.93
807.847	220.93
808.284	457.13
808.722	1306.73
809.16	2462.13
809.597	2267.03
810.035	4003.93
810.472	4620.43
810.91	1651.63
811.347	610.83
811.785	301.43
812.222	199.93
812.66	143.83
813.097	119.23
813.535	110.33
813.972	89.93
814.409	88.93
814.846	73.33
815.284	80.13
815.721	74.73
816.158	77.93
816.595	79.83
817.032	126.23
817.47	155.73
817.907	111.23
818.344	74.63
818.781	76.23
819.218	70.03
819.655	93.53
820.092	157.43
820.529	197.43
820.966	144.63
821.403	106.33
821.839	75.73
822.276	70.03
822.713	91.33
823.15	111.63
823.587	87.53
824.023	100.53
824.46	194.93
824.897	618.53
825.333	1017.83
825.77	443.33
826.206	169.83
826.643	97.43
827.08	71.73
827.516	55.13
827.953	51.13
828.389	52.73
828.825	51.83
829.262	45.33
829.698	42.73
830.135	43.13
830.571	40.33
831.007	42.33
831.443	45.73
831.88	40.13
832.316	40.23
832.752	50.23
833.188	50.03
833.624	48.43
834.06	51.23
834.497	51.73
834.933	58.33
835.369	55.23
835.805	48.03
836.241	54.43
836.677	60.33
837.112	54.13
837.548	76.03
837.984	93.03
838.42	140.53
838.856	344.03
839.292	1085.33
839.727	1760.23
840.163	824.73
840.599	652.53
841.034	1481.63
841.47	1662.33
841.906	597.23
842.341	241.43
842.777	156.13
843.212	154.93
843.648	157.93
844.083	84.53
844.519	61.23
844.954	49.33
845.39	35.23
845.825	41.13
846.261	36.93
846.696	36.53
847.131	26.03
847.566	40.53
848.002	33.43
848.437	33.73
848.872	41.43
849.307	44.93
849.742	57.93
850.177	119.93
850.613	383.93
851.048	657.43
851.483	277.33
851.918	107.43
852.353	66.73
852.788	38.93
853.223	42.33
853.657	43.73
854.092	37.93
854.527	33.83
854.962	27.93
855.397	36.03
855.832	32.63
856.266	33.33
856.701	27.43
857.136	23.33
857.57	30.33
858.005	42.53
858.44	47.73
858.874	23.53
859.309	41.53
859.743	28.23
860.178	35.23
860.612	30.73
861.047	42.33
861.481	56.43
861.915	54.63
862.35	42.83
862.784	25.63
863.218	29.13
863.653	18.03
864.087	36.03
864.521	46.03
864.955	45.03
865.39	99.33
865.824	127.03
866.258	90.03
866.692	152.33
867.126	175.13
867.56	99.53
867.994	50.73
868.428	24.23
868.862	39.03
869.296	46.73
869.73	50.73
870.164	49.63
870.598	44.53
871.031	31.63
871.465	19.23
871.899	23.53
872.333	8.23
872.766	19.63
873.2	15.43
873.634	21.43
874.067	18.63
874.501	22.53
874.935	22.23
875.368	13.33
875.802	18.63
876.235	13.63
876.669	19.13
877.102	16.83
877.535	16.23
877.969	12.93
878.402	18.23
878.836	8.23
879.269	18.33
879.702	16.03
880.135	15.43
880.569	13.73
881.002	14.73
881.435	15.03
881.868	9.03
882.301	13.43
882.734	6.03
883.167	12.73
883.601	10.13
884.034	13.43
884.467	7.33
884.899	11.93
885.332	11.83
885.765	6.33
886.198	9.83
886.631	10.83
887.064	8.43
887.497	13.53
887.929	14.73
888.362	9.13
888.795	8.93
889.228	14.53
889.66	10.03
890.093	9.93
890.526	8.83
890.958	13.93
891.391	15.13
891.823	10.93
892.256	9.53
892.688	3.33
893.121	9.73
893.553	8.23
893.985	13.43
894.418	9.43
894.85	6.83
895.282	10.33
895.715	9.43
896.147	10.23
896.579	11.53
897.011	9.23
897.444	9.63
897.876	1.43
898.308	12.13
898.74	6.13
899.172	9.63
899.604	12.53
900.036	20.43
900.468	6.83
900.9	8.53
901.332	15.63
901.764	14.13
902.196	15.53
902.628	12.63
903.06	12.43
903.491	24.93
903.923	22.23
904.355	14.73
904.787	20.23
905.218	12.43
905.65	18.73
906.082	0.43
906.513	6.03
906.945	8.63
907.376	3.03
907.808	15.73
908.239	10.33
908.671	10.93
909.102	16.63
909.534	15.83
909.965	26.53
910.397	66.53
910.828	231.83
911.259	368.53
911.691	166.63
912.122	70.63
912.553	44.03
912.984	22.13
913.415	19.03
913.847	17.03
914.278	6.83
914.709	6.73
915.14	14.83
915.571	13.03
916.002	5.63
916.433	12.03
916.864	4.53
917.295	8.33
917.726	11.33
918.157	6.13
918.587	18.73
919.018	14.63
919.449	15.73
919.88	14.03
920.311	19.93
920.741	35.43
921.172	118.63
921.603	109.83
922.033	51.33
922.464	34.53
922.895	11.13
923.325	14.13
923.756	9.53
924.186	9.03
924.617	8.93
925.047	12.53
925.478	16.33
925.908	17.33
926.338	10.53
926.769	5.63
927.199	7.43
927.629	2.33
928.06	9.73
928.49	4.03
928.92	11.73
929.35	7.13
929.78	5.43
930.21	4.63
930.641	3.43
931.071	7.53
931.501	-0.77
931.931	0.63
932.361	2.63
932.791	2.43
933.221	-3.27
933.651	4.33
934.08	6.23
934.51	19.73
934.94	5.13
935.37	1.53
935.8	5.23
936.229	0.63
936.659	10.03
937.089	-3.47
937.519	11.13
937.948	21.73
938.378	20.33
938.807	-0.27
939.237	4.23
939.666	7.53
940.096	-4.27
940.525	-3.27
940.955	2.63
941.384	-1.87
941.814	-6.87
942.243	0.53
942.672	7.63
943.102	-3.07
943.531	0.53
943.96	0.13
944.39	-3.77
944.819	-3.77
945.248	-0.97
945.677	1.83
946.106	10.93
946.535	6.63
946.964	0.43
947.393	3.63
947.822	-5.87
948.251	-9.97
948.68	-0.87
949.109	5.63
949.538	-1.87
949.967	0.23
950.396	-2.47
950.825	-1.27
951.254	-3.57
951.682	-8.77
952.111	7.43
952.54	3.33
952.969	-8.07
953.397	-6.77
953.826	-0.67
954.254	-5.77
954.683	-1.07
955.112	-7.17
955.54	-1.27
955.969	0.13
956.397	-0.87
956.826	-3.57
957.254	3.03
957.682	0.33
958.111	1.83
958.539	5.03
958.967	0.93
959.396	-3.07
959.824	0.53
960.252	-0.37
960.68	-5.27
961.109	-2.37
961.537	-2.47
961.965	-3.67
962.393	0.63
962.821	-1.67
963.249	-1.07
963.677	3.23
964.105	4.93
964.533	34.53
964.961	31.63
965.389	13.13
965.817	-1.57
966.245	3.03
966.672	-0.77
967.1	-12.27
967.528	4.13
967.956	-2.77
968.383	0.83
968.811	-6.87
969.239	1.83
969.666	0.43
970.094	2.93
970.522	-0.27
970.949	2.13
971.377	-12.97
971.804	-5.97
972.232	-4.47
972.659	-2.57
973.087	-0.57
973.514	-8.37
973.941	-8.27
974.369	-5.87
974.796	-0.27
975.223	0.83
975.651	-4.97
976.078	3.13
976.505	2.93
976.932	0.33
977.359	8.13
977.786	7.43
978.214	-2.37
978.641	-4.77
979.068	-7.17
979.495	-2.97
979.922	-1.07
980.349	-4.57
980.776	7.63
981.202	-2.57
981.629	8.93
982.056	-0.37
982.483	-2.07
982.91	0.43
983.337	-12.07
983.763	3.43
984.19	-4.57
984.617	-1.67
985.043	-4.07
985.47	-2.77
985.897	-6.57
986.323	-8.87
986.75	-1.37
987.176	-5.57
987.603	-3.27
988.029	2.33
988.456	-1.17
988.882	-1.27
989.308	-8.77
989.735	-6.07
990.161	3.83
990.587	-7.27
991.014	-5.07
991.44	8.83
991.866	-2.27
992.292	-4.67
992.719	-5.77
993.145	4.73
993.571	-9.87
993.997	-4.57
994.423	-11.57
994.849	-2.07
995.275	0.63
995.701	-0.87
996.127	0.73
996.553	1.13
996.979	-2.77
997.405	-6.67
997.83	-6.77
998.256	-12.47
998.682	-0.17
999.108	-11.27
999.534	2.93
999.959	-2.57
1000.385	-0.27
1000.811	2.63
1001.236	-11.17
1001.662	-9.17
1002.087	-12.87
1002.513	-3.17
1002.938	5.03
1003.364	-2.97
1003.789	-4.37
1004.215	3.03
1004.64	-0.57
1005.066	3.83
1005.491	0.93
1005.916	-4.57
1006.342	0.33
1006.767	-7.17
1007.192	2.63
1007.617	-4.67
1008.042	-1.37
1008.468	-9.77
1008.893	-3.87
1009.318	-5.97
1009.743	-8.07
1010.168	1.63
1010.593	3.93
1011.018	-12.47
1011.443	-3.47
1011.868	2.03
1012.293	-0.87
1012.718	-6.47
1013.143	-5.37
1013.567	-1.77
1013.992	-1.07
1014.417	-12.77
1014.842	-1.37
1015.267	-4.57
1015.691	0.73
1016.116	6.23
1016.541	2.13
1016.965	-2.17
1017.39	4.13
1017.814	-1.77
1018.239	-0.57
1018.663	-9.47
1019.088	-10.67
1019.512	-4.07
1019.937	-2.57
1020.361	-5.97
1020.785	-11.37
1021.21	-9.07
1021.634	4.63
1022.058	-3.87
1022.483	4.13
1022.907	-4.07
1023.331	-4.97
1023.755	-2.07
1024.179	-4.57
1024.604	-1.37
1025.028	-2.57
1025.452	0.23
1025.876	-3.47
1026.3	8.23
1026.724	-5.07
1027.148	-8.47
1027.572	-2.07
1027.996	-3.07
1028.42	-2.87
1028.843	-7.67
1029.267	-2.57
1029.691	-4.77
1030.115	-7.97
1030.539	-5.27
1030.962	-3.77
1031.386	-8.97
1031.81	-3.37
1032.233	3.53
1032.657	-2.77
1033.08	-3.97
1033.504	-5.77
1033.927	-1.07
1034.351	-2.77
1034.774	-4.47
1035.198	-2.47
1035.621	-4.47
1036.045	-5.77
1036.468	-3.97
1036.891	-12.67
1037.315	-9.77
1037.738	-6.57
1038.161	-1.27
1038.584	-2.07
1039.008	-5.67
1039.431	-4.07
1039.854	-5.97
1040.277	-6.17
1040.7	-8.27
1041.123	1.33
1041.546	-9.07
1041.969	-6.97
1042.392	-5.67
1042.815	2.53
1043.238	1.53
1043.661	4.43
1044.084	-12.47
1044.507	-6.97
1044.93	-6.17
1045.352	-4.37
1045.775	-4.77
1046.198	-1.37
1046.621	2.93
1047.043	-5.37
1047.466	0.33
1047.889	-7.27
1048.311	2.03
1048.734	2.93
1049.156	0.53
1049.579	-0.37
1050.001	-3.87
1050.424	-0.77
1050.846	-0.37
1051.269	-7.87
1051.691	-10.87
1052.113	-5.67
1052.536	-8.67
1052.958	-2.87
1053.38	-3.47
1053.802	-9.27
1054.225	-7.67
1054.647	-4.07
1055.069	-2.57
1055.491	4.43
1055.913	-7.97
1056.335	-7.07
1056.757	-0.37
1057.179	-11.67
1057.601	-2.97
1058.023	-1.67
1058.445	-1.37
1058.867	-7.07
1059.289	1.53
1059.711	-3.17
1060.133	-3.27
1060.555	-6.07
1060.976	-14.57
1061.398	-6.17
1061.82	-8.47
1062.241	-1.47
1062.663	-5.67
1063.085	-4.47
1063.506	0.73
1063.928	-10.87
1064.35	-2.77
1064.771	-15.67
1065.193	-3.47
1065.614	-14.77
1066.035	1.33
1066.457	-3.27
1066.878	-0.67
1067.3	-5.07
1067.721	-2.47
1068.142	-3.27
1068.564	-2.57
1068.985	-1.07
1069.406	-6.27
1069.827	-6.87
1070.248	0.13
1070.67	-7.27
1071.091	-8.87
1071.512	-6.67
1071.933	-0.97
1072.354	-2.87
1072.775	-4.27
1073.196	-10.77
1073.617	-2.07
1074.038	-9.87
1074.459	-5.07
1074.88	-10.87
1075.3	-1.67
1075.721	-2.37
1076.142	-4.17
1076.563	2.93
1076.983	-8.07
1077.404	-5.17
1077.825	-11.07
1078.246	-8.77
1078.666	-11.97
1079.087	-8.77
1079.507	-9.87
1079.928	-1.57
1080.348	0.43
1080.769	-5.57
1081.189	5.43
1081.61	-7.37
1082.03	-6.07
1082.451	-5.37
1082.871	-5.07
1083.291	-7.67
1083.711	-11.47
1084.132	-5.57
1084.552	-6.27
1084.972	-0.47
1085.392	-11.27
1085.813	-9.77
1086.233	-3.87
1086.653	-5.17
1087.073	-1.97
1087.493	-7.47
1087.913	-5.17
1088.333	-7.77
1088.753	-7.47
1089.173	-5.27
1089.593	-0.87
1090.013	3.93
1090.433	-0.17
1090.852	-3.37
1091.272	3.63
1091.692	-6.97
1092.112	-7.57
1092.531	-7.97
1092.951	-20.57
1093.371	-2.37
1093.79	-3.77
1094.21	-4.47
1094.63	-4.27
1095.049	-5.07
1095.469	-3.57
1095.888	-7.17
1096.308	3.63
1096.727	4.53
1097.146	-8.87
1097.566	-9.47
1097.985	-3.67
1098.405	-1.57
1098.824	-8.17
1099.243	-11.27
1099.662	-4.27
1100.082	-3.87
1100.501	-5.67
1100.92	-10.07
1101.339	-10.27
1101.758	-2.27
