Data from 20171114-ORNL-Ar_H_NY_Subt18_08-03-45-138.txt Node
Date: Tue Nov 14 08:03:45 EST 2017
User: Ender
Spectrometer: HR+D1039
Trigger mode: 0
Integration Time (sec): 2.730000E-2
Scans to average: 10
Electric dark correction enabled: true
Nonlinearity correction enabled: false
Boxcar width: 0
XAxis mode: Wavelengths
Number of Pixels in Spectrum: 2048
>>>>>Begin Spectral Data<<<<<
187.836	2.39
188.309	2.39
188.782	2.39
189.255	1.09
189.728	-1.31
190.201	9.29
190.674	-2.41
191.147	2.89
191.619	-5.11
192.092	3.09
192.565	1.39
193.038	-0.41
193.511	-2.61
193.984	4.19
194.456	-4.81
194.929	-1.51
195.402	-1.11
195.874	-5.11
196.347	-1.01
196.82	-9.81
197.292	8.39
197.765	-5.91
198.237	-5.21
198.71	2.99
199.182	-2.31
199.655	1.29
200.127	6.89
200.6	-1.71
201.072	-5.31
201.544	-5.21
202.017	-3.11
202.489	-0.01
202.961	-1.11
203.433	-5.41
203.906	-4.21
204.378	-7.81
204.85	-3.21
205.322	-10.71
205.794	-2.61
206.266	-2.11
206.739	-6.01
207.211	0.69
207.683	-10.21
208.155	-7.31
208.627	-6.41
209.099	-5.31
209.57	-10.51
210.042	-1.91
210.514	-4.91
210.986	1.19
211.458	-8.41
211.93	-3.81
212.402	-0.41
212.873	-3.51
213.345	-4.61
213.817	-11.51
214.288	-2.11
214.76	-15.21
215.232	-4.81
215.703	-5.11
216.175	-5.61
216.646	-6.21
217.118	-6.71
217.589	-5.51
218.061	-2.81
218.532	-3.11
219.004	-11.11
219.475	-9.91
219.946	-6.91
220.418	-8.81
220.889	0.29
221.36	1.19
221.832	-2.11
222.303	-4.31
222.774	-0.31
223.245	-8.61
223.717	-5.11
224.188	-9.51
224.659	-12.31
225.13	-5.91
225.601	-3.81
226.072	-0.51
226.543	-0.81
227.014	-0.51
227.485	-4.41
227.956	-4.11
228.427	-7.51
228.898	0.89
229.369	0.39
229.839	-4.41
230.31	-8.91
230.781	4.89
231.252	-3.51
231.722	-3.51
232.193	1.69
232.664	-2.21
233.135	-4.01
233.605	-8.71
234.076	-8.21
234.546	-0.71
235.017	4.89
235.487	-0.51
235.958	-1.01
236.428	1.29
236.899	-3.41
237.369	-1.61
237.84	-12.01
238.31	4.49
238.78	-2.41
239.251	-5.21
239.721	-1.91
240.191	-1.11
240.662	-2.01
241.132	-2.61
241.602	-4.41
242.072	-0.71
242.542	2.69
243.013	1.89
243.483	-3.11
243.953	-0.01
244.423	-3.51
244.893	-1.21
245.363	-2.31
245.833	5.19
246.303	-9.71
246.773	-4.21
247.243	1.89
247.712	2.09
248.182	1.59
248.652	0.69
249.122	-6.01
249.592	-4.41
250.061	-0.91
250.531	2.49
251.001	-3.11
251.471	5.09
251.94	9.29
252.41	-2.61
252.879	-9.31
253.349	9.79
253.818	3.79
254.288	0.79
254.757	-7.31
255.227	-6.91
255.696	-2.81
256.166	2.49
256.635	-0.01
257.105	4.79
257.574	-0.31
258.043	0.19
258.513	-3.61
258.982	2.89
259.451	-4.21
259.92	-4.21
260.389	0.09
260.859	7.89
261.328	3.09
261.797	-3.71
262.266	-2.01
262.735	6.39
263.204	0.49
263.673	3.29
264.142	5.49
264.611	-5.91
265.08	-2.81
265.549	-3.11
266.018	4.09
266.487	-6.11
266.955	-7.11
267.424	-6.81
267.893	5.39
268.362	-5.41
268.83	-0.81
269.299	4.19
269.768	1.29
270.236	0.59
270.705	1.19
271.174	-1.21
271.642	2.29
272.111	3.19
272.579	6.89
273.048	4.19
273.516	-0.21
273.985	-1.51
274.453	-0.11
274.922	9.49
275.39	5.79
275.858	-4.51
276.327	10.39
276.795	6.89
277.263	-3.01
277.731	15.59
278.2	4.19
278.668	4.39
279.136	-0.11
279.604	3.19
280.072	2.09
280.54	5.19
281.008	4.59
281.477	11.49
281.945	6.69
282.413	8.69
282.881	9.89
283.348	-0.21
283.816	4.09
284.284	1.69
284.752	6.49
285.22	11.19
285.688	10.89
286.156	2.39
286.623	13.79
287.091	4.69
287.559	5.29
288.026	9.09
288.494	5.69
288.962	4.19
289.429	5.09
289.897	16.39
290.364	12.09
290.832	13.59
291.3	6.49
291.767	8.79
292.234	12.39
292.702	4.09
293.169	11.49
293.637	14.99
294.104	13.89
294.571	3.29
295.039	4.99
295.506	7.59
295.973	11.09
296.44	5.69
296.908	8.59
297.375	5.39
297.842	13.49
298.309	4.99
298.776	1.39
299.243	13.49
299.71	10.09
300.177	4.49
300.644	8.59
301.111	14.99
301.578	11.49
302.045	0.89
302.512	16.69
302.979	14.69
303.446	17.59
303.913	12.79
304.379	9.39
304.846	26.29
305.313	16.29
305.78	15.69
306.246	13.99
306.713	17.19
307.18	19.09
307.646	21.79
308.113	19.79
308.579	21.19
309.046	16.19
309.512	14.69
309.979	7.19
310.445	24.19
310.912	19.79
311.378	21.19
311.845	20.49
312.311	20.49
312.777	18.09
313.244	18.79
313.71	27.59
314.176	21.69
314.642	15.09
315.109	23.09
315.575	24.69
316.041	31.19
316.507	19.59
316.973	23.59
317.439	26.69
317.905	28.99
318.371	26.19
318.837	20.89
319.303	22.19
319.769	23.49
320.235	28.69
320.701	22.99
321.167	26.99
321.633	23.29
322.099	22.99
322.564	31.59
323.03	32.79
323.496	30.59
323.962	36.69
324.427	28.09
324.893	30.09
325.359	35.39
325.824	31.79
326.29	29.09
326.755	34.09
327.221	35.89
327.686	31.79
328.152	37.79
328.617	32.89
329.083	42.89
329.548	45.39
330.014	32.79
330.479	32.09
330.944	36.89
331.41	40.59
331.875	39.39
332.34	39.39
332.805	38.09
333.271	41.99
333.736	37.99
334.201	44.49
334.666	48.59
335.131	39.89
335.596	42.29
336.061	40.39
336.526	34.69
336.991	37.79
337.456	55.69
337.921	39.19
338.386	36.89
338.851	37.09
339.316	46.39
339.781	49.69
340.246	46.09
340.711	42.79
341.175	50.79
341.64	40.39
342.105	49.09
342.569	49.89
343.034	56.29
343.499	49.49
343.963	47.89
344.428	57.59
344.893	56.59
345.357	51.99
345.822	52.39
346.286	58.19
346.751	59.29
347.215	66.19
347.679	63.69
348.144	85.59
348.608	71.59
349.073	64.39
349.537	68.49
350.001	66.29
350.465	74.89
350.93	71.49
351.394	75.59
351.858	64.59
352.322	72.79
352.786	76.09
353.25	88.79
353.715	97.09
354.179	88.59
354.643	102.69
355.107	108.69
355.571	90.79
356.035	84.19
356.498	97.49
356.962	104.89
357.426	108.09
357.89	95.99
358.354	83.49
358.818	78.99
359.281	78.69
359.745	77.99
360.209	75.09
360.673	73.59
361.136	80.49
361.6	82.09
362.064	78.49
362.527	85.69
362.991	91.19
363.454	87.19
363.918	78.59
364.381	79.29
364.845	77.59
365.308	87.09
365.772	88.19
366.235	86.89
366.698	80.29
367.162	87.19
367.625	81.49
368.088	86.49
368.552	94.99
369.015	86.89
369.478	87.69
369.941	97.59
370.404	92.89
370.867	98.29
371.331	108.19
371.794	111.39
372.257	94.79
372.72	100.49
373.183	105.29
373.646	98.49
374.109	101.99
374.572	106.59
375.035	106.49
375.497	106.69
375.96	102.89
376.423	117.49
376.886	110.89
377.349	110.19
377.811	109.49
378.274	106.19
378.737	104.89
379.199	108.39
379.662	110.59
380.125	117.39
380.587	110.19
381.05	110.29
381.512	120.79
381.975	133.39
382.437	129.99
382.9	121.69
383.362	128.29
383.825	127.39
384.287	130.19
384.75	127.79
385.212	127.49
385.674	138.29
386.136	139.09
386.599	128.89
387.061	127.19
387.523	121.19
387.985	132.49
388.447	139.99
388.91	133.89
389.372	132.89
389.834	139.79
390.296	131.99
390.758	136.09
391.22	146.79
391.682	146.89
392.144	151.49
392.606	146.59
393.068	149.19
393.529	163.09
393.991	151.29
394.453	139.69
394.915	143.19
395.377	143.59
395.838	152.89
396.3	144.19
396.762	141.69
397.224	148.59
397.685	141.39
398.147	146.29
398.608	139.39
399.07	147.09
399.531	155.69
399.993	159.19
400.454	165.79
400.916	166.49
401.377	157.59
401.839	160.99
402.3	161.59
402.762	176.29
403.223	188.69
403.684	180.89
404.145	176.39
404.607	176.29
405.068	178.69
405.529	178.49
405.99	193.79
406.451	187.49
406.913	188.09
407.374	179.49
407.835	178.59
408.296	179.69
408.757	194.29
409.218	195.89
409.679	190.89
410.14	194.29
410.601	189.19
411.062	194.89
411.522	194.79
411.983	187.39
412.444	185.49
412.905	206.59
413.366	201.69
413.826	221.89
414.287	239.39
414.748	297.79
415.208	275.29
415.669	239.99
416.13	220.99
416.59	222.89
417.051	242.29
417.511	248.19
417.972	271.29
418.432	286.39
418.893	332.09
419.353	285.99
419.814	228.99
420.274	212.99
420.734	207.29
421.195	213.09
421.655	212.39
422.115	216.09
422.576	218.79
423.036	215.29
423.496	229.09
423.956	241.29
424.416	252.49
424.876	294.99
425.336	281.79
425.797	290.49
426.257	281.19
426.717	264.09
427.177	252.29
427.637	242.59
428.097	253.79
428.556	260.49
429.016	292.59
429.476	284.09
429.936	289.29
430.396	293.09
430.856	308.99
431.315	324.59
431.775	359.49
432.235	387.79
432.694	365.59
433.154	368.49
433.614	391.29
434.073	344.49
434.533	292.99
434.993	287.99
435.452	295.69
435.912	301.49
436.371	285.29
436.83	293.29
437.29	273.89
437.749	256.39
438.209	256.89
438.668	273.19
439.127	291.49
439.587	271.19
440.046	257.49
440.505	268.79
440.964	283.99
441.424	307.09
441.883	306.49
442.342	275.49
442.801	244.99
443.26	251.49
443.719	243.69
444.178	251.29
444.637	233.99
445.096	235.69
445.555	244.99
446.014	244.59
446.473	252.29
446.932	259.09
447.391	248.39
447.849	250.59
448.308	231.59
448.767	242.49
449.226	255.09
449.685	259.39
450.143	275.79
450.602	259.69
451.061	247.99
451.519	248.59
451.978	246.49
452.436	248.79
452.895	246.29
453.353	268.09
453.812	253.29
454.27	254.29
454.729	261.49
455.187	247.59
455.646	262.59
456.104	267.09
456.562	274.39
457.021	279.59
457.479	266.89
457.937	276.79
458.395	272.19
458.854	267.89
459.312	265.49
459.77	273.69
460.228	264.79
460.686	265.89
461.144	276.89
461.602	264.29
462.06	266.39
462.518	274.19
462.976	281.89
463.434	275.49
463.892	274.29
464.35	285.29
464.808	304.39
465.266	284.19
465.724	286.69
466.181	288.09
466.639	289.89
467.097	304.59
467.555	317.59
468.012	316.09
468.47	324.69
468.928	335.79
469.385	338.29
469.843	357.09
470.3	355.19
470.758	367.29
471.215	390.79
471.673	399.49
472.13	407.39
472.588	412.09
473.045	387.59
473.503	389.09
473.96	404.59
474.417	420.09
474.875	441.89
475.332	470.29
475.789	463.49
476.246	478.09
476.704	492.49
477.161	501.89
477.618	515.09
478.075	553.09
478.532	608.99
478.989	662.49
479.446	735.59
479.903	733.49
480.36	783.79
480.817	816.99
481.274	912.49
481.731	995.89
482.188	1077.09
482.645	1190.39
483.102	1279.89
483.558	1383.69
484.015	1443.69
484.472	1429.79
484.929	1386.09
485.385	1341.29
485.842	1308.69
486.299	1269.89
486.755	1203.59
487.212	1038.69
487.668	915.09
488.125	836.19
488.582	770.59
489.038	748.19
489.494	703.09
489.951	681.79
490.407	663.09
490.864	643.19
491.32	639.49
491.776	641.19
492.233	640.79
492.689	612.49
493.145	602.89
493.602	604.39
494.058	609.19
494.514	608.39
494.97	612.39
495.426	622.59
495.882	598.59
496.338	601.29
496.794	605.29
497.251	596.49
497.707	607.09
498.163	604.59
498.618	614.79
499.074	619.49
499.53	635.99
499.986	634.59
500.442	626.69
500.898	609.39
501.354	591.29
501.809	614.19
502.265	604.99
502.721	619.59
503.177	617.49
503.632	619.69
504.088	621.59
504.543	638.69
504.999	655.49
505.455	635.09
505.91	623.99
506.366	619.89
506.821	616.09
507.277	610.89
507.732	612.49
508.187	616.99
508.643	612.69
509.098	623.79
509.553	641.29
510.009	650.49
510.464	642.59
510.919	664.19
511.375	666.09
511.83	675.89
512.285	683.99
512.74	712.69
513.195	720.99
513.65	713.49
514.105	723.79
514.56	716.69
515.015	741.59
515.47	749.99
515.925	734.89
516.38	744.09
516.835	749.49
517.29	733.79
517.745	739.59
518.2	729.39
518.655	701.99
519.109	699.29
519.564	699.79
520.019	687.49
520.474	678.49
520.928	677.79
521.383	677.09
521.838	670.79
522.292	676.99
522.747	666.39
523.201	663.69
523.656	663.19
524.11	663.29
524.565	664.19
525.019	648.69
525.474	657.19
525.928	652.29
526.382	645.89
526.837	648.89
527.291	646.89
527.745	646.39
528.2	656.59
528.654	627.29
529.108	643.49
529.562	638.59
530.016	638.69
530.47	637.79
530.925	632.39
531.379	636.09
531.833	645.69
532.287	643.49
532.741	633.29
533.195	635.79
533.649	639.29
534.103	648.39
534.556	630.59
535.01	640.29
535.464	632.09
535.918	641.49
536.372	647.99
536.826	643.59
537.279	645.59
537.733	640.89
538.187	641.49
538.64	636.69
539.094	654.59
539.548	651.79
540.001	647.29
540.455	657.49
540.908	666.29
541.362	663.99
541.815	674.99
542.269	691.69
542.722	675.79
543.175	686.89
543.629	682.19
544.082	700.59
544.536	703.39
544.989	698.99
545.442	720.29
545.895	705.99
546.349	702.59
546.802	709.39
547.255	703.69
547.708	716.69
548.161	724.79
548.614	727.69
549.067	728.69
549.52	726.29
549.973	716.99
550.426	716.59
550.879	699.89
551.332	718.79
551.785	726.09
552.238	709.99
552.691	720.19
553.144	726.49
553.596	737.29
554.049	747.79
554.502	779.09
554.955	790.49
555.407	788.89
555.86	776.69
556.313	769.09
556.765	753.99
557.218	758.09
557.67	746.99
558.123	745.99
558.576	742.99
559.028	752.99
559.48	762.39
559.933	752.09
560.385	720.19
560.838	704.59
561.29	680.49
561.742	681.79
562.195	664.39
562.647	669.79
563.099	671.79
563.551	669.59
564.004	675.49
564.456	666.99
564.908	650.09
565.36	640.59
565.812	625.49
566.264	615.59
566.716	611.89
567.168	590.89
567.62	608.59
568.072	586.09
568.524	592.99
568.976	590.49
569.428	580.59
569.88	579.69
570.332	574.49
570.784	578.09
571.235	584.79
571.687	589.49
572.139	590.89
572.59	604.09
573.042	593.39
573.494	600.99
573.945	586.89
574.397	564.89
574.849	583.89
575.3	569.79
575.752	568.09
576.203	562.99
576.655	571.89
577.106	562.19
577.557	551.09
578.009	557.39
578.46	548.49
578.912	550.09
579.363	543.39
579.814	548.09
580.265	543.29
580.717	546.89
581.168	541.29
581.619	558.49
582.07	551.09
582.521	534.79
582.972	550.49
583.423	553.89
583.875	548.29
584.326	551.49
584.777	568.39
585.227	583.29
585.678	597.59
586.129	611.39
586.58	635.49
587.031	656.89
587.482	680.89
587.933	718.99
588.384	681.39
588.834	645.59
589.285	634.69
589.736	635.79
590.186	622.79
590.637	620.29
591.088	610.39
591.538	600.09
591.989	595.89
592.439	581.29
592.89	579.69
593.34	565.69
593.791	566.29
594.241	553.69
594.692	556.39
595.142	552.99
595.593	550.49
596.043	562.89
596.493	563.59
596.943	560.89
597.394	577.19
597.844	569.49
598.294	580.19
598.744	617.49
599.195	622.59
599.645	645.89
600.095	683.09
600.545	719.49
600.995	757.99
601.445	802.79
601.895	850.69
602.345	890.79
602.795	878.79
603.245	842.29
603.695	804.79
604.145	761.29
604.594	720.89
605.044	685.89
605.494	632.69
605.944	589.39
606.393	581.39
606.843	564.79
607.293	569.39
607.743	565.59
608.192	570.29
608.642	579.49
609.091	592.09
609.541	586.89
609.99	596.79
610.44	583.19
610.889	553.59
611.339	545.49
611.788	526.39
612.238	533.39
612.687	542.09
613.136	545.09
613.586	554.69
614.035	541.69
614.484	543.39
614.933	543.19
615.383	539.89
615.832	538.69
616.281	535.19
616.73	519.99
617.179	511.49
617.628	497.89
618.077	483.79
618.526	480.89
618.975	476.69
619.424	477.89
619.873	467.79
620.322	476.89
620.771	462.09
621.22	460.99
621.669	457.79
622.118	442.49
622.567	442.29
623.015	431.69
623.464	428.49
623.913	426.09
624.361	419.99
624.81	419.19
625.259	426.69
625.707	417.99
626.156	419.49
626.604	428.99
627.053	424.99
627.501	424.69
627.95	435.39
628.398	441.79
628.847	428.39
629.295	424.49
629.744	431.49
630.192	417.49
630.64	425.89
631.089	411.69
631.537	409.69
631.985	394.39
632.433	400.29
632.881	387.39
633.33	390.19
633.778	377.79
634.226	387.89
634.674	396.19
635.122	398.59
635.57	413.79
636.018	416.49
636.466	424.19
636.914	411.49
637.362	427.09
637.81	433.39
638.258	444.39
638.705	433.29
639.153	459.09
639.601	457.29
640.049	474.19
640.497	495.19
640.944	519.99
641.392	482.79
641.84	460.49
642.287	434.99
642.735	419.59
643.182	427.89
643.63	423.79
644.078	422.69
644.525	431.19
644.973	434.29
645.42	438.49
645.867	455.59
646.315	468.09
646.762	480.99
647.21	503.59
647.657	520.69
648.104	550.49
648.551	548.49
648.999	593.99
649.446	638.99
649.893	688.09
650.34	789.59
650.787	945.59
651.234	1156.29
651.682	1454.69
652.129	1970.29
652.576	2776.59
653.023	4054.69
653.47	5582.29
653.917	7067.39
654.363	8280.99
654.81	9389.89
655.257	8914.59
655.704	5928.09
656.151	3529.09
656.598	2310.39
657.044	1661.49
657.491	1278.99
657.938	1022.59
658.385	864.19
658.831	758.69
659.278	678.29
659.724	602.89
660.171	549.49
660.618	503.29
661.064	484.99
661.511	462.59
661.957	461.99
662.404	445.99
662.85	452.39
663.296	432.29
663.743	397.49
664.189	388.89
664.635	385.69
665.082	388.69
665.528	387.19
665.974	375.09
666.42	364.29
666.867	370.19
667.313	339.59
667.759	337.09
668.205	335.29
668.651	329.09
669.097	326.59
669.543	315.39
669.989	318.19
670.435	322.09
670.881	321.79
671.327	325.59
671.773	341.19
672.219	358.59
672.665	391.89
673.11	427.39
673.556	461.69
674.002	494.19
674.448	483.39
674.893	413.19
675.339	353.19
675.785	320.59
676.23	308.29
676.676	278.59
677.122	282.59
677.567	271.39
678.013	272.79
678.458	262.29
678.904	261.99
679.349	246.79
679.794	252.99
680.24	244.79
680.685	248.39
681.131	246.19
681.576	257.09
682.021	253.59
682.466	249.79
682.912	246.39
683.357	248.79
683.802	273.69
684.247	299.59
684.692	322.79
685.137	358.39
685.583	386.49
686.028	413.49
686.473	380.79
686.918	320.59
687.363	307.99
687.807	284.39
688.252	264.69
688.697	258.39
689.142	241.69
689.587	234.39
690.032	230.39
690.477	239.69
690.921	248.29
691.366	276.79
691.811	283.19
692.255	313.79
692.7	326.19
693.145	356.59
693.589	478.19
694.034	783.19
694.478	1111.19
694.923	1302.59
695.367	1718.49
695.812	896.79
696.256	364.09
696.701	268.19
697.145	251.99
697.59	229.89
698.034	224.19
698.478	230.29
698.922	232.79
699.367	231.89
699.811	243.59
700.255	254.89
700.699	271.99
701.143	299.59
701.588	337.89
702.032	372.89
702.476	369.19
702.92	355.79
703.364	362.89
703.808	445.39
704.252	718.79
704.696	1032.49
705.14	1246.79
705.584	1613.09
706.027	796.39
706.471	387.19
706.915	288.09
707.359	252.89
707.803	225.19
708.246	214.39
708.69	221.09
709.134	226.59
709.577	223.99
710.021	228.99
710.465	217.59
710.908	215.49
711.352	214.49
711.795	221.99
712.239	248.79
712.682	273.29
713.126	293.89
713.569	335.79
714.012	261.29
714.456	217.19
714.899	211.39
715.342	189.89
715.786	185.99
716.229	182.49
716.672	178.79
717.115	174.69
717.558	180.29
718.002	176.79
718.445	182.29
718.888	204.19
719.331	208.39
719.774	213.79
720.217	216.99
720.66	201.39
721.103	192.89
721.546	184.49
721.989	176.89
722.432	156.09
722.874	166.19
723.317	160.89
723.76	169.29
724.203	180.69
724.645	212.89
725.088	303.49
725.531	394.89
725.974	475.39
726.416	397.09
726.859	216.89
727.301	171.89
727.744	168.69
728.187	156.69
728.629	176.99
729.071	173.39
729.514	186.39
729.956	198.49
730.399	187.19
730.841	207.29
731.283	193.99
731.726	195.09
732.168	184.79
732.61	192.59
733.053	200.79
733.495	218.79
733.937	241.59
734.379	282.89
734.821	306.29
735.263	376.19
735.705	574.69
736.148	1080.89
736.59	1847.49
737.032	2323.89
737.474	1902.79
737.916	605.89
738.357	309.39
738.799	241.39
739.241	206.29
739.683	201.49
740.125	208.59
740.567	214.39
741.008	238.79
741.45	226.69
741.892	222.19
742.334	252.09
742.775	269.19
743.217	271.99
743.658	203.19
744.1	189.59
744.542	195.69
744.983	232.49
745.425	273.69
745.866	265.79
746.307	205.69
746.749	198.69
747.19	226.39
747.632	309.69
748.073	584.89
748.514	1268.99
748.956	2059.79
749.397	2594.49
749.838	2157.69
750.279	2252.59
750.72	1131.89
751.162	402.09
751.603	231.29
752.044	179.09
752.485	151.99
752.926	150.09
753.367	138.69
753.808	143.79
754.249	133.99
754.69	130.29
755.131	124.89
755.572	130.29
756.013	131.09
756.453	130.79
756.894	136.09
757.335	129.99
757.776	142.29
758.216	144.79
758.657	143.19
759.098	142.49
759.538	163.79
759.979	181.19
760.42	260.79
760.86	482.39
761.301	1244.59
761.741	3135.49
762.182	5012.39
762.622	3563.49
763.063	1005.59
763.503	399.89
763.943	233.99
764.384	203.09
764.824	185.09
765.264	171.59
765.705	155.79
766.145	126.89
766.585	118.89
767.025	117.19
767.465	116.99
767.906	122.19
768.346	144.69
768.786	149.39
769.226	157.79
769.666	214.39
770.106	406.39
770.546	1055.29
770.986	1942.89
771.426	1816.39
771.866	590.29
772.306	239.19
772.745	149.39
773.185	113.99
773.625	114.39
774.065	105.69
774.505	114.29
774.944	149.49
775.384	262.29
775.824	485.59
776.263	491.29
776.703	221.39
777.142	123.79
777.582	93.29
778.021	82.59
778.461	80.89
778.9	84.89
779.34	91.49
779.779	78.29
780.219	75.79
780.658	72.19
781.097	81.39
781.537	85.39
781.976	70.19
782.415	71.69
782.855	63.29
783.294	69.99
783.733	79.09
784.172	76.69
784.611	69.19
785.05	79.29
785.489	74.29
785.928	82.19
786.367	79.49
786.806	87.39
787.245	85.79
787.684	90.39
788.123	103.89
788.562	93.09
789.001	90.79
789.44	85.59
789.879	83.99
790.317	82.29
790.756	90.69
791.195	92.09
791.634	100.79
792.072	139.89
792.511	247.39
792.95	670.29
793.388	1551.09
793.827	1479.89
794.265	499.79
794.704	206.29
795.142	129.19
795.581	109.89
796.019	93.49
796.458	87.19
796.896	92.39
797.334	91.79
797.773	108.49
798.211	158.39
798.649	298.99
799.087	717.69
799.526	1148.49
799.964	1453.69
800.402	1553.69
800.84	570.69
801.278	216.19
801.716	134.49
802.154	107.59
802.592	110.99
803.03	99.39
803.468	96.39
803.906	102.39
804.344	108.59
804.782	99.99
805.22	90.99
805.658	92.19
806.096	108.79
806.533	109.29
806.971	120.19
807.409	160.09
807.847	213.49
808.284	454.09
808.722	1331.99
809.16	2479.79
809.597	2296.59
810.035	4078.99
810.472	4652.29
810.91	1663.89
811.347	605.09
811.785	301.79
812.222	181.29
812.66	146.09
813.097	114.99
813.535	101.89
813.972	95.19
814.409	86.09
814.846	78.19
815.284	84.39
815.721	66.99
816.158	77.19
816.595	78.69
817.032	110.99
817.47	140.49
817.907	115.19
818.344	74.79
818.781	70.19
819.218	67.29
819.655	90.49
820.092	150.39
820.529	176.29
820.966	137.39
821.403	104.09
821.839	74.19
822.276	66.99
822.713	91.99
823.15	106.29
823.587	78.49
824.023	95.69
824.46	202.39
824.897	627.69
825.333	1032.49
825.77	442.49
826.206	168.59
826.643	99.69
827.08	80.69
827.516	54.39
827.953	50.39
828.389	59.39
828.825	49.99
829.262	45.69
829.698	37.79
830.135	41.09
830.571	38.89
831.007	44.29
831.443	40.89
831.88	41.69
832.316	41.49
832.752	40.99
833.188	41.79
833.624	37.49
834.06	46.59
834.497	47.39
834.933	48.69
835.369	52.79
835.805	43.69
836.241	57.69
836.677	52.19
837.112	56.69
837.548	74.09
837.984	96.49
838.42	137.89
838.856	336.69
839.292	1094.99
839.727	1781.09
840.163	826.39
840.599	654.19
841.034	1517.09
841.47	1692.89
841.906	608.99
842.341	241.49
842.777	144.99
843.212	152.69
843.648	154.99
844.083	80.09
844.519	61.99
844.954	47.29
845.39	34.59
845.825	29.39
846.261	35.99
846.696	39.49
847.131	34.59
847.566	37.89
848.002	36.39
848.437	33.99
848.872	42.99
849.307	40.99
849.742	56.29
850.177	115.49
850.613	391.29
851.048	672.89
851.483	284.19
851.918	101.79
852.353	59.99
852.788	35.09
853.223	33.89
853.657	43.39
854.092	31.79
854.527	32.29
854.962	27.19
855.397	32.79
855.832	38.19
856.266	35.49
856.701	29.09
857.136	21.59
857.57	28.09
858.005	38.79
858.44	45.09
858.874	29.89
859.309	45.69
859.743	26.79
860.178	33.59
860.612	28.09
861.047	34.29
861.481	46.69
861.915	54.79
862.35	37.39
862.784	22.69
863.218	29.19
863.653	24.39
864.087	34.49
864.521	45.39
864.955	41.39
865.39	106.59
865.824	130.09
866.258	95.49
866.692	143.89
867.126	160.69
867.56	90.99
867.994	41.89
868.428	25.99
868.862	35.39
869.296	44.89
869.73	45.99
870.164	43.19
870.598	42.49
871.031	28.29
871.465	21.69
871.899	29.69
872.333	14.19
872.766	19.09
873.2	14.49
873.634	24.29
874.067	19.99
874.501	12.49
874.935	22.39
875.368	19.39
875.802	21.89
876.235	17.49
876.669	22.39
877.102	19.49
877.535	22.09
877.969	10.39
878.402	18.59
878.836	12.09
879.269	10.69
879.702	19.99
880.135	22.69
880.569	11.89
881.002	18.29
881.435	13.09
881.868	10.19
882.301	14.39
882.734	9.79
883.167	15.29
883.601	12.29
884.034	13.89
884.467	15.09
884.899	17.19
885.332	9.29
885.765	10.89
886.198	6.59
886.631	10.09
887.064	13.19
887.497	13.69
887.929	19.19
888.362	10.09
888.795	8.49
889.228	10.99
889.66	10.69
890.093	8.69
890.526	7.19
890.958	10.79
891.391	10.89
891.823	14.49
892.256	12.09
892.688	5.99
893.121	9.39
893.553	10.49
893.985	19.89
894.418	18.99
894.85	7.29
895.282	7.79
895.715	8.79
896.147	9.69
896.579	12.69
897.011	14.39
897.444	9.49
897.876	7.09
898.308	7.69
898.74	6.89
899.172	6.99
899.604	15.09
900.036	11.49
900.468	8.69
900.9	10.19
901.332	10.49
901.764	7.79
902.196	15.39
902.628	15.39
903.06	17.49
903.491	26.39
903.923	18.49
904.355	14.59
904.787	15.89
905.218	16.59
905.65	11.29
906.082	6.89
906.513	-0.81
906.945	8.79
907.376	5.99
907.808	16.19
908.239	19.79
908.671	12.99
909.102	13.09
909.534	21.79
909.965	37.59
910.397	72.19
910.828	237.89
911.259	366.29
911.691	168.19
912.122	74.99
912.553	37.29
912.984	23.09
913.415	21.09
913.847	16.39
914.278	11.79
914.709	13.79
915.14	18.19
915.571	19.79
916.002	6.79
916.433	12.49
916.864	12.49
917.295	9.29
917.726	18.69
918.157	15.29
918.587	21.99
919.018	12.39
919.449	17.79
919.88	21.89
920.311	18.69
920.741	27.39
921.172	119.29
921.603	108.79
922.033	49.79
922.464	35.09
922.895	12.39
923.325	17.49
923.756	10.79
924.186	11.39
924.617	8.89
925.047	11.19
925.478	13.19
925.908	17.09
926.338	9.69
926.769	5.69
927.199	12.09
927.629	-0.01
928.06	9.69
928.49	5.59
928.92	10.99
929.35	5.09
929.78	10.89
930.21	0.89
930.641	1.19
931.071	9.19
931.501	0.99
931.931	6.39
932.361	4.09
932.791	-0.71
933.221	3.09
933.651	-1.31
934.08	13.39
934.51	24.59
934.94	7.99
935.37	6.49
935.8	7.39
936.229	3.59
936.659	10.19
937.089	2.29
937.519	13.19
937.948	20.89
938.378	14.99
938.807	2.89
939.237	1.39
939.666	5.99
940.096	-3.61
940.525	3.59
940.955	-3.11
941.384	4.59
941.814	-2.01
942.243	4.89
942.672	3.49
943.102	-2.51
943.531	2.09
943.96	5.19
944.39	0.69
944.819	-2.01
945.248	2.69
945.677	-0.61
946.106	0.29
946.535	6.89
946.964	0.39
947.393	3.19
947.822	-3.21
948.251	-7.51
948.68	2.29
949.109	6.69
949.538	4.29
949.967	2.99
950.396	1.39
950.825	-4.61
951.254	-5.01
951.682	-9.21
952.111	1.19
952.54	5.89
952.969	-4.51
953.397	-4.71
953.826	2.69
954.254	-7.41
954.683	1.09
955.112	-4.81
955.54	2.79
955.969	-4.51
956.397	-6.41
956.826	-5.41
957.254	1.79
957.682	-4.31
958.111	8.59
958.539	-5.51
958.967	4.19
959.396	-0.91
959.824	1.39
960.252	0.49
960.68	1.99
961.109	-8.61
961.537	-3.41
961.965	-5.51
962.393	-4.01
962.821	-3.51
963.249	-6.31
963.677	-3.81
964.105	-5.11
964.533	34.29
964.961	32.79
965.389	17.39
965.817	5.99
966.245	-1.21
966.672	-2.11
967.1	-5.81
967.528	-1.61
967.956	-4.41
968.383	0.99
968.811	-4.61
969.239	-7.71
969.666	-5.31
970.094	-2.71
970.522	1.49
970.949	-3.91
971.377	-2.81
971.804	-0.01
972.232	-1.21
972.659	3.39
973.087	-4.11
973.514	-7.61
973.941	-4.21
974.369	-0.51
974.796	2.49
975.223	0.19
975.651	-2.11
976.078	5.09
976.505	2.49
976.932	4.79
977.359	4.69
977.786	7.59
978.214	1.99
978.641	-4.11
979.068	-4.11
979.495	-3.61
979.922	1.29
980.349	-3.31
980.776	8.59
981.202	-6.81
981.629	2.29
982.056	2.89
982.483	-7.61
982.91	2.19
983.337	-4.41
983.763	2.29
984.19	-7.01
984.617	-3.01
985.043	-7.71
985.47	-0.91
985.897	-2.21
986.323	-3.21
986.75	3.69
987.176	-4.11
987.603	5.29
988.029	0.29
988.456	0.19
988.882	-3.31
989.308	-4.71
989.735	-4.81
990.161	4.99
990.587	-4.91
991.014	0.99
991.44	3.59
991.866	-2.91
992.292	-6.11
992.719	-2.51
993.145	-0.51
993.571	-10.01
993.997	-5.21
994.423	-0.91
994.849	-1.21
995.275	-0.11
995.701	0.49
996.127	-1.31
996.553	1.19
996.979	-6.01
997.405	-0.21
997.83	-2.11
998.256	-7.81
998.682	-4.81
999.108	-13.31
999.534	-4.11
999.959	-0.31
1000.385	-3.91
1000.811	1.39
1001.236	-5.41
1001.662	-8.51
1002.087	-12.01
1002.513	-4.31
1002.938	3.19
1003.364	-1.91
1003.789	2.29
1004.215	1.99
1004.64	1.49
1005.066	0.29
1005.491	2.29
1005.916	-9.21
1006.342	-3.81
1006.767	-5.01
1007.192	5.09
1007.617	-6.71
1008.042	-3.91
1008.468	-3.71
1008.893	-1.41
1009.318	-3.51
1009.743	-3.01
1010.168	3.69
1010.593	0.39
1011.018	-6.71
1011.443	1.59
1011.868	-0.21
1012.293	-0.91
1012.718	-7.61
1013.143	-4.71
1013.567	-1.21
1013.992	0.69
1014.417	-15.01
1014.842	0.59
1015.267	-3.11
1015.691	-3.51
1016.116	6.79
1016.541	0.79
1016.965	3.69
1017.39	-2.21
1017.814	1.99
1018.239	-4.41
1018.663	-3.41
1019.088	-8.11
1019.512	-4.71
1019.937	-2.11
1020.361	0.79
1020.785	-9.61
1021.21	-3.41
1021.634	3.99
1022.058	-2.11
1022.483	2.19
1022.907	-7.21
1023.331	-5.11
1023.755	-0.81
1024.179	-2.91
1024.604	-9.41
1025.028	-10.71
1025.452	-0.01
1025.876	-1.41
1026.3	5.79
1026.724	-8.51
1027.148	-9.71
1027.572	-15.01
1027.996	-4.91
1028.42	-2.41
1028.843	-3.71
1029.267	-4.31
1029.691	-5.91
1030.115	-3.91
1030.539	-8.61
1030.962	-10.11
1031.386	-6.71
1031.81	-0.71
1032.233	-4.61
1032.657	-1.51
1033.08	-1.81
1033.504	-2.61
1033.927	-2.11
1034.351	-0.71
1034.774	-7.61
1035.198	-8.11
1035.621	-2.61
1036.045	-6.41
1036.468	2.29
1036.891	-8.41
1037.315	-8.31
1037.738	-5.41
1038.161	-1.01
1038.584	-0.31
1039.008	-4.71
1039.431	-2.31
1039.854	-6.21
1040.277	-5.31
1040.7	-5.61
1041.123	-0.41
1041.546	-7.51
1041.969	-4.41
1042.392	-6.21
1042.815	-4.81
1043.238	-3.91
1043.661	-0.11
1044.084	-6.21
1044.507	-3.21
1044.93	-8.21
1045.352	-1.41
1045.775	-5.41
1046.198	-2.31
1046.621	1.19
1047.043	-0.71
1047.466	2.89
1047.889	-0.91
1048.311	0.89
1048.734	-2.31
1049.156	-3.11
1049.579	1.39
1050.001	4.99
1050.424	0.59
1050.846	-3.21
1051.269	-6.01
1051.691	-9.61
1052.113	-3.91
1052.536	-1.91
1052.958	1.49
1053.38	-3.61
1053.802	-7.31
1054.225	0.89
1054.647	-7.41
1055.069	-1.51
1055.491	0.59
1055.913	-4.81
1056.335	1.49
1056.757	-2.11
1057.179	-5.51
1057.601	-3.11
1058.023	-3.31
1058.445	-8.01
1058.867	-6.01
1059.289	-2.61
1059.711	-7.21
1060.133	-7.01
1060.555	-4.01
1060.976	-10.21
1061.398	-6.91
1061.82	-1.71
1062.241	-6.31
1062.663	-9.51
1063.085	-2.21
1063.506	0.89
1063.928	-10.81
1064.35	2.89
1064.771	-13.41
1065.193	4.39
1065.614	-8.91
1066.035	-4.21
1066.457	3.09
1066.878	-4.41
1067.3	-5.91
1067.721	-3.01
1068.142	-1.31
1068.564	0.29
1068.985	-11.01
1069.406	-4.31
1069.827	-4.01
1070.248	1.49
1070.67	-5.11
1071.091	-8.71
1071.512	-3.01
1071.933	-5.61
1072.354	-3.81
1072.775	-2.81
1073.196	-7.31
1073.617	-7.31
1074.038	-3.41
1074.459	-0.01
1074.88	-7.31
1075.3	1.29
1075.721	-5.01
1076.142	-1.01
1076.563	-3.31
1076.983	-12.81
1077.404	-9.51
1077.825	-10.81
1078.246	-5.61
1078.666	-11.61
1079.087	-8.91
1079.507	-5.51
1079.928	-4.01
1080.348	-5.01
1080.769	-5.71
1081.189	0.79
1081.61	-0.31
1082.03	-5.61
1082.451	-6.91
1082.871	-6.01
1083.291	-1.21
1083.711	-10.31
1084.132	-4.61
1084.552	-2.31
1084.972	-5.21
1085.392	-13.11
1085.813	-16.31
1086.233	-9.71
1086.653	-4.61
1087.073	-2.31
1087.493	-7.11
1087.913	-7.81
1088.333	-9.11
1088.753	-3.11
1089.173	-0.71
1089.593	-7.01
1090.013	-0.51
1090.433	-0.11
1090.852	-6.71
1091.272	-3.41
1091.692	1.79
1092.112	-8.61
1092.531	-9.61
1092.951	-11.01
1093.371	-3.51
1093.79	3.89
1094.21	-0.91
1094.63	2.19
1095.049	-10.41
1095.469	-2.61
1095.888	-8.21
1096.308	-2.61
1096.727	-2.91
1097.146	-10.01
1097.566	-2.31
1097.985	-1.71
1098.405	-3.71
1098.824	-6.71
1099.243	-2.61
1099.662	-12.01
1100.082	-2.21
1100.501	-1.71
1100.92	-10.81
1101.339	-6.41
1101.758	-3.81
