Data from 20171114-ORNL-Ar_H_NY_Subt18_08-04-18-714.txt Node
Date: Tue Nov 14 08:04:18 EST 2017
User: Ender
Spectrometer: HR+D1039
Trigger mode: 0
Integration Time (sec): 2.730000E-2
Scans to average: 10
Electric dark correction enabled: true
Nonlinearity correction enabled: false
Boxcar width: 0
XAxis mode: Wavelengths
Number of Pixels in Spectrum: 2048
>>>>>Begin Spectral Data<<<<<
187.836	-6.53
188.309	-6.53
188.782	-6.53
189.255	1.47
189.728	-0.73
190.201	3.97
190.674	2.27
191.147	-1.73
191.619	-6.03
192.092	-1.13
192.565	-1.23
193.038	1.97
193.511	4.87
193.984	1.07
194.456	-4.23
194.929	1.97
195.402	1.07
195.874	2.87
196.347	-0.43
196.82	-4.33
197.292	8.27
197.765	1.37
198.237	-10.13
198.71	-4.33
199.182	-2.13
199.655	-0.73
200.127	-1.33
200.6	-4.83
201.072	-3.73
201.544	-5.23
202.017	-1.63
202.489	4.37
202.961	-5.73
203.433	1.47
203.906	-11.93
204.378	-5.53
204.85	-3.03
205.322	-7.33
205.794	-5.33
206.266	-2.33
206.739	-11.03
207.211	-0.73
207.683	-8.23
208.155	-7.53
208.627	-2.33
209.099	-6.23
209.57	-5.43
210.042	-1.43
210.514	0.37
210.986	-2.63
211.458	-9.63
211.93	-6.03
212.402	-1.83
212.873	-10.03
213.345	-8.43
213.817	-11.73
214.288	-5.03
214.76	-9.73
215.232	-2.93
215.703	-5.73
216.175	-3.93
216.646	-4.43
217.118	-4.43
217.589	-4.53
218.061	-1.43
218.532	-1.63
219.004	-8.23
219.475	-7.83
219.946	0.37
220.418	-8.63
220.889	5.67
221.36	2.47
221.832	-2.83
222.303	-11.03
222.774	1.77
223.245	-9.13
223.717	-4.03
224.188	-8.33
224.659	-3.83
225.13	-3.33
225.601	-2.13
226.072	3.37
226.543	-0.23
227.014	-2.93
227.485	-2.93
227.956	-7.93
228.427	-2.13
228.898	2.17
229.369	7.57
229.839	0.87
230.31	-7.43
230.781	8.57
231.252	-3.63
231.722	-2.93
232.193	-6.53
232.664	-1.03
233.135	3.27
233.605	-0.43
234.076	-2.73
234.546	-2.73
235.017	7.97
235.487	6.17
235.958	-4.13
236.428	-1.63
236.899	3.67
237.369	3.77
237.84	4.27
238.31	10.57
238.78	6.47
239.251	9.57
239.721	2.27
240.191	2.57
240.662	-0.93
241.132	3.87
241.602	6.17
242.072	-0.63
242.542	7.07
243.013	3.77
243.483	5.27
243.953	0.17
244.423	-1.53
244.893	-4.53
245.363	7.37
245.833	3.17
246.303	-5.53
246.773	6.77
247.243	3.37
247.712	4.57
248.182	7.27
248.652	8.07
249.122	2.07
249.592	12.97
250.061	23.37
250.531	33.77
251.001	21.27
251.471	21.87
251.94	24.57
252.41	6.77
252.879	1.07
253.349	12.77
253.818	3.97
254.288	5.57
254.757	3.67
255.227	-2.13
255.696	5.17
256.166	7.57
256.635	9.97
257.105	7.17
257.574	9.97
258.043	7.37
258.513	9.27
258.982	20.27
259.451	15.47
259.92	16.67
260.389	15.07
260.859	15.77
261.328	17.77
261.797	17.77
262.266	10.27
262.735	10.17
263.204	9.77
263.673	9.17
264.142	4.77
264.611	2.57
265.08	-1.43
265.549	7.17
266.018	7.47
266.487	3.17
266.955	1.27
267.424	-0.43
267.893	13.27
268.362	2.07
268.83	3.77
269.299	7.97
269.768	12.67
270.236	12.27
270.705	7.17
271.174	8.67
271.642	6.17
272.111	9.77
272.579	12.67
273.048	26.57
273.516	32.07
273.985	26.77
274.453	22.97
274.922	22.57
275.39	11.07
275.858	11.37
276.327	11.57
276.795	17.97
277.263	17.17
277.731	24.57
278.2	52.37
278.668	58.57
279.136	50.77
279.604	22.77
280.072	16.07
280.54	11.87
281.008	10.87
281.477	11.47
281.945	14.07
282.413	11.67
282.881	18.97
283.348	11.17
283.816	13.87
284.284	8.97
284.752	19.47
285.22	13.37
285.688	20.47
286.156	19.77
286.623	44.47
287.091	47.37
287.559	26.97
288.026	13.87
288.494	18.37
288.962	5.97
289.429	10.87
289.897	15.17
290.364	11.07
290.832	14.67
291.3	7.57
291.767	18.17
292.234	18.07
292.702	17.67
293.169	16.97
293.637	23.47
294.104	21.87
294.571	12.17
295.039	14.57
295.506	17.47
295.973	19.47
296.44	13.77
296.908	14.67
297.375	14.37
297.842	17.57
298.309	17.17
298.776	13.17
299.243	27.57
299.71	14.57
300.177	19.97
300.644	16.47
301.111	20.47
301.578	21.47
302.045	19.77
302.512	19.07
302.979	24.57
303.446	22.57
303.913	18.67
304.379	19.27
304.846	25.27
305.313	22.87
305.78	19.57
306.246	18.97
306.713	30.07
307.18	25.07
307.646	24.87
308.113	24.17
308.579	23.57
309.046	25.87
309.512	20.77
309.979	16.77
310.445	26.67
310.912	24.07
311.378	31.27
311.845	25.67
312.311	32.77
312.777	33.97
313.244	30.87
313.71	39.27
314.176	31.37
314.642	28.67
315.109	27.17
315.575	38.87
316.041	34.57
316.507	33.17
316.973	36.67
317.439	30.47
317.905	33.27
318.371	34.87
318.837	36.17
319.303	36.17
319.769	30.07
320.235	33.17
320.701	31.27
321.167	32.97
321.633	34.87
322.099	34.67
322.564	41.97
323.03	41.67
323.496	38.47
323.962	37.57
324.427	34.27
324.893	36.87
325.359	38.17
325.824	40.47
326.29	35.87
326.755	36.27
327.221	41.77
327.686	42.07
328.152	44.07
328.617	33.67
329.083	41.87
329.548	52.67
330.014	46.37
330.479	39.17
330.944	42.57
331.41	37.17
331.875	43.77
332.34	37.67
332.805	34.77
333.271	46.17
333.736	41.77
334.201	40.57
334.666	47.07
335.131	50.17
335.596	49.47
336.061	48.37
336.526	36.97
336.991	46.87
337.456	55.77
337.921	41.07
338.386	46.17
338.851	40.47
339.316	41.77
339.781	43.87
340.246	45.57
340.711	42.87
341.175	49.67
341.64	41.27
342.105	44.67
342.569	47.87
343.034	53.77
343.499	51.47
343.963	45.87
344.428	56.17
344.893	54.47
345.357	58.77
345.822	58.27
346.286	57.37
346.751	64.27
347.215	60.47
347.679	67.57
348.144	87.17
348.608	78.17
349.073	67.67
349.537	71.97
350.001	70.67
350.465	80.57
350.93	66.77
351.394	72.27
351.858	65.47
352.322	78.77
352.786	74.07
353.25	87.87
353.715	91.57
354.179	88.67
354.643	108.77
355.107	107.37
355.571	93.17
356.035	95.97
356.498	98.97
356.962	106.47
357.426	112.87
357.89	95.17
358.354	87.67
358.818	77.57
359.281	75.87
359.745	69.47
360.209	67.77
360.673	63.87
361.136	67.07
361.6	78.57
362.064	76.17
362.527	78.97
362.991	87.97
363.454	79.17
363.918	65.47
364.381	63.07
364.845	74.37
365.308	72.87
365.772	82.37
366.235	77.67
366.698	76.47
367.162	74.87
367.625	74.27
368.088	76.87
368.552	77.47
369.015	79.37
369.478	88.87
369.941	87.27
370.404	84.97
370.867	94.07
371.331	92.97
371.794	99.77
372.257	95.77
372.72	99.17
373.183	98.17
373.646	91.97
374.109	96.37
374.572	95.27
375.035	92.77
375.497	97.47
375.96	93.97
376.423	93.77
376.886	100.07
377.349	97.37
377.811	88.57
378.274	94.97
378.737	93.97
379.199	104.67
379.662	100.87
380.125	104.17
380.587	103.17
381.05	108.87
381.512	118.17
381.975	121.87
382.437	115.37
382.9	116.07
383.362	115.07
383.825	121.47
384.287	129.07
384.75	127.57
385.212	126.37
385.674	123.77
386.136	123.07
386.599	112.37
387.061	116.37
387.523	112.67
387.985	120.97
388.447	130.17
388.91	130.67
389.372	139.37
389.834	134.67
390.296	130.77
390.758	140.67
391.22	153.47
391.682	187.07
392.144	259.87
392.606	201.67
393.068	148.37
393.529	155.07
393.991	138.37
394.453	134.27
394.915	141.27
395.377	170.47
395.838	191.37
396.3	141.27
396.762	131.07
397.224	117.67
397.685	119.47
398.147	122.37
398.608	114.57
399.07	114.17
399.531	124.27
399.993	124.87
400.454	133.37
400.916	130.37
401.377	125.87
401.839	136.37
402.3	140.27
402.762	146.47
403.223	155.77
403.684	155.07
404.145	139.07
404.607	150.67
405.068	146.57
405.529	148.17
405.99	165.87
406.451	151.77
406.913	159.87
407.374	142.97
407.835	137.97
408.296	151.27
408.757	145.57
409.218	171.77
409.679	159.77
410.14	158.17
410.601	161.77
411.062	163.87
411.522	175.17
411.983	167.57
412.444	155.97
412.905	161.57
413.366	162.47
413.826	165.77
414.287	195.17
414.748	231.17
415.208	218.37
415.669	193.57
416.13	185.17
416.59	179.77
417.051	183.77
417.511	197.37
417.972	213.57
418.432	219.27
418.893	251.67
419.353	228.87
419.814	174.07
420.274	156.37
420.734	156.77
421.195	172.17
421.655	174.37
422.115	165.97
422.576	173.57
423.036	172.97
423.496	182.67
423.956	188.87
424.416	198.87
424.876	236.17
425.336	236.47
425.797	236.27
426.257	218.97
426.717	210.57
427.177	204.17
427.637	195.07
428.097	208.57
428.556	219.97
429.016	239.77
429.476	236.47
429.936	243.17
430.396	246.67
430.856	254.57
431.315	273.87
431.775	304.57
432.235	340.57
432.694	312.17
433.154	317.87
433.614	331.77
434.073	285.67
434.533	253.97
434.993	232.77
435.452	247.57
435.912	254.77
436.371	254.77
436.83	241.97
437.29	233.37
437.749	220.17
438.209	210.57
438.668	232.57
439.127	239.67
439.587	224.47
440.046	219.17
440.505	233.17
440.964	242.87
441.424	270.57
441.883	259.57
442.342	234.47
442.801	200.27
443.26	192.87
443.719	197.97
444.178	195.57
444.637	183.07
445.096	199.47
445.555	196.17
446.014	197.37
446.473	200.77
446.932	204.57
447.391	202.87
447.849	193.87
448.308	195.57
448.767	193.47
449.226	213.97
449.685	204.87
450.143	228.97
450.602	205.07
451.061	204.47
451.519	207.87
451.978	205.47
452.436	213.57
452.895	215.77
453.353	221.47
453.812	211.87
454.27	214.07
454.729	214.07
455.187	211.47
455.646	215.07
456.104	217.57
456.562	236.77
457.021	229.27
457.479	230.57
457.937	239.67
458.395	225.17
458.854	215.37
459.312	220.57
459.77	240.37
460.228	217.77
460.686	217.87
461.144	221.77
461.602	213.77
462.06	218.57
462.518	227.37
462.976	224.87
463.434	231.27
463.892	230.27
464.35	232.67
464.808	258.37
465.266	238.37
465.724	240.47
466.181	238.27
466.639	244.67
467.097	252.57
467.555	263.07
468.012	264.97
468.47	275.17
468.928	290.87
469.385	298.57
469.843	307.87
470.3	299.87
470.758	311.57
471.215	328.67
471.673	345.77
472.13	349.97
472.588	358.87
473.045	326.47
473.503	329.57
473.96	344.47
474.417	352.77
474.875	381.37
475.332	418.07
475.789	407.07
476.246	416.57
476.704	422.17
477.161	451.47
477.618	461.27
478.075	492.57
478.532	535.47
478.989	602.97
479.446	698.27
479.903	677.97
480.36	721.87
480.817	776.27
481.274	872.27
481.731	970.07
482.188	1040.17
482.645	1169.57
483.102	1265.17
483.558	1393.88
484.015	1457.17
484.472	1429.47
484.929	1379.97
485.385	1339.47
485.842	1281.77
486.299	1226.67
486.755	1162.67
487.212	988.27
487.668	816.87
488.125	764.07
488.582	693.47
489.038	663.17
489.494	639.77
489.951	612.67
490.407	590.37
490.864	579.77
491.32	582.87
491.776	565.17
492.233	568.47
492.689	540.87
493.145	533.47
493.602	532.87
494.058	548.87
494.514	547.37
494.97	558.47
495.426	564.47
495.882	547.37
496.338	541.57
496.794	555.17
497.251	552.17
497.707	562.57
498.163	571.07
498.618	566.37
499.074	582.37
499.53	595.87
499.986	590.87
500.442	573.67
500.898	566.57
501.354	550.17
501.809	564.57
502.265	577.77
502.721	588.37
503.177	592.17
503.632	583.17
504.088	596.27
504.543	629.07
504.999	623.87
505.455	577.97
505.91	566.57
506.366	553.57
506.821	555.77
507.277	542.47
507.732	554.77
508.187	551.77
508.643	561.07
509.098	560.07
509.553	579.87
510.009	576.77
510.464	585.47
510.919	600.17
511.375	608.07
511.83	622.27
512.285	641.07
512.74	666.87
513.195	676.97
513.65	683.17
514.105	676.37
514.56	680.87
515.015	700.17
515.47	716.27
515.925	702.07
516.38	700.27
516.835	702.07
517.29	680.77
517.745	692.17
518.2	673.57
518.655	662.07
519.109	654.57
519.564	651.57
520.019	643.17
520.474	640.17
520.928	647.37
521.383	631.17
521.838	617.77
522.292	627.87
522.747	620.97
523.201	620.77
523.656	615.67
524.11	609.97
524.565	605.27
525.019	614.17
525.474	618.27
525.928	615.67
526.382	604.57
526.837	614.27
527.291	617.17
527.745	617.87
528.2	619.97
528.654	608.77
529.108	605.27
529.562	607.57
530.016	602.67
530.47	599.57
530.925	618.97
531.379	616.37
531.833	619.27
532.287	611.57
532.741	618.07
533.195	622.77
533.649	625.47
534.103	638.47
534.556	621.07
535.01	627.67
535.464	612.17
535.918	630.67
536.372	637.87
536.826	628.87
537.279	619.87
537.733	629.57
538.187	626.17
538.64	630.67
539.094	638.47
539.548	629.67
540.001	626.27
540.455	621.67
540.908	633.97
541.362	642.47
541.815	650.37
542.269	659.07
542.722	658.87
543.175	666.17
543.629	667.27
544.082	684.77
544.536	679.67
544.989	681.17
545.442	695.07
545.895	686.17
546.349	683.27
546.802	688.37
547.255	701.57
547.708	695.97
548.161	709.57
548.614	715.07
549.067	717.67
549.52	702.57
549.973	715.17
550.426	699.07
550.879	685.67
551.332	694.27
551.785	691.97
552.238	705.87
552.691	710.97
553.144	719.77
553.596	732.27
554.049	743.17
554.502	769.67
554.955	781.77
555.407	787.87
555.86	776.07
556.313	777.37
556.765	762.67
557.218	756.87
557.67	762.17
558.123	751.97
558.576	751.07
559.028	758.47
559.48	767.27
559.933	751.27
560.385	727.37
560.838	697.47
561.29	675.57
561.742	665.37
562.195	657.87
562.647	665.07
563.099	674.67
563.551	665.87
564.004	671.37
564.456	659.07
564.908	664.57
565.36	640.07
565.812	634.07
566.264	622.17
566.716	625.07
567.168	605.57
567.62	623.67
568.072	601.47
568.524	589.37
568.976	584.87
569.428	567.87
569.88	566.27
570.332	579.97
570.784	570.07
571.235	579.17
571.687	595.47
572.139	594.77
572.59	606.67
573.042	604.27
573.494	600.97
573.945	601.57
574.397	581.07
574.849	585.07
575.3	588.67
575.752	579.17
576.203	580.27
576.655	583.87
577.106	569.97
577.557	558.57
578.009	575.87
578.46	563.77
578.912	561.07
579.363	562.37
579.814	569.87
580.265	557.87
580.717	557.47
581.168	562.77
581.619	566.17
582.07	568.47
582.521	569.77
582.972	559.87
583.423	572.57
583.875	575.07
584.326	593.37
584.777	631.47
585.227	705.67
585.678	773.57
586.129	859.57
586.58	938.77
587.031	1000.87
587.482	1161.97
587.933	1334.57
588.384	1144.07
588.834	831.67
589.285	682.27
589.736	656.87
590.186	653.57
590.637	644.27
591.088	626.57
591.538	622.07
591.989	611.87
592.439	609.87
592.89	602.07
593.34	590.77
593.791	596.77
594.241	595.47
594.692	596.17
595.142	574.07
595.593	585.87
596.043	595.37
596.493	590.37
596.943	594.37
597.394	606.77
597.844	601.07
598.294	605.97
598.744	625.47
599.195	644.27
599.645	680.07
600.095	707.97
600.545	755.67
600.995	793.37
601.445	852.37
601.895	896.17
602.345	951.37
602.795	930.37
603.245	886.57
603.695	841.87
604.145	805.47
604.594	748.67
605.044	710.57
605.494	658.27
605.944	627.07
606.393	623.67
606.843	608.57
607.293	600.37
607.743	610.17
608.192	608.17
608.642	627.97
609.091	635.27
609.541	640.87
609.99	633.87
610.44	629.97
610.889	589.17
611.339	567.87
611.788	560.67
612.238	582.27
612.687	591.87
613.136	589.27
613.586	605.97
614.035	616.77
614.484	626.37
614.933	629.77
615.383	616.37
615.832	598.17
616.281	596.97
616.73	567.57
617.179	553.77
617.628	544.07
618.077	521.97
618.526	505.97
618.975	503.47
619.424	496.67
619.873	504.97
620.322	505.57
620.771	495.17
621.22	493.67
621.669	485.17
622.118	479.77
622.567	467.97
623.015	466.17
623.464	470.37
623.913	454.67
624.361	456.37
624.81	459.97
625.259	451.37
625.707	455.27
626.156	462.57
626.604	469.17
627.053	456.37
627.501	459.57
627.95	465.67
628.398	471.67
628.847	466.67
629.295	464.07
629.744	466.67
630.192	467.47
630.64	462.47
631.089	461.57
631.537	466.97
631.985	473.17
632.433	482.47
632.881	485.17
633.33	530.37
633.778	516.87
634.226	453.47
634.674	461.27
635.122	473.27
635.57	483.97
636.018	517.27
636.466	472.97
636.914	454.07
637.362	469.27
637.81	468.47
638.258	476.27
638.705	468.27
639.153	493.27
639.601	493.27
640.049	515.07
640.497	546.87
640.944	560.27
641.392	521.07
641.84	499.17
642.287	479.37
642.735	463.27
643.182	462.27
643.63	461.67
644.078	465.37
644.525	478.67
644.973	475.07
645.42	489.67
645.867	506.47
646.315	513.37
646.762	532.67
647.21	560.37
647.657	575.67
648.104	611.67
648.551	619.87
648.999	669.77
649.446	721.87
649.893	810.97
650.34	927.67
650.787	1117.57
651.234	1385.78
651.682	1781.17
652.129	2449.47
652.576	3536.37
653.023	5230.68
653.47	7286.57
653.917	9231.38
654.363	10825.78
654.81	12224.68
655.257	11601.08
655.704	7508.48
656.151	4380.27
656.598	2824.47
657.044	2004.67
657.491	1525.78
657.938	1225.27
658.385	1012.97
658.831	881.17
659.278	781.07
659.724	685.17
660.171	627.87
660.618	584.57
661.064	556.47
661.511	528.57
661.957	519.47
662.404	504.17
662.85	512.17
663.296	491.57
663.743	443.67
664.189	427.37
664.635	426.27
665.082	414.37
665.528	408.77
665.974	411.67
666.42	399.97
666.867	402.67
667.313	380.87
667.759	386.47
668.205	382.27
668.651	383.57
669.097	393.37
669.543	401.87
669.989	377.67
670.435	354.67
670.881	359.27
671.327	354.77
671.773	374.57
672.219	386.57
672.665	425.67
673.11	459.57
673.556	502.47
674.002	535.37
674.448	525.07
674.893	441.87
675.339	372.37
675.785	350.07
676.23	336.37
676.676	302.07
677.122	297.87
677.567	285.87
678.013	295.07
678.458	285.77
678.904	290.87
679.349	266.57
679.794	278.47
680.24	275.87
680.685	273.47
681.131	277.37
681.576	278.67
682.021	276.07
682.466	277.07
682.912	268.47
683.357	274.47
683.802	294.67
684.247	312.57
684.692	354.77
685.137	389.87
685.583	425.67
686.028	448.57
686.473	407.07
686.918	353.67
687.363	327.47
687.807	314.77
688.252	283.27
688.697	282.57
689.142	263.77
689.587	259.87
690.032	252.97
690.477	263.97
690.921	270.67
691.366	297.17
691.811	315.97
692.255	341.77
692.7	365.87
693.145	393.57
693.589	527.67
694.034	856.07
694.478	1203.67
694.923	1398.97
695.367	1847.97
695.812	964.47
696.256	397.67
696.701	294.57
697.145	272.07
697.59	255.97
698.034	251.87
698.478	263.37
698.922	257.27
699.367	262.47
699.811	271.57
700.255	279.07
700.699	300.97
701.143	337.57
701.588	378.77
702.032	413.37
702.476	407.07
702.92	390.37
703.364	381.67
703.808	484.87
704.252	787.57
704.696	1133.37
705.14	1359.57
705.584	1747.97
706.027	844.87
706.471	412.77
706.915	312.97
707.359	281.07
707.803	243.67
708.246	243.57
708.69	245.97
709.134	250.57
709.577	244.27
710.021	259.27
710.465	242.17
710.908	230.17
711.352	237.37
711.795	239.47
712.239	272.37
712.682	296.17
713.126	328.17
713.569	374.77
714.012	301.77
714.456	255.47
714.899	227.57
715.342	213.07
715.786	208.87
716.229	200.47
716.672	204.77
717.115	194.67
717.558	196.57
718.002	202.37
718.445	198.37
718.888	224.37
719.331	229.97
719.774	241.07
720.217	238.37
720.66	217.87
721.103	206.87
721.546	200.67
721.989	199.37
722.432	185.57
722.874	186.07
723.317	177.67
723.76	177.07
724.203	201.27
724.645	248.07
725.088	345.17
725.531	448.17
725.974	511.27
726.416	436.87
726.859	241.47
727.301	193.27
727.744	179.27
728.187	186.27
728.629	186.67
729.071	188.17
729.514	206.67
729.956	217.17
730.399	217.47
730.841	224.37
731.283	212.97
731.726	208.37
732.168	201.37
732.61	202.67
733.053	216.27
733.495	242.87
733.937	271.27
734.379	298.67
734.821	336.87
735.263	416.57
735.705	642.97
736.148	1188.57
736.59	2013.47
737.032	2475.27
737.474	2018.97
737.916	642.07
738.357	333.57
738.799	253.07
739.241	230.27
739.683	221.47
740.125	227.37
740.567	227.77
741.008	246.17
741.45	245.47
741.892	244.47
742.334	277.37
742.775	283.97
743.217	272.37
743.658	211.57
744.1	199.87
744.542	208.47
744.983	238.87
745.425	278.97
745.866	272.87
746.307	222.27
746.749	220.37
747.19	253.27
747.632	345.57
748.073	658.67
748.514	1415.27
748.956	2251.97
749.397	2811.77
749.838	2355.88
750.279	2431.07
750.72	1212.57
751.162	423.87
751.603	249.77
752.044	196.17
752.485	173.27
752.926	170.27
753.367	158.97
753.808	147.87
754.249	153.67
754.69	146.47
755.131	143.97
755.572	141.77
756.013	131.27
756.453	144.57
756.894	144.17
757.335	145.17
757.776	153.17
758.216	157.97
758.657	152.27
759.098	154.97
759.538	169.17
759.979	203.27
760.42	276.77
760.86	528.47
761.301	1362.47
761.741	3419.67
762.182	5304.68
762.622	3734.97
763.063	1059.77
763.503	424.47
763.943	274.57
764.384	275.67
764.824	330.97
765.264	374.37
765.705	246.37
766.145	170.37
766.585	147.07
767.025	138.67
767.465	146.17
767.906	194.97
768.346	246.07
768.786	281.77
769.226	207.67
769.666	242.37
770.106	462.97
770.546	1184.47
770.986	2125.27
771.426	1947.27
771.866	638.87
772.306	256.97
772.745	165.47
773.185	136.67
773.625	136.37
774.065	133.27
774.505	153.07
774.944	245.27
775.384	531.97
775.824	1042.97
776.263	1034.38
776.703	428.97
777.142	184.27
777.582	122.07
778.021	113.27
778.461	105.27
778.9	115.97
779.34	103.47
779.779	91.87
780.219	87.97
780.658	84.97
781.097	81.37
781.537	87.47
781.976	83.67
782.415	87.67
782.855	83.67
783.294	77.87
783.733	78.57
784.172	85.87
784.611	82.47
785.05	84.77
785.489	80.77
785.928	90.77
786.367	103.57
786.806	95.77
787.245	101.17
787.684	100.97
788.123	121.37
788.562	111.77
789.001	106.17
789.44	91.37
789.879	92.57
790.317	94.87
790.756	95.27
791.195	104.67
791.634	113.57
792.072	159.47
792.511	274.07
792.95	758.17
793.388	1709.07
793.827	1602.77
794.265	545.87
794.704	220.87
795.142	139.57
795.581	118.97
796.019	106.77
796.458	98.67
796.896	90.17
797.334	89.67
797.773	118.17
798.211	175.17
798.649	326.17
799.087	791.47
799.526	1253.38
799.964	1574.07
800.402	1655.38
800.84	616.87
801.278	236.87
801.716	147.47
802.154	121.67
802.592	117.07
803.03	106.87
803.468	102.67
803.906	109.57
804.344	116.07
804.782	109.07
805.22	104.87
805.658	99.07
806.096	112.87
806.533	118.77
806.971	139.17
807.409	177.27
807.847	238.87
808.284	502.57
808.722	1434.87
809.16	2650.38
809.597	2434.57
810.035	4343.88
810.472	4861.88
810.91	1716.88
811.347	639.27
811.785	323.57
812.222	207.27
812.66	152.57
813.097	127.27
813.535	103.17
813.972	96.37
814.409	92.17
814.846	87.07
815.284	92.37
815.721	85.27
816.158	82.67
816.595	93.27
817.032	139.17
817.47	161.07
817.907	138.97
818.344	126.37
818.781	91.57
819.218	77.27
819.655	97.07
820.092	151.47
820.529	175.97
820.966	145.57
821.403	109.27
821.839	86.37
822.276	83.47
822.713	97.17
823.15	104.47
823.587	94.37
824.023	114.47
824.46	218.87
824.897	700.07
825.333	1105.27
825.77	471.57
826.206	174.27
826.643	101.57
827.08	79.97
827.516	64.07
827.953	59.37
828.389	65.07
828.825	59.97
829.262	53.77
829.698	54.17
830.135	52.27
830.571	47.17
831.007	51.57
831.443	51.97
831.88	48.37
832.316	47.17
832.752	48.97
833.188	54.27
833.624	42.27
834.06	50.77
834.497	57.47
834.933	55.67
835.369	62.47
835.805	43.77
836.241	59.47
836.677	57.57
837.112	68.57
837.548	75.37
837.984	103.77
838.42	145.27
838.856	374.67
839.292	1188.17
839.727	1917.67
840.163	872.27
840.599	705.77
841.034	1620.97
841.47	1772.07
841.906	634.77
842.341	262.07
842.777	184.87
843.212	254.87
843.648	264.17
844.083	126.27
844.519	83.47
844.954	60.57
845.39	46.17
845.825	45.27
846.261	41.57
846.696	42.97
847.131	39.07
847.566	46.67
848.002	40.77
848.437	37.87
848.872	45.07
849.307	48.07
849.742	65.27
850.177	138.47
850.613	428.57
851.048	718.77
851.483	302.57
851.918	122.37
852.353	63.67
852.788	51.17
853.223	43.77
853.657	43.27
854.092	37.07
854.527	34.27
854.962	31.17
855.397	41.17
855.832	39.27
856.266	31.87
856.701	32.87
857.136	31.07
857.57	35.67
858.005	33.97
858.44	52.67
858.874	30.67
859.309	45.17
859.743	30.57
860.178	35.07
860.612	34.27
861.047	44.37
861.481	53.27
861.915	54.57
862.35	39.47
862.784	17.17
863.218	33.57
863.653	31.97
864.087	40.27
864.521	40.17
864.955	53.17
865.39	123.37
865.824	139.87
866.258	91.67
866.692	132.27
867.126	143.37
867.56	94.07
867.994	41.87
868.428	27.27
868.862	35.17
869.296	43.27
869.73	40.87
870.164	40.17
870.598	36.27
871.031	32.47
871.465	24.47
871.899	25.07
872.333	19.17
872.766	14.87
873.2	18.67
873.634	26.77
874.067	22.37
874.501	22.67
874.935	31.17
875.368	21.77
875.802	19.67
876.235	18.67
876.669	21.67
877.102	26.07
877.535	23.37
877.969	17.37
878.402	17.77
878.836	18.37
879.269	17.97
879.702	25.37
880.135	17.77
880.569	16.07
881.002	21.27
881.435	18.87
881.868	8.67
882.301	17.77
882.734	9.27
883.167	12.57
883.601	15.17
884.034	24.87
884.467	9.67
884.899	12.57
885.332	14.17
885.765	8.47
886.198	7.17
886.631	15.47
887.064	13.37
887.497	13.37
887.929	23.27
888.362	11.27
888.795	13.77
889.228	15.07
889.66	16.47
890.093	14.57
890.526	10.57
890.958	14.97
891.391	18.27
891.823	18.07
892.256	10.47
892.688	10.97
893.121	15.67
893.553	10.87
893.985	20.37
894.418	16.37
894.85	5.87
895.282	6.37
895.715	12.97
896.147	13.17
896.579	13.17
897.011	12.67
897.444	12.67
897.876	6.37
898.308	16.07
898.74	11.47
899.172	10.97
899.604	18.07
900.036	18.37
900.468	10.27
900.9	11.77
901.332	10.97
901.764	5.07
902.196	14.27
902.628	13.67
903.06	7.77
903.491	26.27
903.923	13.67
904.355	12.87
904.787	15.57
905.218	20.47
905.65	19.07
906.082	6.07
906.513	7.77
906.945	16.27
907.376	19.97
907.808	14.97
908.239	18.97
908.671	14.97
909.102	15.97
909.534	23.37
909.965	41.07
910.397	76.67
910.828	247.57
911.259	389.47
911.691	181.07
912.122	87.67
912.553	37.87
912.984	30.97
913.415	23.27
913.847	21.97
914.278	11.67
914.709	11.87
915.14	14.77
915.571	14.77
916.002	10.77
916.433	16.67
916.864	13.37
917.295	12.27
917.726	23.37
918.157	15.47
918.587	25.97
919.018	15.27
919.449	18.97
919.88	15.87
920.311	27.97
920.741	37.57
921.172	135.97
921.603	125.07
922.033	58.07
922.464	38.67
922.895	18.97
923.325	20.27
923.756	8.27
924.186	8.77
924.617	17.37
925.047	32.57
925.478	49.47
925.908	41.27
926.338	22.07
926.769	19.07
927.199	14.07
927.629	2.87
928.06	13.47
928.49	9.27
928.92	12.07
929.35	6.37
929.78	7.87
930.21	1.57
930.641	6.77
931.071	9.17
931.501	6.07
931.931	8.67
932.361	-1.53
932.791	-1.03
933.221	-3.13
933.651	-0.43
934.08	11.77
934.51	25.57
934.94	3.27
935.37	5.17
935.8	8.07
936.229	4.07
936.659	6.27
937.089	2.97
937.519	13.97
937.948	25.77
938.378	14.57
938.807	3.17
939.237	1.57
939.666	7.87
940.096	-7.93
940.525	-1.73
940.955	-3.03
941.384	0.87
941.814	-8.33
942.243	-2.83
942.672	1.67
943.102	0.27
943.531	0.67
943.96	2.77
944.39	1.17
944.819	3.07
945.248	4.87
945.677	2.17
946.106	4.87
946.535	5.67
946.964	3.87
947.393	0.97
947.822	4.07
948.251	-4.13
948.68	-1.83
949.109	7.97
949.538	6.47
949.967	0.97
950.396	4.37
950.825	4.17
951.254	5.17
951.682	-3.13
952.111	0.77
952.54	4.27
952.969	-6.63
953.397	-6.63
953.826	-3.33
954.254	-11.33
954.683	0.37
955.112	-1.53
955.54	-4.63
955.969	1.87
956.397	-4.13
956.826	2.27
957.254	4.97
957.682	2.67
958.111	2.37
958.539	-0.13
958.967	1.67
959.396	-2.93
959.824	0.07
960.252	2.47
960.68	-2.93
961.109	-0.93
961.537	-4.53
961.965	-2.53
962.393	4.37
962.821	-5.13
963.249	-4.73
963.677	0.37
964.105	4.07
964.533	37.77
964.961	27.27
965.389	14.97
965.817	6.57
966.245	1.67
966.672	-0.03
967.1	-6.33
967.528	-2.03
967.956	-1.63
968.383	3.77
968.811	-0.03
969.239	-3.73
969.666	-2.63
970.094	-0.83
970.522	-3.13
970.949	0.97
971.377	1.97
971.804	-0.73
972.232	-3.63
972.659	-3.33
973.087	4.37
973.514	-2.13
973.941	-2.13
974.369	3.87
974.796	0.77
975.223	3.07
975.651	0.67
976.078	4.17
976.505	-2.73
976.932	-0.73
977.359	10.47
977.786	13.47
978.214	-5.13
978.641	-1.53
979.068	-1.43
979.495	-6.73
979.922	1.47
980.349	-4.93
980.776	6.87
981.202	-1.83
981.629	8.67
982.056	5.07
982.483	-0.43
982.91	3.37
983.337	-3.93
983.763	2.37
984.19	-2.73
984.617	-6.23
985.043	-7.33
985.47	4.77
985.897	3.57
986.323	-3.03
986.75	2.67
987.176	0.47
987.603	-1.23
988.029	-1.13
988.456	-2.83
988.882	4.47
989.308	-6.43
989.735	-3.63
990.161	1.37
990.587	-3.23
991.014	-2.43
991.44	8.57
991.866	-0.33
992.292	-0.83
992.719	-2.23
993.145	2.67
993.571	-9.43
993.997	-1.83
994.423	2.17
994.849	-5.33
995.275	0.07
995.701	3.97
996.127	-0.73
996.553	4.57
996.979	-3.63
997.405	-2.53
997.83	-0.53
998.256	-5.63
998.682	-1.13
999.108	-2.63
999.534	1.87
999.959	-0.93
1000.385	-5.33
1000.811	4.27
1001.236	-6.03
1001.662	-1.33
1002.087	-6.63
1002.513	2.77
1002.938	-2.63
1003.364	1.57
1003.789	-1.23
1004.215	5.97
1004.64	3.47
1005.066	-1.63
1005.491	2.97
1005.916	-4.13
1006.342	-7.93
1006.767	-14.23
1007.192	0.67
1007.617	-6.83
1008.042	-3.03
1008.468	-4.33
1008.893	-1.13
1009.318	0.57
1009.743	-3.93
1010.168	0.47
1010.593	-1.03
1011.018	-5.53
1011.443	-3.73
1011.868	1.47
1012.293	-5.93
1012.718	-6.73
1013.143	-1.23
1013.567	5.97
1013.992	-2.13
1014.417	-15.63
1014.842	-0.63
1015.267	-6.43
1015.691	-9.13
1016.116	6.37
1016.541	2.97
1016.965	7.57
1017.39	-2.83
1017.814	-0.43
1018.239	6.67
1018.663	-4.23
1019.088	-15.33
1019.512	-7.23
1019.937	3.87
1020.361	-5.93
1020.785	-13.23
1021.21	-1.43
1021.634	-2.23
1022.058	-1.63
1022.483	3.37
1022.907	-2.63
1023.331	1.57
1023.755	0.67
1024.179	-2.13
1024.604	-5.93
1025.028	-5.93
1025.452	-3.83
1025.876	-0.73
1026.3	5.67
1026.724	-7.33
1027.148	-2.73
1027.572	-8.53
1027.996	-2.23
1028.42	-5.73
1028.843	-5.53
1029.267	-4.73
1029.691	-3.53
1030.115	-1.43
1030.539	-2.43
1030.962	-5.03
1031.386	-10.13
1031.81	3.27
1032.233	-0.83
1032.657	-3.33
1033.08	-4.13
1033.504	-2.33
1033.927	-5.63
1034.351	-2.03
1034.774	-5.93
1035.198	1.47
1035.621	-10.73
1036.045	-7.43
1036.468	2.27
1036.891	-9.23
1037.315	-10.23
1037.738	-7.43
1038.161	5.87
1038.584	-8.23
1039.008	-7.03
1039.431	-5.33
1039.854	-1.33
1040.277	-7.43
1040.7	-7.73
1041.123	2.77
1041.546	-5.63
1041.969	-10.53
1042.392	-0.73
1042.815	-3.33
1043.238	0.77
1043.661	0.17
1044.084	-6.93
1044.507	-1.53
1044.93	-6.93
1045.352	-3.53
1045.775	-1.13
1046.198	-0.23
1046.621	-2.33
1047.043	-4.13
1047.466	5.37
1047.889	-3.63
1048.311	-3.83
1048.734	-6.23
1049.156	-3.13
1049.579	-1.93
1050.001	-2.33
1050.424	1.27
1050.846	-2.33
1051.269	-4.23
1051.691	-5.73
1052.113	-3.53
1052.536	-4.03
1052.958	-4.83
1053.38	-2.93
1053.802	-8.83
1054.225	1.77
1054.647	-12.23
1055.069	-2.93
1055.491	-1.03
1055.913	-2.03
1056.335	-5.03
1056.757	-0.93
1057.179	-7.83
1057.601	-5.03
1058.023	-4.73
1058.445	-4.63
1058.867	-2.93
1059.289	-3.13
1059.711	-6.83
1060.133	-3.03
1060.555	-0.43
1060.976	-6.63
1061.398	-2.43
1061.82	-10.53
1062.241	-2.43
1062.663	-0.43
1063.085	-4.43
1063.506	-1.03
1063.928	1.47
1064.35	-2.43
1064.771	-10.73
1065.193	-2.23
1065.614	-11.13
1066.035	0.27
1066.457	0.77
1066.878	-1.83
1067.3	-4.23
1067.721	-3.33
1068.142	-4.43
1068.564	-6.03
1068.985	-3.43
1069.406	-2.83
1069.827	-1.03
1070.248	4.47
1070.67	-5.13
1071.091	-1.53
1071.512	-3.43
1071.933	-4.73
1072.354	-4.73
1072.775	-8.23
1073.196	-6.73
1073.617	-4.93
1074.038	-6.83
1074.459	-3.43
1074.88	-7.43
1075.3	-0.53
1075.721	-5.73
1076.142	-0.83
1076.563	-2.13
1076.983	-13.53
1077.404	-6.73
1077.825	-11.93
1078.246	-2.13
1078.666	-7.53
1079.087	-6.33
1079.507	-1.23
1079.928	2.07
1080.348	-4.93
1080.769	-8.93
1081.189	-2.23
1081.61	-8.13
1082.03	-4.93
1082.451	-11.13
1082.871	-5.73
1083.291	-5.93
1083.711	-9.53
1084.132	-5.73
1084.552	-4.83
1084.972	5.97
1085.392	-9.73
1085.813	-5.53
1086.233	-4.63
1086.653	-2.43
1087.073	2.37
1087.493	-9.43
1087.913	-4.43
1088.333	-10.33
1088.753	-5.43
1089.173	4.57
1089.593	-5.83
1090.013	-3.03
1090.433	-0.73
1090.852	-2.13
1091.272	-0.23
1091.692	-0.23
1092.112	-3.83
1092.531	-9.53
1092.951	-13.03
1093.371	-1.53
1093.79	-0.23
1094.21	-6.83
1094.63	-7.43
1095.049	-2.33
1095.469	-0.93
1095.888	-5.13
1096.308	-4.13
1096.727	1.07
1097.146	-3.83
1097.566	-3.63
1097.985	-5.13
1098.405	-0.83
1098.824	-9.93
1099.243	-11.03
1099.662	-11.13
1100.082	-3.53
1100.501	-0.93
1100.92	-5.13
1101.339	-7.93
1101.758	-3.63
