Data from 20171114-ORNL-Ar_H_NY_Subt18_08-04-13-531.txt Node
Date: Tue Nov 14 08:04:13 EST 2017
User: Ender
Spectrometer: HR+D1039
Trigger mode: 0
Integration Time (sec): 2.730000E-2
Scans to average: 10
Electric dark correction enabled: true
Nonlinearity correction enabled: false
Boxcar width: 0
XAxis mode: Wavelengths
Number of Pixels in Spectrum: 2048
>>>>>Begin Spectral Data<<<<<
187.836	-7.61
188.309	-7.61
188.782	-7.61
189.255	-2.91
189.728	-0.61
190.201	0.59
190.674	1.69
191.147	6.09
191.619	-10.41
192.092	0.29
192.565	3.39
193.038	7.49
193.511	5.19
193.984	2.39
194.456	2.29
194.929	1.99
195.402	-7.01
195.874	-2.91
196.347	0.29
196.82	-2.81
197.292	6.39
197.765	-2.31
198.237	-2.91
198.71	0.09
199.182	-1.21
199.655	1.49
200.127	5.59
200.6	-1.01
201.072	4.19
201.544	-3.51
202.017	0.69
202.489	4.39
202.961	-3.81
203.433	2.89
203.906	-11.81
204.378	-9.71
204.85	-1.71
205.322	-7.91
205.794	5.39
206.266	-5.31
206.739	-8.41
207.211	5.09
207.683	-5.91
208.155	-6.51
208.627	-4.51
209.099	-4.11
209.57	-9.01
210.042	-3.71
210.514	-2.71
210.986	-0.61
211.458	-6.41
211.93	-0.81
212.402	2.79
212.873	-5.91
213.345	-9.51
213.817	-10.21
214.288	-5.61
214.76	-12.41
215.232	0.89
215.703	0.59
216.175	-2.81
216.646	-3.21
217.118	-6.01
217.589	-0.01
218.061	-0.61
218.532	-5.11
219.004	-0.21
219.475	-2.31
219.946	5.09
220.418	0.99
220.889	2.39
221.36	-6.41
221.832	-1.61
222.303	-3.81
222.774	2.39
223.245	-13.51
223.717	-6.31
224.188	-3.01
224.659	-7.81
225.13	-2.61
225.601	-1.11
226.072	3.09
226.543	-5.91
227.014	-1.91
227.485	0.39
227.956	-5.01
228.427	-3.01
228.898	2.89
229.369	-5.21
229.839	0.99
230.31	-6.51
230.781	4.59
231.252	-3.51
231.722	0.49
232.193	-3.31
232.664	-1.11
233.135	3.69
233.605	-2.31
234.076	-7.21
234.546	-2.21
235.017	8.49
235.487	5.39
235.958	-2.41
236.428	-1.01
236.899	4.09
237.369	-0.91
237.84	-1.21
238.31	6.29
238.78	1.19
239.251	2.69
239.721	4.49
240.191	3.89
240.662	-7.71
241.132	-0.01
241.602	1.59
242.072	3.39
242.542	4.99
243.013	-5.81
243.483	2.69
243.953	5.49
244.423	1.19
244.893	-3.01
245.363	2.49
245.833	3.29
246.303	-5.21
246.773	8.99
247.243	6.99
247.712	1.49
248.182	10.49
248.652	8.69
249.122	-2.71
249.592	8.99
250.061	21.69
250.531	27.79
251.001	17.89
251.471	16.39
251.94	19.39
252.41	8.59
252.879	2.39
253.349	12.49
253.818	15.69
254.288	4.59
254.757	3.49
255.227	1.69
255.696	6.39
256.166	11.09
256.635	7.39
257.105	5.79
257.574	3.29
258.043	4.79
258.513	9.09
258.982	10.49
259.451	5.59
259.92	9.49
260.389	10.09
260.859	20.49
261.328	11.99
261.797	18.09
262.266	11.79
262.735	12.99
263.204	3.99
263.673	-3.71
264.142	9.29
264.611	-3.41
265.08	0.29
265.549	-0.71
266.018	5.19
266.487	-8.61
266.955	2.89
267.424	-1.21
267.893	4.69
268.362	-0.11
268.83	2.29
269.299	6.29
269.768	6.49
270.236	5.99
270.705	5.79
271.174	6.89
271.642	6.19
272.111	13.89
272.579	17.49
273.048	14.59
273.516	25.29
273.985	25.19
274.453	27.49
274.922	19.89
275.39	8.69
275.858	3.09
276.327	13.29
276.795	15.09
277.263	10.79
277.731	23.69
278.2	51.49
278.668	54.39
279.136	37.59
279.604	18.19
280.072	17.69
280.54	8.69
281.008	10.59
281.477	11.59
281.945	9.09
282.413	14.49
282.881	16.99
283.348	9.89
283.816	18.39
284.284	7.09
284.752	22.09
285.22	15.89
285.688	14.79
286.156	20.69
286.623	44.49
287.091	44.59
287.559	21.79
288.026	14.99
288.494	13.89
288.962	-0.11
289.429	8.99
289.897	19.89
290.364	14.09
290.832	18.39
291.3	13.79
291.767	20.39
292.234	10.09
292.702	10.89
293.169	18.09
293.637	18.79
294.104	18.69
294.571	10.49
295.039	9.99
295.506	7.79
295.973	15.99
296.44	10.99
296.908	15.39
297.375	15.29
297.842	19.69
298.309	19.79
298.776	11.09
299.243	20.29
299.71	18.29
300.177	24.79
300.644	21.39
301.111	18.99
301.578	19.49
302.045	17.99
302.512	18.39
302.979	25.99
303.446	20.79
303.913	16.39
304.379	18.79
304.846	20.79
305.313	24.19
305.78	23.69
306.246	29.99
306.713	22.79
307.18	22.89
307.646	26.39
308.113	25.49
308.579	23.19
309.046	23.69
309.512	24.29
309.979	13.29
310.445	24.39
310.912	19.59
311.378	28.69
311.845	26.69
312.311	27.19
312.777	23.99
313.244	29.29
313.71	30.39
314.176	29.29
314.642	25.59
315.109	31.89
315.575	35.09
316.041	27.79
316.507	30.29
316.973	33.19
317.439	33.79
317.905	30.79
318.371	26.89
318.837	29.99
319.303	30.99
319.769	31.39
320.235	25.29
320.701	30.99
321.167	35.59
321.633	28.59
322.099	31.39
322.564	36.49
323.03	37.99
323.496	31.49
323.962	35.79
324.427	31.99
324.893	38.29
325.359	29.39
325.824	34.19
326.29	29.29
326.755	35.99
327.221	32.99
327.686	31.59
328.152	40.09
328.617	37.29
329.083	45.59
329.548	45.69
330.014	43.49
330.479	34.49
330.944	37.39
331.41	39.29
331.875	39.89
332.34	37.49
332.805	39.09
333.271	43.79
333.736	38.29
334.201	44.99
334.666	47.69
335.131	53.29
335.596	44.59
336.061	49.59
336.526	34.09
336.991	43.29
337.456	47.79
337.921	44.59
338.386	31.79
338.851	36.69
339.316	44.69
339.781	43.59
340.246	47.99
340.711	41.69
341.175	43.29
341.64	36.29
342.105	47.39
342.569	44.99
343.034	53.49
343.499	47.39
343.963	44.29
344.428	52.69
344.893	56.79
345.357	49.39
345.822	56.59
346.286	60.39
346.751	62.69
347.215	64.39
347.679	61.09
348.144	85.49
348.608	81.79
349.073	61.49
349.537	67.89
350.001	67.99
350.465	76.49
350.93	71.29
351.394	67.59
351.858	64.59
352.322	79.79
352.786	71.19
353.25	82.19
353.715	98.39
354.179	84.19
354.643	103.29
355.107	106.69
355.571	93.69
356.035	83.59
356.498	97.99
356.962	104.69
357.426	102.89
357.89	101.39
358.354	78.19
358.818	69.99
359.281	71.69
359.745	65.09
360.209	71.09
360.673	63.79
361.136	70.09
361.6	71.49
362.064	73.49
362.527	73.29
362.991	79.79
363.454	78.89
363.918	63.59
364.381	64.99
364.845	77.99
365.308	78.09
365.772	70.39
366.235	79.99
366.698	79.19
367.162	74.19
367.625	81.79
368.088	79.29
368.552	80.49
369.015	76.19
369.478	87.29
369.941	87.99
370.404	82.89
370.867	100.19
371.331	100.89
371.794	99.09
372.257	100.49
372.72	106.89
373.183	94.39
373.646	93.39
374.109	94.99
374.572	98.39
375.035	90.29
375.497	96.59
375.96	95.79
376.423	94.69
376.886	98.69
377.349	100.29
377.811	88.49
378.274	91.79
378.737	92.49
379.199	95.19
379.662	95.59
380.125	99.59
380.587	104.79
381.05	107.49
381.512	107.89
381.975	118.09
382.437	113.29
382.9	110.09
383.362	112.69
383.825	117.69
384.287	134.99
384.75	128.89
385.212	122.09
385.674	128.39
386.136	116.19
386.599	112.59
387.061	111.49
387.523	112.39
387.985	119.39
388.447	133.29
388.91	121.49
389.372	137.09
389.834	130.59
390.296	128.29
390.758	141.19
391.22	149.49
391.682	181.69
392.144	256.79
392.606	204.99
393.068	148.89
393.529	147.99
393.991	134.59
394.453	129.99
394.915	140.19
395.377	163.39
395.838	191.49
396.3	134.59
396.762	121.29
397.224	117.89
397.685	112.79
398.147	113.99
398.608	118.89
399.07	118.19
399.531	123.49
399.993	129.89
400.454	138.19
400.916	129.39
401.377	125.79
401.839	131.79
402.3	135.09
402.762	148.19
403.223	164.09
403.684	154.79
404.145	138.89
404.607	141.29
405.068	146.79
405.529	159.09
405.99	162.39
406.451	161.09
406.913	151.49
407.374	143.79
407.835	147.29
408.296	149.39
408.757	144.49
409.218	164.49
409.679	158.99
410.14	155.69
410.601	157.29
411.062	166.69
411.522	170.29
411.983	165.59
412.444	153.79
412.905	156.89
413.366	163.09
413.826	167.09
414.287	191.39
414.748	234.79
415.208	212.99
415.669	191.99
416.13	186.89
416.59	177.49
417.051	183.09
417.511	195.59
417.972	213.29
418.432	218.19
418.893	263.09
419.353	222.19
419.814	174.59
420.274	161.49
420.734	161.49
421.195	172.09
421.655	179.99
422.115	167.99
422.576	170.09
423.036	175.39
423.496	185.09
423.956	190.19
424.416	202.79
424.876	232.09
425.336	224.79
425.797	238.29
426.257	223.49
426.717	211.59
427.177	204.39
427.637	195.09
428.097	204.79
428.556	212.19
429.016	239.39
429.476	236.19
429.936	242.99
430.396	248.99
430.856	250.49
431.315	280.99
431.775	302.89
432.235	331.89
432.694	310.29
433.154	316.49
433.614	336.29
434.073	291.19
434.533	247.09
434.993	238.39
435.452	250.29
435.912	255.69
436.371	244.49
436.83	239.99
437.29	235.49
437.749	221.59
438.209	214.69
438.668	230.99
439.127	249.69
439.587	234.69
440.046	216.89
440.505	233.19
440.964	241.79
441.424	267.29
441.883	260.29
442.342	221.99
442.801	204.59
443.26	196.29
443.719	194.39
444.178	192.49
444.637	187.19
445.096	193.79
445.555	195.49
446.014	198.09
446.473	204.39
446.932	201.49
447.391	198.29
447.849	197.69
448.308	195.19
448.767	195.59
449.226	209.19
449.685	212.19
450.143	218.39
450.602	214.49
451.061	203.99
451.519	210.09
451.978	208.29
452.436	205.79
452.895	207.29
453.353	214.09
453.812	208.89
454.27	213.59
454.729	214.59
455.187	217.79
455.646	216.59
456.104	215.59
456.562	224.09
457.021	235.69
457.479	226.69
457.937	236.59
458.395	231.09
458.854	221.19
459.312	225.09
459.77	238.99
460.228	221.69
460.686	220.49
461.144	225.49
461.602	218.59
462.06	218.39
462.518	224.29
462.976	225.69
463.434	228.79
463.892	233.39
464.35	237.29
464.808	250.89
465.266	240.09
465.724	243.39
466.181	243.09
466.639	240.69
467.097	258.59
467.555	264.49
468.012	271.59
468.47	272.49
468.928	293.59
469.385	299.49
469.843	303.09
470.3	302.59
470.758	312.99
471.215	334.29
471.673	350.79
472.13	349.09
472.588	351.59
473.045	324.39
473.503	337.59
473.96	345.89
474.417	353.59
474.875	381.19
475.332	418.39
475.789	408.49
476.246	405.49
476.704	430.89
477.161	441.99
477.618	449.89
478.075	484.69
478.532	539.59
478.989	600.69
479.446	695.99
479.903	671.99
480.36	713.79
480.817	759.39
481.274	849.99
481.731	947.09
482.188	1025.59
482.645	1148.69
483.102	1252.49
483.558	1370.59
484.015	1425.69
484.472	1418.99
484.929	1352.69
485.385	1328.19
485.842	1292.99
486.299	1210.49
486.755	1136.19
487.212	977.79
487.668	819.49
488.125	757.29
488.582	694.79
489.038	669.19
489.494	643.19
489.951	608.09
490.407	589.89
490.864	572.79
491.32	559.89
491.776	564.29
492.233	561.99
492.689	540.79
493.145	533.59
493.602	525.79
494.058	537.79
494.514	541.09
494.97	548.99
495.426	563.89
495.882	539.79
496.338	537.29
496.794	550.39
497.251	546.79
497.707	564.29
498.163	559.79
498.618	564.79
499.074	561.29
499.53	586.39
499.986	583.39
500.442	569.79
500.898	551.09
501.354	548.09
501.809	556.39
502.265	560.29
502.721	582.79
503.177	591.79
503.632	582.29
504.088	587.79
504.543	616.89
504.999	627.79
505.455	578.49
505.91	558.19
506.366	558.79
506.821	548.29
507.277	543.99
507.732	554.99
508.187	554.39
508.643	554.69
509.098	547.19
509.553	575.39
510.009	591.39
510.464	591.89
510.919	598.79
511.375	603.79
511.83	616.29
512.285	633.49
512.74	661.89
513.195	673.09
513.65	674.49
514.105	678.49
514.56	673.89
515.015	698.39
515.47	703.99
515.925	697.89
516.38	688.39
516.835	698.59
517.29	688.49
517.745	676.79
518.2	669.39
518.655	657.19
519.109	647.79
519.564	652.59
520.019	639.59
520.474	636.99
520.928	641.29
521.383	635.59
521.838	622.09
522.292	616.19
522.747	624.99
523.201	610.19
523.656	600.99
524.11	596.89
524.565	599.49
525.019	606.79
525.474	608.29
525.928	609.39
526.382	608.09
526.837	605.49
527.291	616.19
527.745	601.69
528.2	605.79
528.654	590.89
529.108	584.29
529.562	587.19
530.016	588.79
530.47	597.99
530.925	598.39
531.379	597.29
531.833	610.49
532.287	606.69
532.741	606.39
533.195	614.69
533.649	619.29
534.103	624.59
534.556	613.89
535.01	616.29
535.464	612.89
535.918	626.19
536.372	621.09
536.826	612.59
537.279	606.99
537.733	604.29
538.187	613.49
538.64	612.79
539.094	628.69
539.548	632.69
540.001	618.79
540.455	617.39
540.908	631.19
541.362	636.69
541.815	641.69
542.269	661.59
542.722	658.49
543.175	657.59
543.629	656.09
544.082	677.39
544.536	674.89
544.989	666.69
545.442	678.49
545.895	677.09
546.349	675.49
546.802	671.99
547.255	676.89
547.708	681.89
548.161	702.49
548.614	701.49
549.067	705.89
549.52	695.59
549.973	693.29
550.426	684.19
550.879	673.79
551.332	679.29
551.785	684.09
552.238	689.99
552.691	699.79
553.144	703.19
553.596	715.79
554.049	732.19
554.502	759.19
554.955	779.29
555.407	777.69
555.86	769.49
556.313	755.79
556.765	744.59
557.218	752.59
557.67	746.69
558.123	746.19
558.576	737.99
559.028	751.49
559.48	747.19
559.933	739.39
560.385	708.29
560.838	690.99
561.29	657.09
561.742	658.49
562.195	649.09
562.647	644.69
563.099	654.09
563.551	653.59
564.004	657.39
564.456	656.49
564.908	644.59
565.36	637.09
565.812	618.79
566.264	614.49
566.716	607.19
567.168	599.99
567.62	614.69
568.072	588.89
568.524	582.59
568.976	577.69
569.428	565.69
569.88	563.39
570.332	563.99
570.784	566.49
571.235	577.69
571.687	580.59
572.139	578.99
572.59	604.39
573.042	590.49
573.494	592.29
573.945	598.19
574.397	577.79
574.849	571.39
575.3	573.49
575.752	569.89
576.203	568.29
576.655	578.79
577.106	560.39
577.557	551.19
578.009	558.19
578.46	553.39
578.912	546.89
579.363	557.69
579.814	548.19
580.265	551.39
580.717	553.39
581.168	548.49
581.619	563.39
582.07	553.69
582.521	564.29
582.972	554.49
583.423	557.59
583.875	558.49
584.326	574.29
584.777	620.39
585.227	682.19
585.678	759.19
586.129	838.09
586.58	899.29
587.031	981.99
587.482	1134.39
587.933	1299.39
588.384	1111.99
588.834	827.19
589.285	664.19
589.736	644.49
590.186	633.89
590.637	633.19
591.088	612.69
591.538	602.59
591.989	601.19
592.439	595.79
592.89	594.89
593.34	580.79
593.791	583.09
594.241	583.19
594.692	580.19
595.142	582.19
595.593	565.89
596.043	583.29
596.493	597.19
596.943	587.99
597.394	589.59
597.844	579.69
598.294	596.29
598.744	614.19
599.195	636.29
599.645	664.59
600.095	688.09
600.545	745.19
600.995	787.49
601.445	833.29
601.895	882.99
602.345	935.49
602.795	913.69
603.245	875.19
603.695	824.49
604.145	791.29
604.594	741.59
605.044	696.99
605.494	644.19
605.944	599.39
606.393	601.19
606.843	595.49
607.293	588.79
607.743	592.19
608.192	599.29
608.642	612.39
609.091	622.29
609.541	617.49
609.99	620.69
610.44	615.29
610.889	577.99
611.339	567.49
611.788	560.19
612.238	572.59
612.687	566.99
613.136	580.59
613.586	598.49
614.035	589.79
614.484	615.19
614.933	621.09
615.383	608.29
615.832	605.09
616.281	582.99
616.73	559.79
617.179	539.29
617.628	529.69
618.077	514.49
618.526	497.79
618.975	489.29
619.424	495.49
619.873	492.59
620.322	497.19
620.771	486.79
621.22	486.59
621.669	474.29
622.118	465.29
622.567	463.79
623.015	454.29
623.464	450.29
623.913	450.29
624.361	448.49
624.81	444.59
625.259	435.29
625.707	447.09
626.156	443.19
626.604	451.19
627.053	438.39
627.501	450.79
627.95	453.19
628.398	468.89
628.847	455.59
629.295	458.89
629.744	458.29
630.192	446.39
630.64	456.89
631.089	448.29
631.537	457.49
631.985	459.49
632.433	481.39
632.881	483.39
633.33	515.89
633.778	505.29
634.226	449.79
634.674	446.79
635.122	461.69
635.57	479.89
636.018	493.19
636.466	458.09
636.914	441.19
637.362	449.19
637.81	455.09
638.258	464.59
638.705	458.89
639.153	480.59
639.601	491.09
640.049	499.39
640.497	524.29
640.944	548.29
641.392	517.69
641.84	485.69
642.287	463.79
642.735	452.89
643.182	456.79
643.63	457.99
644.078	449.19
644.525	472.49
644.973	472.49
645.42	482.99
645.867	492.69
646.315	497.99
646.762	526.59
647.21	550.49
647.657	565.89
648.104	600.29
648.551	612.29
648.999	656.69
649.446	716.39
649.893	790.79
650.34	899.89
650.787	1072.79
651.234	1328.69
651.682	1737.19
652.129	2361.99
652.576	3403.69
653.023	5080.19
653.47	7032.99
653.917	8882.79
654.363	10486.79
654.81	11801.39
655.257	11249.49
655.704	7255.19
656.151	4252.19
656.598	2735.09
657.044	1939.49
657.491	1484.09
657.938	1177.19
658.385	989.49
658.831	863.29
659.278	750.89
659.724	669.59
660.171	613.69
660.618	568.29
661.064	544.29
661.511	518.09
661.957	511.99
662.404	493.79
662.85	497.19
663.296	476.79
663.743	439.19
664.189	427.69
664.635	417.29
665.082	411.99
665.528	409.99
665.974	406.09
666.42	406.99
666.867	399.89
667.313	374.49
667.759	378.39
668.205	373.39
668.651	381.99
669.097	383.09
669.543	392.69
669.989	374.59
670.435	350.89
670.881	341.89
671.327	353.59
671.773	361.89
672.219	380.39
672.665	422.99
673.11	448.89
673.556	488.79
674.002	531.49
674.448	513.69
674.893	429.79
675.339	378.99
675.785	348.09
676.23	319.99
676.676	302.59
677.122	292.99
677.567	283.19
678.013	284.39
678.458	282.79
678.904	282.89
679.349	263.59
679.794	264.39
680.24	268.69
680.685	265.19
681.131	264.69
681.576	270.29
682.021	278.39
682.466	268.89
682.912	269.79
683.357	270.49
683.802	291.59
684.247	309.99
684.692	350.99
685.137	381.09
685.583	425.69
686.028	438.69
686.473	405.59
686.918	344.99
687.363	324.39
687.807	306.79
688.252	273.49
688.697	270.49
689.142	253.29
689.587	257.59
690.032	245.09
690.477	268.49
690.921	272.09
691.366	288.89
691.811	307.69
692.255	332.19
692.7	361.09
693.145	383.69
693.589	519.09
694.034	841.39
694.478	1181.59
694.923	1383.89
695.367	1808.09
695.812	948.89
696.256	392.79
696.701	284.09
697.145	264.69
697.59	254.79
698.034	247.59
698.478	260.49
698.922	252.69
699.367	252.99
699.811	261.89
700.255	280.39
700.699	292.29
701.143	330.59
701.588	365.69
702.032	404.39
702.476	399.69
702.92	373.69
703.364	375.39
703.808	473.39
704.252	774.29
704.696	1093.99
705.14	1317.49
705.584	1707.29
706.027	834.69
706.471	406.99
706.915	302.79
707.359	266.89
707.803	247.19
708.246	239.49
708.69	235.39
709.134	245.69
709.577	244.79
710.021	245.69
710.465	239.19
710.908	233.89
711.352	229.29
711.795	242.19
712.239	267.89
712.682	279.29
713.126	322.29
713.569	367.59
714.012	290.19
714.456	251.39
714.899	233.09
715.342	218.89
715.786	195.09
716.229	203.59
716.672	197.49
717.115	190.79
717.558	195.89
718.002	196.49
718.445	198.79
718.888	218.99
719.331	226.79
719.774	236.69
720.217	236.19
720.66	212.49
721.103	199.49
721.546	192.29
721.989	195.69
722.432	174.59
722.874	184.49
723.317	172.29
723.76	180.29
724.203	198.29
724.645	237.29
725.088	330.29
725.531	434.89
725.974	502.19
726.416	433.19
726.859	239.99
727.301	190.99
727.744	186.09
728.187	176.49
728.629	182.29
729.071	185.49
729.514	196.99
729.956	208.59
730.399	220.69
730.841	214.89
731.283	216.59
731.726	210.19
732.168	195.79
732.61	202.89
733.053	214.39
733.495	244.59
733.937	262.59
734.379	307.29
734.821	328.49
735.263	405.29
735.705	618.39
736.148	1172.89
736.59	1938.89
737.032	2450.79
737.474	1984.19
737.916	623.59
738.357	334.59
738.799	250.19
739.241	229.89
739.683	215.29
740.125	225.49
740.567	228.79
741.008	249.09
741.45	243.79
741.892	241.89
742.334	267.79
742.775	278.09
743.217	270.49
743.658	210.99
744.1	192.19
744.542	202.19
744.983	243.39
745.425	270.99
745.866	271.19
746.307	226.09
746.749	214.09
747.19	250.69
747.632	339.09
748.073	637.49
748.514	1388.79
748.956	2196.99
749.397	2757.49
749.838	2283.09
750.279	2377.29
750.72	1181.59
751.162	424.89
751.603	245.79
752.044	196.29
752.485	165.09
752.926	162.99
753.367	159.59
753.808	148.99
754.249	142.09
754.69	147.49
755.131	137.79
755.572	136.29
756.013	130.69
756.453	143.19
756.894	141.19
757.335	144.59
757.776	149.49
758.216	153.49
758.657	157.19
759.098	160.89
759.538	173.09
759.979	209.69
760.42	277.99
760.86	517.19
761.301	1328.29
761.741	3368.09
762.182	5227.49
762.622	3700.39
763.063	1034.09
763.503	418.89
763.943	266.99
764.384	263.79
764.824	309.39
765.264	357.89
765.705	244.99
766.145	165.29
766.585	146.59
767.025	136.59
767.465	137.79
767.906	184.19
768.346	252.39
768.786	267.09
769.226	198.49
769.666	234.79
770.106	449.29
770.546	1148.79
770.986	2078.09
771.426	1897.39
771.866	627.59
772.306	252.99
772.745	166.19
773.185	131.59
773.625	130.89
774.065	131.89
774.505	151.19
774.944	236.39
775.384	513.29
775.824	983.39
776.263	994.99
776.703	409.99
777.142	171.59
777.582	123.99
778.021	101.59
778.461	108.99
778.9	111.09
779.34	103.99
779.779	86.09
780.219	81.29
780.658	75.89
781.097	78.49
781.537	89.29
781.976	80.19
782.415	80.99
782.855	76.19
783.294	78.69
783.733	77.99
784.172	85.09
784.611	85.09
785.05	82.29
785.489	83.99
785.928	85.19
786.367	94.09
786.806	90.59
787.245	99.49
787.684	98.49
788.123	112.29
788.562	102.69
789.001	91.29
789.44	97.99
789.879	88.49
790.317	88.89
790.756	99.69
791.195	99.09
791.634	109.79
792.072	154.29
792.511	268.69
792.95	734.29
793.388	1691.99
793.827	1585.39
794.265	527.89
794.704	209.49
795.142	144.59
795.581	118.09
796.019	108.99
796.458	99.29
796.896	96.39
797.334	104.39
797.773	121.59
798.211	160.19
798.649	322.89
799.087	765.49
799.526	1235.19
799.964	1555.69
800.402	1641.59
800.84	604.89
801.278	232.29
801.716	151.49
802.154	113.09
802.592	112.59
803.03	106.69
803.468	99.99
803.906	110.69
804.344	109.09
804.782	110.79
805.22	96.09
805.658	100.89
806.096	114.29
806.533	121.39
806.971	131.09
807.409	164.49
807.847	232.29
808.284	487.89
808.722	1406.19
809.16	2625.79
809.597	2397.99
810.035	4270.49
810.472	4813.59
810.91	1690.59
811.347	621.99
811.785	314.19
812.222	206.19
812.66	149.89
813.097	130.69
813.535	106.09
813.972	99.99
814.409	94.29
814.846	80.89
815.284	79.69
815.721	82.19
816.158	79.29
816.595	95.59
817.032	139.79
817.47	161.49
817.907	138.19
818.344	117.39
818.781	91.39
819.218	74.89
819.655	96.79
820.092	150.59
820.529	178.19
820.966	144.99
821.403	108.29
821.839	87.89
822.276	80.69
822.713	93.79
823.15	101.79
823.587	95.49
824.023	105.59
824.46	220.09
824.897	679.09
825.333	1093.79
825.77	462.29
826.206	181.69
826.643	102.39
827.08	77.79
827.516	68.79
827.953	56.79
828.389	63.49
828.825	52.49
829.262	53.79
829.698	47.59
830.135	53.49
830.571	43.99
831.007	46.79
831.443	45.99
831.88	49.99
832.316	48.09
832.752	47.09
833.188	49.29
833.624	44.09
834.06	49.29
834.497	57.89
834.933	56.49
835.369	63.39
835.805	46.19
836.241	53.69
836.677	60.59
837.112	62.89
837.548	76.79
837.984	105.89
838.42	148.79
838.856	367.09
839.292	1162.09
839.727	1872.99
840.163	860.79
840.599	701.79
841.034	1596.19
841.47	1754.99
841.906	627.89
842.341	258.39
842.777	180.09
843.212	254.69
843.648	256.89
844.083	122.59
844.519	75.49
844.954	59.29
845.39	44.69
845.825	40.99
846.261	45.59
846.696	44.69
847.131	37.59
847.566	40.79
848.002	42.39
848.437	34.69
848.872	46.09
849.307	45.89
849.742	62.69
850.177	130.39
850.613	426.79
851.048	710.89
851.483	303.79
851.918	120.09
852.353	65.39
852.788	44.29
853.223	43.59
853.657	49.89
854.092	36.89
854.527	26.29
854.962	31.29
855.397	32.39
855.832	39.89
856.266	30.79
856.701	35.79
857.136	27.29
857.57	26.49
858.005	35.99
858.44	39.59
858.874	36.99
859.309	44.49
859.743	22.59
860.178	33.19
860.612	34.39
861.047	42.79
861.481	54.69
861.915	54.19
862.35	37.89
862.784	20.09
863.218	30.19
863.653	26.79
864.087	34.19
864.521	44.19
864.955	51.09
865.39	124.19
865.824	136.99
866.258	89.19
866.692	136.19
867.126	141.99
867.56	84.99
867.994	46.39
868.428	28.39
868.862	36.09
869.296	47.39
869.73	48.79
870.164	43.79
870.598	31.09
871.031	31.89
871.465	23.29
871.899	27.99
872.333	16.69
872.766	18.69
873.2	17.69
873.634	27.29
874.067	19.59
874.501	24.39
874.935	29.19
875.368	27.79
875.802	21.99
876.235	19.79
876.669	19.29
877.102	15.59
877.535	23.39
877.969	18.99
878.402	16.79
878.836	13.39
879.269	28.29
879.702	16.89
880.135	18.49
880.569	15.09
881.002	24.49
881.435	18.09
881.868	15.99
882.301	18.79
882.734	11.79
883.167	16.19
883.601	18.39
884.034	13.49
884.467	6.39
884.899	24.49
885.332	18.99
885.765	15.39
886.198	14.09
886.631	15.69
887.064	20.89
887.497	20.59
887.929	17.69
888.362	10.39
888.795	7.49
889.228	12.29
889.66	14.59
890.093	13.79
890.526	10.39
890.958	17.29
891.391	12.49
891.823	17.39
892.256	12.19
892.688	14.79
893.121	15.29
893.553	8.89
893.985	14.59
894.418	12.59
894.85	8.09
895.282	13.59
895.715	16.19
896.147	18.19
896.579	10.59
897.011	11.09
897.444	12.79
897.876	14.99
898.308	15.89
898.74	11.59
899.172	12.19
899.604	19.89
900.036	13.49
900.468	15.59
900.9	7.29
901.332	8.49
901.764	11.39
902.196	6.79
902.628	13.09
903.06	16.79
903.491	20.49
903.923	16.59
904.355	16.39
904.787	17.19
905.218	19.79
905.65	15.39
906.082	9.89
906.513	11.49
906.945	16.39
907.376	10.19
907.808	19.89
908.239	14.19
908.671	10.99
909.102	12.39
909.534	21.89
909.965	41.29
910.397	68.89
910.828	250.19
911.259	395.19
911.691	179.99
912.122	83.39
912.553	43.29
912.984	25.89
913.415	21.19
913.847	25.69
914.278	10.69
914.709	12.09
915.14	13.59
915.571	15.99
916.002	11.79
916.433	15.49
916.864	16.79
917.295	12.89
917.726	18.59
918.157	16.79
918.587	22.99
919.018	13.29
919.449	22.29
919.88	19.49
920.311	20.99
920.741	33.59
921.172	134.39
921.603	125.79
922.033	54.89
922.464	37.29
922.895	23.49
923.325	15.89
923.756	12.49
924.186	9.69
924.617	17.19
925.047	28.39
925.478	41.39
925.908	34.69
926.338	26.49
926.769	13.49
927.199	12.89
927.629	8.99
928.06	9.79
928.49	7.79
928.92	14.29
929.35	8.39
929.78	5.39
930.21	4.09
930.641	3.39
931.071	7.29
931.501	-0.21
931.931	5.99
932.361	7.79
932.791	-4.71
933.221	8.29
933.651	5.69
934.08	11.79
934.51	27.29
934.94	9.49
935.37	10.19
935.8	17.39
936.229	4.69
936.659	13.59
937.089	1.39
937.519	10.99
937.948	22.19
938.378	18.59
938.807	9.99
939.237	-0.31
939.666	7.49
940.096	2.49
940.525	1.89
940.955	6.59
941.384	1.79
941.814	-6.11
942.243	-3.21
942.672	9.89
943.102	1.29
943.531	2.29
943.96	2.29
944.39	4.09
944.819	-1.31
945.248	-0.61
945.677	-1.81
946.106	11.69
946.535	7.59
946.964	2.29
947.393	5.29
947.822	-5.31
948.251	-3.11
948.68	6.19
949.109	5.59
949.538	9.79
949.967	-1.61
950.396	8.29
950.825	1.49
951.254	-4.01
951.682	-3.51
952.111	8.59
952.54	7.19
952.969	1.49
953.397	1.09
953.826	2.69
954.254	-4.51
954.683	-3.91
955.112	2.39
955.54	1.69
955.969	-4.11
956.397	-0.91
956.826	-1.81
957.254	6.09
957.682	-0.81
958.111	6.39
958.539	-2.41
958.967	4.69
959.396	1.59
959.824	4.79
960.252	8.19
960.68	-4.21
961.109	2.59
961.537	-6.41
961.965	-3.51
962.393	-3.71
962.821	-7.51
963.249	3.89
963.677	2.89
964.105	0.59
964.533	36.09
964.961	31.19
965.389	15.09
965.817	5.89
966.245	5.29
966.672	-0.31
967.1	-0.91
967.528	1.19
967.956	-3.91
968.383	-3.71
968.811	-4.11
969.239	0.59
969.666	-4.41
970.094	-1.81
970.522	0.79
970.949	-1.61
971.377	-5.51
971.804	-3.41
972.232	-2.81
972.659	3.39
973.087	0.39
973.514	-4.21
973.941	-4.71
974.369	4.49
974.796	4.59
975.223	3.59
975.651	0.09
976.078	-3.71
976.505	-1.61
976.932	-1.01
977.359	11.49
977.786	12.39
978.214	-0.81
978.641	-0.61
979.068	0.09
979.495	-2.31
979.922	2.69
980.349	-1.81
980.776	3.49
981.202	1.89
981.629	1.99
982.056	-0.81
982.483	0.09
982.91	3.79
983.337	-3.91
983.763	4.49
984.19	-4.11
984.617	-5.91
985.043	-12.91
985.47	-4.41
985.897	-4.61
986.323	-3.81
986.75	0.79
987.176	-1.61
987.603	10.69
988.029	-0.61
988.456	-0.41
988.882	1.49
989.308	1.49
989.735	-3.71
990.161	-0.51
990.587	-3.81
991.014	-0.71
991.44	4.29
991.866	-0.71
992.292	-3.91
992.719	-2.51
993.145	2.09
993.571	-9.61
993.997	-0.91
994.423	-2.01
994.849	-2.21
995.275	-0.51
995.701	0.19
996.127	-2.61
996.553	-2.21
996.979	-0.81
997.405	-1.31
997.83	-9.91
998.256	-5.61
998.682	-6.21
999.108	-2.81
999.534	1.09
999.959	1.39
1000.385	-3.51
1000.811	5.99
1001.236	-1.21
1001.662	-7.81
1002.087	-8.31
1002.513	-6.61
1002.938	4.69
1003.364	-6.21
1003.789	-0.31
1004.215	-0.31
1004.64	3.79
1005.066	1.39
1005.491	1.49
1005.916	0.19
1006.342	-2.51
1006.767	-3.21
1007.192	12.79
1007.617	0.29
1008.042	-2.11
1008.468	-9.21
1008.893	-10.41
1009.318	-2.81
1009.743	-3.51
1010.168	-3.21
1010.593	1.59
1011.018	-1.01
1011.443	-3.11
1011.868	0.69
1012.293	-5.31
1012.718	-7.51
1013.143	6.59
1013.567	-0.61
1013.992	-1.11
1014.417	-12.01
1014.842	-2.21
1015.267	-10.61
1015.691	-3.91
1016.116	2.69
1016.541	0.79
1016.965	2.79
1017.39	-1.61
1017.814	2.09
1018.239	-2.21
1018.663	-3.01
1019.088	-9.31
1019.512	3.29
1019.937	-1.31
1020.361	-1.91
1020.785	-6.51
1021.21	-1.71
1021.634	-6.41
1022.058	-0.51
1022.483	5.69
1022.907	-2.21
1023.331	-5.91
1023.755	-2.81
1024.179	-9.31
1024.604	-3.71
1025.028	-5.41
1025.452	-1.51
1025.876	-6.71
1026.3	4.89
1026.724	-7.61
1027.148	-5.21
1027.572	-8.11
1027.996	-2.91
1028.42	-6.51
1028.843	-5.21
1029.267	-3.21
1029.691	-3.71
1030.115	-10.61
1030.539	-4.71
1030.962	-9.61
1031.386	-13.41
1031.81	1.59
1032.233	2.99
1032.657	1.09
1033.08	2.29
1033.504	2.09
1033.927	-5.71
1034.351	-1.31
1034.774	-8.41
1035.198	-1.71
1035.621	-7.81
1036.045	-10.71
1036.468	0.79
1036.891	-4.21
1037.315	-6.71
1037.738	-8.81
1038.161	-0.11
1038.584	-1.91
1039.008	-2.41
1039.431	-4.61
1039.854	0.19
1040.277	-10.31
1040.7	-7.51
1041.123	-3.41
1041.546	-12.51
1041.969	-6.81
1042.392	-0.31
1042.815	-1.11
1043.238	3.69
1043.661	2.89
1044.084	-5.51
1044.507	-6.01
1044.93	-9.71
1045.352	-5.81
1045.775	2.59
1046.198	-2.21
1046.621	-3.21
1047.043	-1.11
1047.466	9.69
1047.889	-2.61
1048.311	-2.31
1048.734	-3.61
1049.156	-4.01
1049.579	-4.61
1050.001	-5.51
1050.424	1.99
1050.846	1.79
1051.269	1.19
1051.691	-2.81
1052.113	-5.41
1052.536	3.69
1052.958	4.49
1053.38	-6.61
1053.802	-12.51
1054.225	-0.01
1054.647	-10.91
1055.069	-9.11
1055.491	4.59
1055.913	-10.21
1056.335	0.49
1056.757	-6.11
1057.179	-8.61
1057.601	-5.71
1058.023	-5.91
1058.445	-7.11
1058.867	-0.11
1059.289	-1.01
1059.711	-7.41
1060.133	-0.01
1060.555	-4.61
1060.976	-7.21
1061.398	-9.81
1061.82	-5.51
1062.241	-6.71
1062.663	-4.61
1063.085	-10.61
1063.506	-4.01
1063.928	-0.61
1064.35	0.69
1064.771	-9.71
1065.193	-4.81
1065.614	-7.21
1066.035	-7.71
1066.457	-5.41
1066.878	3.79
1067.3	-6.81
1067.721	-4.21
1068.142	-4.91
1068.564	-3.91
1068.985	-4.11
1069.406	-2.91
1069.827	-6.41
1070.248	-0.71
1070.67	-6.51
1071.091	-5.11
1071.512	0.09
1071.933	-0.51
1072.354	-6.61
1072.775	-7.11
1073.196	-8.11
1073.617	-9.81
1074.038	-11.51
1074.459	-1.21
1074.88	-8.71
1075.3	-2.51
1075.721	-3.81
1076.142	3.99
1076.563	0.99
1076.983	-8.91
1077.404	-10.01
1077.825	-7.51
1078.246	3.59
1078.666	-5.91
1079.087	-2.41
1079.507	-0.61
1079.928	0.49
1080.348	-2.71
1080.769	-5.01
1081.189	-3.41
1081.61	-1.61
1082.03	-4.11
1082.451	-5.31
1082.871	-2.91
1083.291	-7.71
1083.711	-6.61
1084.132	-4.41
1084.552	-4.51
1084.972	-3.01
1085.392	-12.41
1085.813	-10.51
1086.233	-5.41
1086.653	-3.11
1087.073	0.09
1087.493	-4.21
1087.913	-4.91
1088.333	-5.51
1088.753	-5.41
1089.173	2.49
1089.593	-5.71
1090.013	-1.71
1090.433	5.19
1090.852	-4.71
1091.272	-7.41
1091.692	-1.41
1092.112	-11.21
1092.531	-10.61
1092.951	-16.21
1093.371	-4.81
1093.79	1.19
1094.21	-6.21
1094.63	-6.91
1095.049	-8.21
1095.469	1.79
1095.888	-1.01
1096.308	3.59
1096.727	0.19
1097.146	-8.81
1097.566	1.19
1097.985	-4.31
1098.405	-2.11
1098.824	-2.71
1099.243	-5.41
1099.662	-4.01
1100.082	-1.81
1100.501	5.59
1100.92	-5.31
1101.339	-3.21
1101.758	0.79
