Data from 20171114-ORNL-Ar_H_NY_Subt18_08-04-17-349.txt Node
Date: Tue Nov 14 08:04:17 EST 2017
User: Ender
Spectrometer: HR+D1039
Trigger mode: 0
Integration Time (sec): 2.730000E-2
Scans to average: 10
Electric dark correction enabled: true
Nonlinearity correction enabled: false
Boxcar width: 0
XAxis mode: Wavelengths
Number of Pixels in Spectrum: 2048
>>>>>Begin Spectral Data<<<<<
187.836	-3.74
188.309	-3.74
188.782	-3.74
189.255	-1.44
189.728	-5.74
190.201	3.56
190.674	7.56
191.147	-0.04
191.619	-8.24
192.092	0.26
192.565	9.36
193.038	1.16
193.511	0.06
193.984	-0.34
194.456	-2.24
194.929	2.36
195.402	-2.54
195.874	0.06
196.347	1.56
196.82	-0.54
197.292	3.46
197.765	-0.04
198.237	-8.74
198.71	1.96
199.182	-0.44
199.655	6.86
200.127	-1.84
200.6	-1.64
201.072	-5.44
201.544	-4.84
202.017	-4.44
202.489	0.36
202.961	-3.44
203.433	-1.64
203.906	-2.44
204.378	-7.24
204.85	-4.54
205.322	-8.64
205.794	-3.94
206.266	1.26
206.739	-7.74
207.211	6.66
207.683	-3.44
208.155	-6.04
208.627	-6.74
209.099	-1.44
209.57	-11.54
210.042	-2.24
210.514	-3.24
210.986	-1.54
211.458	-7.34
211.93	-5.64
212.402	-0.54
212.873	-9.74
213.345	-9.24
213.817	-8.54
214.288	1.76
214.76	-6.54
215.232	-6.64
215.703	-0.74
216.175	-4.84
216.646	-2.24
217.118	-9.14
217.589	-4.04
218.061	-0.34
218.532	3.86
219.004	-4.84
219.475	-0.64
219.946	-3.74
220.418	-7.24
220.889	2.36
221.36	0.26
221.832	-5.34
222.303	-6.54
222.774	-1.04
223.245	-6.04
223.717	-8.34
224.188	-0.44
224.659	-6.84
225.13	-2.14
225.601	-1.04
226.072	2.56
226.543	-0.64
227.014	-5.14
227.485	-5.04
227.956	-7.64
228.427	-3.04
228.898	0.76
229.369	2.66
229.839	-0.84
230.31	-0.44
230.781	4.86
231.252	-5.14
231.722	-3.04
232.193	1.66
232.664	3.86
233.135	1.36
233.605	-6.54
234.076	0.26
234.546	6.26
235.017	6.26
235.487	1.36
235.958	-0.94
236.428	-5.14
236.899	4.46
237.369	0.96
237.84	1.86
238.31	7.26
238.78	0.96
239.251	1.16
239.721	2.06
240.191	3.96
240.662	2.86
241.132	2.46
241.602	-2.84
242.072	7.76
242.542	8.26
243.013	-0.14
243.483	6.66
243.953	1.36
244.423	2.46
244.893	-2.44
245.363	8.46
245.833	-0.24
246.303	2.36
246.773	8.86
247.243	-0.14
247.712	7.96
248.182	5.36
248.652	4.16
249.122	0.66
249.592	16.46
250.061	23.26
250.531	35.96
251.001	20.16
251.471	22.76
251.94	16.06
252.41	8.86
252.879	4.66
253.349	9.86
253.818	13.76
254.288	1.36
254.757	7.66
255.227	3.86
255.696	9.96
256.166	6.06
256.635	14.36
257.105	11.06
257.574	9.06
258.043	9.66
258.513	7.86
258.982	22.26
259.451	8.36
259.92	16.76
260.389	15.06
260.859	19.56
261.328	8.46
261.797	11.96
262.266	13.76
262.735	10.86
263.204	15.46
263.673	2.16
264.142	5.06
264.611	-5.44
265.08	5.26
265.549	-1.54
266.018	3.06
266.487	-1.84
266.955	-0.94
267.424	-0.44
267.893	6.96
268.362	4.16
268.83	5.96
269.299	9.06
269.768	4.66
270.236	9.16
270.705	5.46
271.174	7.06
271.642	3.96
272.111	6.16
272.579	20.46
273.048	25.16
273.516	29.86
273.985	28.96
274.453	20.66
274.922	21.26
275.39	5.66
275.858	6.46
276.327	13.66
276.795	19.46
277.263	15.96
277.731	31.86
278.2	54.56
278.668	53.76
279.136	47.16
279.604	21.86
280.072	18.56
280.54	11.16
281.008	14.16
281.477	10.86
281.945	7.96
282.413	12.16
282.881	17.36
283.348	4.86
283.816	14.86
284.284	14.46
284.752	18.16
285.22	6.46
285.688	13.26
286.156	22.26
286.623	43.76
287.091	49.96
287.559	28.06
288.026	18.56
288.494	17.56
288.962	5.26
289.429	9.36
289.897	15.86
290.364	14.26
290.832	13.16
291.3	11.56
291.767	17.76
292.234	19.56
292.702	8.46
293.169	14.16
293.637	18.76
294.104	18.26
294.571	8.96
295.039	7.96
295.506	8.46
295.973	18.66
296.44	11.26
296.908	15.26
297.375	17.26
297.842	22.96
298.309	16.46
298.776	20.06
299.243	24.56
299.71	16.36
300.177	25.26
300.644	19.56
301.111	17.16
301.578	27.86
302.045	17.36
302.512	18.36
302.979	26.96
303.446	22.56
303.913	24.46
304.379	13.36
304.846	26.26
305.313	21.86
305.78	12.36
306.246	25.26
306.713	24.76
307.18	25.96
307.646	25.16
308.113	32.36
308.579	24.16
309.046	25.46
309.512	26.26
309.979	19.76
310.445	26.96
310.912	22.76
311.378	29.46
311.845	29.66
312.311	24.16
312.777	21.26
313.244	25.66
313.71	30.66
314.176	28.46
314.642	28.36
315.109	23.36
315.575	28.36
316.041	36.26
316.507	26.06
316.973	37.36
317.439	28.46
317.905	33.16
318.371	36.96
318.837	30.36
319.303	30.76
319.769	26.66
320.235	22.96
320.701	34.06
321.167	32.06
321.633	31.26
322.099	32.36
322.564	37.06
323.03	37.06
323.496	35.86
323.962	42.06
324.427	34.66
324.893	38.26
325.359	37.56
325.824	38.76
326.29	35.06
326.755	39.46
327.221	39.36
327.686	38.86
328.152	40.96
328.617	37.76
329.083	47.96
329.548	48.16
330.014	42.06
330.479	38.26
330.944	39.66
331.41	36.56
331.875	44.66
332.34	42.06
332.805	44.36
333.271	42.16
333.736	37.56
334.201	55.06
334.666	41.16
335.131	46.06
335.596	48.86
336.061	39.76
336.526	40.06
336.991	42.86
337.456	51.36
337.921	47.26
338.386	41.36
338.851	41.86
339.316	40.66
339.781	46.76
340.246	52.66
340.711	40.66
341.175	46.16
341.64	42.16
342.105	48.86
342.569	58.56
343.034	50.46
343.499	54.26
343.963	45.46
344.428	56.86
344.893	54.26
345.357	51.36
345.822	57.06
346.286	56.26
346.751	62.16
347.215	62.06
347.679	63.86
348.144	80.96
348.608	72.46
349.073	65.26
349.537	67.96
350.001	70.36
350.465	75.46
350.93	75.56
351.394	73.96
351.858	64.26
352.322	78.16
352.786	70.86
353.25	87.76
353.715	99.76
354.179	82.46
354.643	102.16
355.107	109.46
355.571	91.66
356.035	93.26
356.498	102.96
356.962	108.96
357.426	109.66
357.89	99.76
358.354	83.56
358.818	77.56
359.281	68.26
359.745	70.06
360.209	67.96
360.673	67.16
361.136	71.26
361.6	77.76
362.064	74.86
362.527	76.56
362.991	78.96
363.454	72.76
363.918	68.06
364.381	79.26
364.845	73.36
365.308	71.36
365.772	77.16
366.235	73.86
366.698	73.76
367.162	76.06
367.625	76.66
368.088	80.06
368.552	78.56
369.015	78.66
369.478	85.26
369.941	84.86
370.404	81.26
370.867	95.46
371.331	92.76
371.794	100.86
372.257	93.06
372.72	99.06
373.183	99.66
373.646	95.36
374.109	94.86
374.572	93.76
375.035	96.16
375.497	96.66
375.96	88.06
376.423	96.66
376.886	97.26
377.349	94.56
377.811	90.76
378.274	94.26
378.737	89.56
379.199	97.46
379.662	96.76
380.125	102.76
380.587	107.06
381.05	109.86
381.512	111.96
381.975	119.66
382.437	117.16
382.9	110.26
383.362	115.56
383.825	125.56
384.287	126.16
384.75	122.66
385.212	130.36
385.674	124.66
386.136	115.06
386.599	117.56
387.061	117.06
387.523	115.66
387.985	114.76
388.447	123.76
388.91	120.06
389.372	144.36
389.834	136.16
390.296	130.46
390.758	132.56
391.22	159.06
391.682	182.36
392.144	265.36
392.606	210.36
393.068	146.76
393.529	142.96
393.991	129.16
394.453	130.96
394.915	134.06
395.377	167.66
395.838	185.76
396.3	142.86
396.762	132.96
397.224	114.36
397.685	117.96
398.147	116.26
398.608	114.36
399.07	109.66
399.531	118.86
399.993	123.06
400.454	136.46
400.916	130.66
401.377	129.96
401.839	137.66
402.3	132.16
402.762	154.86
403.223	155.06
403.684	155.66
404.145	140.66
404.607	141.16
405.068	145.46
405.529	146.86
405.99	152.36
406.451	149.86
406.913	151.16
407.374	138.66
407.835	144.16
408.296	150.66
408.757	147.26
409.218	159.66
409.679	159.86
410.14	161.06
410.601	160.76
411.062	166.16
411.522	172.36
411.983	170.66
412.444	157.56
412.905	159.36
413.366	162.16
413.826	166.56
414.287	190.26
414.748	234.46
415.208	222.16
415.669	190.56
416.13	179.46
416.59	184.06
417.051	190.16
417.511	194.56
417.972	209.86
418.432	220.06
418.893	262.56
419.353	225.96
419.814	175.66
420.274	163.86
420.734	157.76
421.195	174.36
421.655	167.16
422.115	172.96
422.576	167.56
423.036	173.16
423.496	181.26
423.956	186.66
424.416	203.56
424.876	235.76
425.336	232.36
425.797	233.06
426.257	219.16
426.717	208.86
427.177	209.06
427.637	191.76
428.097	204.16
428.556	219.36
429.016	234.76
429.476	232.16
429.936	243.06
430.396	239.66
430.856	245.56
431.315	272.36
431.775	300.86
432.235	336.36
432.694	308.56
433.154	306.46
433.614	333.06
434.073	292.16
434.533	248.36
434.993	235.16
435.452	247.96
435.912	251.96
436.371	249.76
436.83	244.76
437.29	235.26
437.749	214.56
438.209	207.86
438.668	236.26
439.127	246.16
439.587	228.96
440.046	218.36
440.505	218.56
440.964	235.26
441.424	271.46
441.883	269.66
442.342	221.86
442.801	197.96
443.26	197.96
443.719	187.16
444.178	189.66
444.637	182.26
445.096	195.06
445.555	198.66
446.014	195.46
446.473	201.96
446.932	204.66
447.391	196.76
447.849	201.36
448.308	195.66
448.767	194.06
449.226	210.36
449.685	200.66
450.143	221.26
450.602	209.46
451.061	200.26
451.519	202.16
451.978	204.46
452.436	207.66
452.895	213.36
453.353	218.46
453.812	210.36
454.27	211.96
454.729	213.76
455.187	206.56
455.646	216.36
456.104	216.86
456.562	228.56
457.021	225.26
457.479	223.66
457.937	228.86
458.395	232.76
458.854	217.16
459.312	222.86
459.77	230.66
460.228	222.46
460.686	215.16
461.144	224.66
461.602	216.96
462.06	213.66
462.518	218.26
462.976	226.76
463.434	229.86
463.892	230.46
464.35	239.96
464.808	253.06
465.266	233.06
465.724	241.36
466.181	239.06
466.639	240.76
467.097	257.26
467.555	261.16
468.012	268.06
468.47	274.46
468.928	288.96
469.385	295.16
469.843	307.26
470.3	307.46
470.758	308.36
471.215	320.96
471.673	353.76
472.13	349.46
472.588	358.56
473.045	325.16
473.503	329.36
473.96	344.06
474.417	349.16
474.875	381.66
475.332	416.46
475.789	403.56
476.246	412.16
476.704	428.76
477.161	439.16
477.618	452.36
478.075	488.16
478.532	533.96
478.989	599.26
479.446	692.86
479.903	676.26
480.36	715.76
480.817	767.76
481.274	860.16
481.731	960.06
482.188	1035.86
482.645	1159.86
483.102	1262.16
483.558	1381.16
484.015	1431.36
484.472	1422.26
484.929	1379.16
485.385	1325.46
485.842	1281.36
486.299	1221.76
486.755	1149.56
487.212	975.06
487.668	830.86
488.125	765.26
488.582	700.76
489.038	670.36
489.494	640.66
489.951	616.46
490.407	588.36
490.864	570.96
491.32	561.86
491.776	568.16
492.233	567.76
492.689	532.46
493.145	538.06
493.602	529.96
494.058	539.96
494.514	542.76
494.97	555.56
495.426	558.66
495.882	551.16
496.338	543.96
496.794	552.96
497.251	542.76
497.707	559.86
498.163	560.06
498.618	567.36
499.074	570.36
499.53	590.86
499.986	597.66
500.442	574.66
500.898	557.96
501.354	553.56
501.809	555.66
502.265	565.56
502.721	579.56
503.177	601.36
503.632	586.96
504.088	595.16
504.543	628.36
504.999	623.06
505.455	584.46
505.91	555.76
506.366	563.56
506.821	547.86
507.277	552.46
507.732	555.36
508.187	551.06
508.643	564.16
509.098	559.66
509.553	585.66
510.009	585.96
510.464	583.16
510.919	610.76
511.375	610.96
511.83	614.96
512.285	630.86
512.74	659.46
513.195	690.06
513.65	676.26
514.105	684.46
514.56	682.36
515.015	700.46
515.47	716.56
515.925	700.76
516.38	708.16
516.835	700.86
517.29	690.76
517.745	692.06
518.2	678.66
518.655	661.26
519.109	657.76
519.564	652.96
520.019	645.96
520.474	643.86
520.928	632.46
521.383	629.26
521.838	632.26
522.292	633.16
522.747	622.96
523.201	622.56
523.656	610.16
524.11	607.66
524.565	601.86
525.019	603.06
525.474	620.16
525.928	613.26
526.382	614.56
526.837	612.36
527.291	608.06
527.745	614.36
528.2	618.66
528.654	607.76
529.108	602.96
529.562	602.76
530.016	597.36
530.47	605.86
530.925	605.66
531.379	617.16
531.833	617.66
532.287	620.26
532.741	608.06
533.195	611.56
533.649	635.06
534.103	633.56
534.556	618.76
535.01	621.26
535.464	623.16
535.918	632.56
536.372	631.06
536.826	626.06
537.279	619.06
537.733	627.16
538.187	622.46
538.64	620.86
539.094	635.56
539.548	629.66
540.001	627.56
540.455	616.86
540.908	628.26
541.362	642.06
541.815	656.86
542.269	660.36
542.722	657.66
543.175	669.46
543.629	674.86
544.082	678.76
544.536	687.46
544.989	677.96
545.442	694.96
545.895	676.76
546.349	679.46
546.802	685.46
547.255	696.36
547.708	694.36
548.161	711.76
548.614	707.76
549.067	719.16
549.52	706.96
549.973	701.06
550.426	709.96
550.879	678.96
551.332	686.96
551.785	696.36
552.238	694.16
552.691	709.16
553.144	723.06
553.596	729.26
554.049	737.66
554.502	772.46
554.955	790.96
555.407	790.76
555.86	784.26
556.313	770.36
556.765	753.66
557.218	766.56
557.67	759.16
558.123	752.26
558.576	751.06
559.028	758.66
559.48	751.26
559.933	756.36
560.385	720.66
560.838	697.56
561.29	680.66
561.742	669.36
562.195	656.86
562.647	650.76
563.099	668.36
563.551	651.26
564.004	672.36
564.456	663.66
564.908	654.46
565.36	635.56
565.812	629.06
566.264	622.86
566.716	624.06
567.168	606.96
567.62	623.06
568.072	601.76
568.524	595.56
568.976	591.36
569.428	576.26
569.88	578.66
570.332	579.76
570.784	582.86
571.235	581.96
571.687	591.66
572.139	592.16
572.59	605.46
573.042	605.66
573.494	600.16
573.945	601.96
574.397	588.56
574.849	592.56
575.3	582.66
575.752	583.96
576.203	581.06
576.655	581.36
577.106	567.46
577.557	559.16
578.009	563.56
578.46	559.66
578.912	564.96
579.363	563.86
579.814	562.16
580.265	560.26
580.717	566.96
581.168	564.76
581.619	578.66
582.07	579.46
582.521	563.76
582.972	559.16
583.423	571.66
583.875	577.96
584.326	592.16
584.777	619.16
585.227	697.36
585.678	780.76
586.129	871.06
586.58	927.16
587.031	1003.86
587.482	1162.06
587.933	1334.76
588.384	1148.26
588.834	837.66
589.285	685.36
589.736	649.26
590.186	647.36
590.637	649.96
591.088	619.66
591.538	610.76
591.989	605.66
592.439	616.26
592.89	597.76
593.34	604.66
593.791	593.76
594.241	588.86
594.692	586.16
595.142	586.76
595.593	584.36
596.043	585.76
596.493	590.96
596.943	594.66
597.394	603.76
597.844	599.66
598.294	605.86
598.744	628.76
599.195	647.46
599.645	679.86
600.095	699.86
600.545	752.26
600.995	802.66
601.445	863.16
601.895	914.66
602.345	956.56
602.795	930.46
603.245	894.26
603.695	845.56
604.145	797.86
604.594	761.06
605.044	714.36
605.494	667.66
605.944	625.66
606.393	619.46
606.843	599.46
607.293	600.56
607.743	602.86
608.192	612.56
608.642	628.36
609.091	626.76
609.541	644.66
609.99	640.56
610.44	625.46
610.889	591.76
611.339	574.66
611.788	568.06
612.238	580.26
612.687	599.96
613.136	595.26
613.586	606.86
614.035	617.76
614.484	630.46
614.933	627.06
615.383	623.36
615.832	605.66
616.281	593.26
616.73	562.56
617.179	541.16
617.628	534.56
618.077	508.66
618.526	508.06
618.975	503.26
619.424	507.46
619.873	498.46
620.322	497.56
620.771	493.56
621.22	501.36
621.669	484.16
622.118	481.86
622.567	468.26
623.015	468.26
623.464	465.56
623.913	450.46
624.361	449.56
624.81	456.66
625.259	445.76
625.707	454.06
626.156	458.36
626.604	459.06
627.053	464.16
627.501	461.06
627.95	465.76
628.398	478.36
628.847	465.76
629.295	462.86
629.744	463.66
630.192	461.06
630.64	467.26
631.089	461.36
631.537	470.06
631.985	473.86
632.433	487.86
632.881	488.96
633.33	527.16
633.778	513.76
634.226	463.76
634.674	467.16
635.122	465.86
635.57	478.46
636.018	507.36
636.466	467.66
636.914	454.46
637.362	467.96
637.81	467.66
638.258	473.06
638.705	461.96
639.153	491.76
639.601	493.46
640.049	519.06
640.497	539.86
640.944	567.76
641.392	518.16
641.84	494.16
642.287	478.06
642.735	464.56
643.182	466.06
643.63	465.36
644.078	471.36
644.525	470.56
644.973	481.46
645.42	481.26
645.867	501.56
646.315	514.56
646.762	534.96
647.21	553.96
647.657	583.86
648.104	605.56
648.551	632.26
648.999	677.16
649.446	736.96
649.893	805.66
650.34	931.66
650.787	1101.36
651.234	1371.96
651.682	1771.46
652.129	2445.06
652.576	3508.46
653.023	5222.26
653.47	7234.56
653.917	9173.06
654.363	10769.46
654.81	12193.06
655.257	11559.76
655.704	7449.86
656.151	4341.06
656.598	2805.06
657.044	1978.76
657.491	1520.46
657.938	1209.06
658.385	1015.56
658.831	878.96
659.278	776.76
659.724	688.86
660.171	638.06
660.618	583.76
661.064	544.06
661.511	525.96
661.957	515.16
662.404	500.36
662.85	521.86
663.296	490.66
663.743	444.56
664.189	431.86
664.635	432.26
665.082	415.56
665.528	421.66
665.974	412.96
666.42	409.86
666.867	409.16
667.313	388.46
667.759	383.66
668.205	383.56
668.651	388.76
669.097	386.56
669.543	408.46
669.989	382.56
670.435	361.46
670.881	356.06
671.327	358.56
671.773	374.16
672.219	389.86
672.665	431.36
673.11	462.66
673.556	496.66
674.002	533.76
674.448	518.66
674.893	440.16
675.339	383.46
675.785	353.26
676.23	333.26
676.676	315.06
677.122	303.36
677.567	299.56
678.013	292.16
678.458	278.06
678.904	283.16
679.349	270.86
679.794	280.76
680.24	281.36
680.685	269.86
681.131	271.26
681.576	280.56
682.021	284.96
682.466	279.16
682.912	276.06
683.357	272.46
683.802	298.66
684.247	321.56
684.692	357.46
685.137	391.96
685.583	424.56
686.028	453.26
686.473	410.66
686.918	349.96
687.363	323.96
687.807	313.96
688.252	284.36
688.697	288.26
689.142	259.16
689.587	260.46
690.032	260.66
690.477	261.96
690.921	275.46
691.366	296.06
691.811	314.66
692.255	339.76
692.7	358.26
693.145	387.36
693.589	525.26
694.034	864.86
694.478	1205.56
694.923	1392.26
695.367	1851.66
695.812	962.16
696.256	392.76
696.701	289.26
697.145	272.46
697.59	261.36
698.034	249.56
698.478	262.06
698.922	254.06
699.367	258.56
699.811	266.36
700.255	282.46
700.699	297.36
701.143	321.76
701.588	369.56
702.032	413.96
702.476	409.56
702.92	387.06
703.364	379.66
703.808	495.36
704.252	798.26
704.696	1139.46
705.14	1350.86
705.584	1745.06
706.027	848.56
706.471	413.56
706.915	306.46
707.359	277.96
707.803	244.56
708.246	237.36
708.69	246.76
709.134	244.36
709.577	243.56
710.021	247.76
710.465	232.36
710.908	237.66
711.352	228.56
711.795	247.06
712.239	268.66
712.682	295.96
713.126	326.06
713.569	377.26
714.012	301.76
714.456	258.36
714.899	239.86
715.342	214.66
715.786	205.86
716.229	201.56
716.672	199.76
717.115	194.46
717.558	192.16
718.002	195.76
718.445	203.56
718.888	216.76
719.331	231.96
719.774	247.26
720.217	247.86
720.66	223.36
721.103	205.66
721.546	194.96
721.989	197.36
722.432	182.06
722.874	190.66
723.317	185.66
723.76	181.46
724.203	197.86
724.645	245.26
725.088	342.76
725.531	450.86
725.974	523.06
726.416	440.56
726.859	242.46
727.301	188.76
727.744	184.46
728.187	180.66
728.629	186.86
729.071	190.56
729.514	207.16
729.956	213.36
730.399	223.66
730.841	219.46
731.283	198.96
731.726	205.56
732.168	202.56
732.61	206.86
733.053	219.86
733.495	239.86
733.937	268.86
734.379	303.96
734.821	327.06
735.263	410.96
735.705	627.86
736.148	1187.46
736.59	2004.26
737.032	2484.66
737.474	2032.46
737.916	644.56
738.357	342.96
738.799	255.86
739.241	233.56
739.683	217.36
740.125	231.76
740.567	230.26
741.008	246.26
741.45	242.46
741.892	243.16
742.334	274.26
742.775	285.06
743.217	270.06
743.658	206.26
744.1	198.26
744.542	203.16
744.983	241.56
745.425	271.86
745.866	274.36
746.307	223.26
746.749	220.56
747.19	253.66
747.632	348.16
748.073	656.66
748.514	1420.46
748.956	2263.66
749.397	2827.76
749.838	2345.76
750.279	2432.66
750.72	1209.06
751.162	434.36
751.603	251.06
752.044	191.26
752.485	170.76
752.926	160.56
753.367	157.06
753.808	155.06
754.249	147.56
754.69	141.66
755.131	140.56
755.572	137.46
756.013	138.16
756.453	139.46
756.894	143.96
757.335	146.96
757.776	147.66
758.216	150.86
758.657	156.06
759.098	154.26
759.538	178.46
759.979	207.26
760.42	285.96
760.86	527.56
761.301	1362.16
761.741	3419.16
762.182	5320.56
762.622	3745.56
763.063	1049.66
763.503	425.36
763.943	271.36
764.384	266.86
764.824	337.06
765.264	379.36
765.705	251.76
766.145	164.76
766.585	146.46
767.025	139.96
767.465	144.96
767.906	187.86
768.346	269.96
768.786	289.16
769.226	212.96
769.666	248.96
770.106	461.26
770.546	1179.46
770.986	2141.46
771.426	1944.06
771.866	636.66
772.306	253.16
772.745	162.36
773.185	140.16
773.625	138.16
774.065	125.56
774.505	155.16
774.944	237.86
775.384	527.96
775.824	1018.56
776.263	1023.26
776.703	421.26
777.142	176.76
777.582	122.26
778.021	110.96
778.461	104.96
778.9	113.66
779.34	107.06
779.779	93.16
780.219	89.36
780.658	87.76
781.097	87.26
781.537	92.26
781.976	88.16
782.415	85.16
782.855	85.26
783.294	78.26
783.733	80.16
784.172	85.56
784.611	74.86
785.05	90.26
785.489	87.66
785.928	97.26
786.367	95.26
786.806	91.86
787.245	104.16
787.684	108.16
788.123	114.26
788.562	99.36
789.001	100.86
789.44	94.96
789.879	89.06
790.317	86.96
790.756	100.26
791.195	96.26
791.634	110.26
792.072	154.46
792.511	278.46
792.95	755.16
793.388	1708.36
793.827	1605.96
794.265	539.56
794.704	216.16
795.142	140.06
795.581	121.66
796.019	113.06
796.458	100.36
796.896	92.66
797.334	99.76
797.773	116.96
798.211	176.46
798.649	329.46
799.087	780.46
799.526	1252.66
799.964	1588.76
800.402	1653.56
800.84	612.26
801.278	234.76
801.716	145.56
802.154	125.76
802.592	108.56
803.03	105.86
803.468	100.56
803.906	111.56
804.344	113.06
804.782	110.96
805.22	97.66
805.658	102.96
806.096	117.66
806.533	123.06
806.971	132.76
807.409	168.36
807.847	240.96
808.284	494.26
808.722	1422.66
809.16	2668.16
809.597	2435.06
810.035	4346.56
810.472	4866.66
810.91	1719.26
811.347	637.26
811.785	319.36
812.222	201.86
812.66	148.26
813.097	130.06
813.535	111.66
813.972	106.86
814.409	93.46
814.846	85.16
815.284	84.76
815.721	83.66
816.158	87.56
816.595	90.16
817.032	140.56
817.47	159.56
817.907	144.66
818.344	121.86
818.781	97.36
819.218	79.26
819.655	95.86
820.092	157.26
820.529	177.56
820.966	151.36
821.403	107.96
821.839	90.76
822.276	80.86
822.713	92.66
823.15	104.26
823.587	88.46
824.023	110.66
824.46	224.56
824.897	699.36
825.333	1108.46
825.77	469.16
826.206	189.66
826.643	106.86
827.08	78.16
827.516	65.06
827.953	60.66
828.389	60.76
828.825	53.86
829.262	51.16
829.698	57.56
830.135	42.56
830.571	41.26
831.007	46.06
831.443	49.16
831.88	48.96
832.316	53.76
832.752	49.76
833.188	52.06
833.624	47.66
834.06	48.66
834.497	48.36
834.933	59.26
835.369	58.66
835.805	55.16
836.241	60.76
836.677	56.96
837.112	69.06
837.548	77.96
837.984	97.46
838.42	157.46
838.856	378.66
839.292	1191.36
839.727	1903.66
840.163	874.26
840.599	717.66
841.034	1617.26
841.47	1783.36
841.906	632.66
842.341	265.46
842.777	176.36
843.212	262.86
843.648	265.26
844.083	120.76
844.519	76.16
844.954	62.46
845.39	50.56
845.825	45.56
846.261	44.26
846.696	44.16
847.131	36.86
847.566	46.06
848.002	44.56
848.437	38.46
848.872	49.66
849.307	41.46
849.742	63.36
850.177	136.06
850.613	428.86
851.048	708.26
851.483	304.76
851.918	122.36
852.353	65.76
852.788	42.46
853.223	47.26
853.657	43.96
854.092	38.86
854.527	38.96
854.962	27.26
855.397	36.66
855.832	41.36
856.266	34.46
856.701	30.16
857.136	28.76
857.57	34.26
858.005	39.16
858.44	50.56
858.874	33.76
859.309	38.36
859.743	33.26
860.178	39.76
860.612	33.26
861.047	39.26
861.481	58.56
861.915	58.86
862.35	41.96
862.784	28.16
863.218	32.86
863.653	27.36
864.087	34.46
864.521	41.26
864.955	55.66
865.39	125.26
865.824	138.06
866.258	92.56
866.692	133.36
867.126	149.46
867.56	88.66
867.994	47.36
868.428	29.56
868.862	36.66
869.296	42.86
869.73	43.46
870.164	40.36
870.598	36.46
871.031	27.06
871.465	17.96
871.899	27.16
872.333	16.46
872.766	20.86
873.2	13.26
873.634	24.26
874.067	25.76
874.501	16.56
874.935	27.76
875.368	24.66
875.802	17.56
876.235	14.96
876.669	19.76
877.102	19.66
877.535	20.36
877.969	14.86
878.402	19.86
878.836	14.16
879.269	14.76
879.702	13.86
880.135	17.56
880.569	16.06
881.002	20.96
881.435	17.46
881.868	14.46
882.301	21.36
882.734	13.86
883.167	19.56
883.601	16.56
884.034	15.46
884.467	7.66
884.899	12.56
885.332	14.16
885.765	6.06
886.198	10.46
886.631	13.76
887.064	16.96
887.497	15.96
887.929	20.26
888.362	4.96
888.795	8.16
889.228	13.66
889.66	14.76
890.093	14.46
890.526	12.26
890.958	14.66
891.391	10.46
891.823	20.46
892.256	6.46
892.688	10.26
893.121	14.16
893.553	15.16
893.985	11.76
894.418	15.26
894.85	8.66
895.282	12.76
895.715	14.76
896.147	14.36
896.579	16.16
897.011	11.96
897.444	14.26
897.876	7.36
898.308	11.66
898.74	8.96
899.172	11.86
899.604	18.46
900.036	15.36
900.468	13.56
900.9	9.06
901.332	8.36
901.764	5.86
902.196	13.76
902.628	13.06
903.06	9.16
903.491	21.96
903.923	20.66
904.355	17.76
904.787	24.36
905.218	17.26
905.65	19.66
906.082	7.86
906.513	6.86
906.945	8.86
907.376	15.76
907.808	14.86
908.239	18.36
908.671	13.56
909.102	14.66
909.534	14.16
909.965	36.76
910.397	78.36
910.828	262.96
911.259	396.26
911.691	174.46
912.122	81.86
912.553	42.76
912.984	27.56
913.415	19.36
913.847	19.36
914.278	17.56
914.709	13.56
915.14	16.06
915.571	16.76
916.002	8.66
916.433	21.76
916.864	15.06
917.295	8.46
917.726	15.36
918.157	8.26
918.587	24.76
919.018	17.96
919.449	19.56
919.88	16.66
920.311	24.76
920.741	37.96
921.172	131.36
921.603	120.56
922.033	53.26
922.464	40.66
922.895	18.26
923.325	21.96
923.756	16.96
924.186	11.36
924.617	20.26
925.047	33.46
925.478	45.06
925.908	40.16
926.338	22.56
926.769	18.66
927.199	16.06
927.629	10.16
928.06	17.56
928.49	13.16
928.92	8.46
929.35	6.86
929.78	10.06
930.21	6.26
930.641	2.76
931.071	6.96
931.501	-1.44
931.931	6.86
932.361	8.16
932.791	9.66
933.221	4.86
933.651	3.86
934.08	15.06
934.51	20.56
934.94	10.36
935.37	5.46
935.8	5.46
936.229	7.06
936.659	9.36
937.089	0.56
937.519	11.36
937.948	16.36
938.378	16.86
938.807	7.06
939.237	3.06
939.666	12.56
940.096	-4.74
940.525	2.46
940.955	3.26
941.384	1.16
941.814	-5.44
942.243	0.46
942.672	4.36
943.102	-6.84
943.531	0.06
943.96	2.46
944.39	2.16
944.819	1.46
945.248	4.46
945.677	3.36
946.106	2.56
946.535	6.86
946.964	-1.14
947.393	5.66
947.822	-2.04
948.251	-4.34
948.68	1.86
949.109	6.66
949.538	4.56
949.967	-0.44
950.396	3.46
950.825	-2.84
951.254	4.96
951.682	-6.24
952.111	1.56
952.54	3.96
952.969	-5.24
953.397	-5.54
953.826	-0.54
954.254	-3.54
954.683	-2.74
955.112	-6.84
955.54	-3.54
955.969	-0.04
956.397	2.56
956.826	-3.24
957.254	5.46
957.682	-1.64
958.111	4.86
958.539	5.46
958.967	1.66
959.396	-2.74
959.824	0.96
960.252	0.16
960.68	-5.54
961.109	-3.54
961.537	-4.74
961.965	-2.74
962.393	-1.24
962.821	4.16
963.249	5.06
963.677	5.46
964.105	9.46
964.533	36.86
964.961	32.56
965.389	14.66
965.817	5.76
966.245	0.86
966.672	-3.74
967.1	-5.14
967.528	1.36
967.956	-3.64
968.383	6.76
968.811	-4.14
969.239	0.36
969.666	-5.04
970.094	-0.64
970.522	-2.54
970.949	-0.64
971.377	-2.94
971.804	-1.14
972.232	-1.04
972.659	-7.84
973.087	-5.24
973.514	-0.84
973.941	-8.34
974.369	-0.94
974.796	4.86
975.223	1.76
975.651	-0.24
976.078	2.46
976.505	-1.34
976.932	-0.44
977.359	9.46
977.786	13.56
978.214	2.76
978.641	-2.84
979.068	1.56
979.495	-3.34
979.922	0.16
980.349	-5.04
980.776	6.96
981.202	-3.24
981.629	-1.04
982.056	0.56
982.483	-3.34
982.91	-0.14
983.337	-10.04
983.763	2.26
984.19	-6.44
984.617	-3.94
985.043	-7.64
985.47	-1.04
985.897	-2.54
986.323	-6.84
986.75	3.66
987.176	-1.04
987.603	-0.74
988.029	-5.54
988.456	-4.34
988.882	0.26
989.308	-6.34
989.735	-3.44
990.161	3.76
990.587	0.66
991.014	-4.44
991.44	10.16
991.866	-0.84
992.292	-5.04
992.719	-4.74
993.145	4.56
993.571	-13.74
993.997	-0.34
994.423	0.36
994.849	-7.54
995.275	7.46
995.701	3.96
996.127	-8.24
996.553	1.76
996.979	-0.24
997.405	0.76
997.83	-6.44
998.256	-2.64
998.682	-3.94
999.108	-10.94
999.534	-1.14
999.959	-6.34
1000.385	-3.64
1000.811	-2.64
1001.236	-5.74
1001.662	-3.94
1002.087	-9.24
1002.513	2.56
1002.938	-2.24
1003.364	1.16
1003.789	3.16
1004.215	0.76
1004.64	-6.54
1005.066	2.76
1005.491	-0.04
1005.916	-10.34
1006.342	-11.34
1006.767	-10.14
1007.192	-2.24
1007.617	-1.14
1008.042	-6.94
1008.468	-2.24
1008.893	-6.54
1009.318	-2.74
1009.743	1.36
1010.168	1.66
1010.593	-1.64
1011.018	-7.64
1011.443	-1.94
1011.868	2.36
1012.293	2.76
1012.718	-3.94
1013.143	1.96
1013.567	-1.84
1013.992	-1.64
1014.417	-11.14
1014.842	5.26
1015.267	-0.44
1015.691	-6.54
1016.116	10.06
1016.541	2.26
1016.965	5.86
1017.39	1.76
1017.814	0.26
1018.239	-2.04
1018.663	1.86
1019.088	-8.84
1019.512	1.16
1019.937	1.56
1020.361	-10.04
1020.785	-13.44
1021.21	-1.64
1021.634	-5.14
1022.058	-6.24
1022.483	-0.24
1022.907	-7.34
1023.331	-5.74
1023.755	-4.54
1024.179	0.86
1024.604	-3.64
1025.028	-9.54
1025.452	-8.14
1025.876	-4.24
1026.3	2.26
1026.724	-16.84
1027.148	-0.74
1027.572	-3.94
1027.996	-8.44
1028.42	-0.14
1028.843	-1.14
1029.267	-11.74
1029.691	-10.24
1030.115	-6.64
1030.539	-7.04
1030.962	-3.54
1031.386	-6.74
1031.81	-4.44
1032.233	-0.54
1032.657	-0.34
1033.08	-0.44
1033.504	-2.94
1033.927	1.16
1034.351	-4.04
1034.774	-6.84
1035.198	-6.34
1035.621	-2.34
1036.045	-6.94
1036.468	-0.74
1036.891	-4.84
1037.315	-4.64
1037.738	-10.44
1038.161	0.76
1038.584	-4.34
1039.008	-1.14
1039.431	-3.14
1039.854	-3.44
1040.277	-9.84
1040.7	-13.64
1041.123	-0.64
1041.546	-9.64
1041.969	-3.94
1042.392	-4.84
1042.815	3.36
1043.238	-4.24
1043.661	5.16
1044.084	-5.44
1044.507	-9.14
1044.93	-8.34
1045.352	-6.14
1045.775	-5.14
1046.198	-3.84
1046.621	-1.64
1047.043	-0.54
1047.466	1.26
1047.889	-5.84
1048.311	-5.84
1048.734	-1.64
1049.156	-1.94
1049.579	-4.44
1050.001	-6.74
1050.424	-0.04
1050.846	-7.34
1051.269	0.46
1051.691	-10.04
1052.113	-2.04
1052.536	-0.84
1052.958	-1.14
1053.38	-0.94
1053.802	-9.44
1054.225	-2.04
1054.647	-6.54
1055.069	-6.94
1055.491	2.86
1055.913	-9.34
1056.335	-2.04
1056.757	0.96
1057.179	-2.44
1057.601	-1.84
1058.023	-4.54
1058.445	-6.44
1058.867	-0.54
1059.289	-1.74
1059.711	-6.64
1060.133	-9.24
1060.555	-11.14
1060.976	-7.04
1061.398	-5.84
1061.82	-5.74
1062.241	-0.04
1062.663	-9.74
1063.085	-13.04
1063.506	-1.14
1063.928	-6.04
1064.35	-3.94
1064.771	-5.54
1065.193	-4.04
1065.614	-10.74
1066.035	-2.84
1066.457	-9.74
1066.878	-0.24
1067.3	-3.34
1067.721	-3.84
1068.142	-2.44
1068.564	-1.24
1068.985	-4.64
1069.406	-3.04
1069.827	-6.04
1070.248	1.26
1070.67	-4.74
1071.091	-10.04
1071.512	-3.04
1071.933	-6.44
1072.354	-9.44
1072.775	-7.24
1073.196	-7.34
1073.617	-0.24
1074.038	-10.44
1074.459	-4.94
1074.88	-11.24
1075.3	-4.44
1075.721	-7.04
1076.142	-4.14
1076.563	4.06
1076.983	-11.34
1077.404	-8.74
1077.825	-11.74
1078.246	-3.94
1078.666	-16.74
1079.087	-7.74
1079.507	-8.04
1079.928	2.56
1080.348	0.36
1080.769	-3.94
1081.189	-0.84
1081.61	-3.24
1082.03	-9.84
1082.451	-8.24
1082.871	-3.54
1083.291	-3.54
1083.711	-6.74
1084.132	-8.64
1084.552	-5.84
1084.972	-1.04
1085.392	-12.74
1085.813	-11.24
1086.233	-6.04
1086.653	-10.34
1087.073	-2.54
1087.493	-13.54
1087.913	-6.24
1088.333	-5.94
1088.753	2.66
1089.173	-2.64
1089.593	-3.14
1090.013	-0.44
1090.433	0.76
1090.852	-5.54
1091.272	3.06
1091.692	-3.24
1092.112	-4.84
1092.531	-6.44
1092.951	-10.34
1093.371	-1.54
1093.79	-4.74
1094.21	-8.44
1094.63	-8.64
1095.049	-1.24
1095.469	2.16
1095.888	-7.24
1096.308	6.36
1096.727	5.66
1097.146	-6.34
1097.566	-2.44
1097.985	-5.44
1098.405	1.86
1098.824	-9.74
1099.243	-8.94
1099.662	-6.44
1100.082	-1.24
1100.501	6.76
1100.92	-3.64
1101.339	-5.84
1101.758	-4.34
