Data from 20171114-ORNL-Ar_H_NY_Subt18_08-04-10-798.txt Node
Date: Tue Nov 14 08:04:10 EST 2017
User: Ender
Spectrometer: HR+D1039
Trigger mode: 0
Integration Time (sec): 2.730000E-2
Scans to average: 10
Electric dark correction enabled: true
Nonlinearity correction enabled: false
Boxcar width: 0
XAxis mode: Wavelengths
Number of Pixels in Spectrum: 2048
>>>>>Begin Spectral Data<<<<<
187.836	-3.84
188.309	-3.84
188.782	-3.84
189.255	-1.64
189.728	0.76
190.201	2.06
190.674	-1.94
191.147	3.46
191.619	-4.84
192.092	2.66
192.565	-0.94
193.038	3.66
193.511	-0.84
193.984	3.26
194.456	-3.94
194.929	-1.64
195.402	0.36
195.874	3.36
196.347	-1.34
196.82	-8.74
197.292	-0.74
197.765	-0.74
198.237	-5.84
198.71	-5.94
199.182	-5.94
199.655	2.76
200.127	0.86
200.6	-0.24
201.072	-1.14
201.544	-3.84
202.017	-1.14
202.489	3.56
202.961	-6.14
203.433	-0.34
203.906	-8.24
204.378	-9.64
204.85	-4.64
205.322	-8.74
205.794	0.46
206.266	-4.34
206.739	-11.64
207.211	1.26
207.683	-8.04
208.155	-3.64
208.627	-7.64
209.099	-3.34
209.57	-7.24
210.042	-7.34
210.514	-1.34
210.986	-6.04
211.458	-10.94
211.93	-2.04
212.402	2.66
212.873	-2.34
213.345	-9.34
213.817	-18.34
214.288	-4.24
214.76	-14.64
215.232	-3.44
215.703	-0.54
216.175	-5.04
216.646	-3.64
217.118	-6.74
217.589	-5.64
218.061	-1.44
218.532	-6.14
219.004	-0.44
219.475	-4.14
219.946	-3.24
220.418	-1.14
220.889	-0.34
221.36	-5.64
221.832	-5.14
222.303	-8.24
222.774	-0.14
223.245	-7.24
223.717	-6.84
224.188	-3.74
224.659	-4.74
225.13	-6.64
225.601	-1.14
226.072	-5.24
226.543	-5.94
227.014	3.36
227.485	-3.04
227.956	-4.24
228.427	-2.04
228.898	-4.84
229.369	2.96
229.839	-10.44
230.31	-6.74
230.781	0.76
231.252	-2.24
231.722	-8.44
232.193	-0.24
232.664	-0.44
233.135	2.56
233.605	-0.14
234.076	-6.54
234.546	-0.74
235.017	-0.34
235.487	2.46
235.958	-2.14
236.428	-5.64
236.899	1.56
237.369	0.66
237.84	-2.84
238.31	3.66
238.78	-0.74
239.251	0.56
239.721	0.16
240.191	-1.14
240.662	-2.54
241.132	-5.94
241.602	-0.44
242.072	-2.84
242.542	2.16
243.013	-1.34
243.483	3.16
243.953	2.66
244.423	-3.54
244.893	-2.44
245.363	-2.94
245.833	0.76
246.303	-3.24
246.773	4.46
247.243	3.66
247.712	-2.34
248.182	8.86
248.652	4.76
249.122	2.46
249.592	11.46
250.061	19.76
250.531	22.16
251.001	13.76
251.471	14.36
251.94	15.26
252.41	4.36
252.879	-3.94
253.349	13.36
253.818	3.56
254.288	7.06
254.757	2.66
255.227	-2.84
255.696	-2.24
256.166	7.06
256.635	11.66
257.105	12.66
257.574	5.46
258.043	3.96
258.513	8.96
258.982	8.16
259.451	5.06
259.92	12.26
260.389	4.26
260.859	13.96
261.328	9.26
261.797	18.56
262.266	5.66
262.735	7.16
263.204	5.06
263.673	3.46
264.142	-0.64
264.611	-7.74
265.08	-1.84
265.549	-1.44
266.018	4.16
266.487	-0.04
266.955	-2.84
267.424	-1.54
267.893	5.56
268.362	-0.54
268.83	-0.54
269.299	8.56
269.768	3.16
270.236	5.36
270.705	-6.64
271.174	1.66
271.642	0.56
272.111	1.56
272.579	10.36
273.048	15.56
273.516	16.56
273.985	21.16
274.453	15.16
274.922	12.56
275.39	4.86
275.858	2.56
276.327	5.86
276.795	12.16
277.263	6.76
277.731	25.16
278.2	37.76
278.668	44.56
279.136	39.46
279.604	7.66
280.072	10.46
280.54	11.06
281.008	6.06
281.477	9.46
281.945	4.46
282.413	13.26
282.881	14.66
283.348	1.86
283.816	12.36
284.284	11.46
284.752	23.96
285.22	14.46
285.688	14.36
286.156	13.96
286.623	38.96
287.091	43.66
287.559	18.06
288.026	15.96
288.494	11.76
288.962	2.16
289.429	1.96
289.897	13.86
290.364	8.86
290.832	12.96
291.3	11.16
291.767	16.66
292.234	12.26
292.702	2.06
293.169	17.26
293.637	17.76
294.104	17.66
294.571	0.06
295.039	5.66
295.506	13.36
295.973	12.56
296.44	10.36
296.908	15.16
297.375	11.06
297.842	10.26
298.309	13.16
298.776	7.86
299.243	19.66
299.71	5.86
300.177	16.36
300.644	16.56
301.111	11.76
301.578	13.76
302.045	13.36
302.512	20.96
302.979	16.66
303.446	16.06
303.913	11.16
304.379	15.16
304.846	25.06
305.313	18.56
305.78	18.76
306.246	19.96
306.713	21.36
307.18	18.56
307.646	25.26
308.113	22.56
308.579	13.36
309.046	26.86
309.512	18.06
309.979	12.76
310.445	17.16
310.912	20.56
311.378	23.26
311.845	23.96
312.311	25.26
312.777	25.06
313.244	22.16
313.71	28.56
314.176	26.66
314.642	20.36
315.109	23.26
315.575	24.46
316.041	30.46
316.507	28.46
316.973	34.06
317.439	18.96
317.905	32.46
318.371	30.96
318.837	27.96
319.303	29.16
319.769	23.96
320.235	24.86
320.701	28.06
321.167	33.26
321.633	22.36
322.099	32.66
322.564	35.46
323.03	35.16
323.496	28.76
323.962	30.16
324.427	32.66
324.893	32.26
325.359	35.36
325.824	30.26
326.29	32.46
326.755	36.86
327.221	24.86
327.686	31.06
328.152	40.66
328.617	36.36
329.083	38.66
329.548	39.96
330.014	29.66
330.479	31.76
330.944	33.26
331.41	32.86
331.875	37.56
332.34	33.86
332.805	38.76
333.271	37.96
333.736	38.26
334.201	36.66
334.666	39.06
335.131	44.66
335.596	37.76
336.061	42.76
336.526	33.26
336.991	42.66
337.456	44.86
337.921	38.46
338.386	38.26
338.851	35.76
339.316	37.66
339.781	39.36
340.246	49.66
340.711	36.26
341.175	45.06
341.64	34.46
342.105	38.36
342.569	45.26
343.034	50.76
343.499	44.56
343.963	43.76
344.428	56.16
344.893	51.86
345.357	44.46
345.822	51.36
346.286	49.66
346.751	54.96
347.215	55.46
347.679	58.46
348.144	79.36
348.608	63.56
349.073	53.96
349.537	59.06
350.001	64.56
350.465	74.56
350.93	65.16
351.394	69.96
351.858	54.86
352.322	73.06
352.786	61.86
353.25	79.86
353.715	90.46
354.179	76.66
354.643	100.26
355.107	100.56
355.571	87.56
356.035	87.46
356.498	95.16
356.962	95.76
357.426	105.26
357.89	88.06
358.354	72.26
358.818	64.46
359.281	63.06
359.745	69.56
360.209	64.76
360.673	65.76
361.136	63.16
361.6	77.66
362.064	72.86
362.527	71.86
362.991	72.36
363.454	65.06
363.918	67.66
364.381	67.36
364.845	76.06
365.308	70.76
365.772	70.86
366.235	75.96
366.698	68.66
367.162	71.96
367.625	68.86
368.088	79.16
368.552	77.36
369.015	79.46
369.478	82.16
369.941	85.66
370.404	81.76
370.867	86.66
371.331	91.16
371.794	98.86
372.257	91.36
372.72	100.16
373.183	95.26
373.646	87.36
374.109	88.16
374.572	92.66
375.035	91.56
375.497	91.16
375.96	91.46
376.423	87.96
376.886	94.66
377.349	95.76
377.811	91.56
378.274	89.76
378.737	88.96
379.199	95.96
379.662	97.46
380.125	101.46
380.587	99.26
381.05	103.26
381.512	109.56
381.975	119.66
382.437	109.96
382.9	107.66
383.362	117.56
383.825	111.46
384.287	122.46
384.75	121.86
385.212	120.36
385.674	119.26
386.136	120.26
386.599	117.66
387.061	113.56
387.523	118.46
387.985	112.86
388.447	127.36
388.91	124.96
389.372	130.26
389.834	133.86
390.296	120.66
390.758	134.76
391.22	139.86
391.682	175.86
392.144	244.66
392.606	192.96
393.068	143.06
393.529	145.86
393.991	136.76
394.453	129.46
394.915	130.76
395.377	164.16
395.838	179.76
396.3	136.76
396.762	126.96
397.224	118.96
397.685	115.46
398.147	113.06
398.608	120.76
399.07	119.56
399.531	113.06
399.993	123.26
400.454	138.06
400.916	127.26
401.377	131.06
401.839	129.66
402.3	127.96
402.762	145.26
403.223	162.36
403.684	150.86
404.145	138.86
404.607	144.16
405.068	145.66
405.529	151.26
405.99	162.16
406.451	149.56
406.913	150.46
407.374	140.76
407.835	139.36
408.296	151.76
408.757	151.06
409.218	163.66
409.679	152.36
410.14	153.46
410.601	158.36
411.062	164.06
411.522	169.36
411.983	160.06
412.444	149.96
412.905	159.86
413.366	170.66
413.826	169.66
414.287	192.56
414.748	237.06
415.208	229.66
415.669	190.56
416.13	183.56
416.59	181.76
417.051	187.96
417.511	191.76
417.972	213.56
418.432	218.26
418.893	261.56
419.353	228.16
419.814	181.66
420.274	158.36
420.734	159.06
421.195	168.16
421.655	175.56
422.115	169.16
422.576	172.26
423.036	177.26
423.496	176.26
423.956	192.86
424.416	209.96
424.876	236.56
425.336	226.36
425.797	224.66
426.257	222.36
426.717	211.06
427.177	200.86
427.637	201.36
428.097	208.06
428.556	204.66
429.016	237.06
429.476	230.96
429.936	247.76
430.396	246.26
430.856	259.26
431.315	279.26
431.775	298.66
432.235	336.46
432.694	304.76
433.154	310.96
433.614	325.36
434.073	294.06
434.533	243.26
434.993	235.86
435.452	253.96
435.912	253.56
436.371	256.46
436.83	244.76
437.29	237.96
437.749	216.26
438.209	208.96
438.668	230.16
439.127	246.46
439.587	229.96
440.046	215.06
440.505	218.16
440.964	234.96
441.424	272.76
441.883	252.56
442.342	220.76
442.801	193.26
443.26	196.66
443.719	202.46
444.178	193.66
444.637	183.86
445.096	197.16
445.555	195.76
446.014	201.16
446.473	204.76
446.932	200.96
447.391	205.46
447.849	202.56
448.308	194.66
448.767	197.36
449.226	210.96
449.685	214.36
450.143	227.86
450.602	212.26
451.061	204.56
451.519	212.96
451.978	207.76
452.436	214.46
452.895	208.06
453.353	224.46
453.812	212.56
454.27	213.76
454.729	211.46
455.187	206.86
455.646	211.06
456.104	214.06
456.562	228.36
457.021	232.26
457.479	224.66
457.937	235.06
458.395	231.26
458.854	218.86
459.312	224.16
459.77	234.06
460.228	222.06
460.686	212.36
461.144	224.76
461.602	209.96
462.06	209.76
462.518	229.16
462.976	228.56
463.434	228.26
463.892	236.86
464.35	241.16
464.808	252.46
465.266	238.76
465.724	246.56
466.181	248.16
466.639	241.66
467.097	263.16
467.555	269.86
468.012	269.76
468.47	279.76
468.928	295.86
469.385	296.46
469.843	303.46
470.3	301.26
470.758	313.06
471.215	325.46
471.673	343.56
472.13	349.36
472.588	356.56
473.045	331.46
473.503	341.06
473.96	351.26
474.417	357.26
474.875	372.56
475.332	413.76
475.789	393.66
476.246	405.76
476.704	427.56
477.161	446.06
477.618	455.06
478.075	488.96
478.532	534.86
478.989	589.56
479.446	679.96
479.903	678.56
480.36	716.66
480.817	758.36
481.274	858.26
481.731	948.16
482.188	1025.06
482.645	1129.46
483.102	1241.26
483.558	1350.86
484.015	1398.96
484.472	1388.96
484.929	1362.46
485.385	1324.36
485.842	1280.06
486.299	1202.06
486.755	1131.86
487.212	964.76
487.668	826.76
488.125	754.06
488.582	699.76
489.038	671.46
489.494	633.76
489.951	610.26
490.407	598.86
490.864	568.66
491.32	577.76
491.776	570.36
492.233	570.16
492.689	547.86
493.145	530.46
493.602	535.76
494.058	551.86
494.514	551.46
494.97	559.86
495.426	569.86
495.882	549.26
496.338	547.36
496.794	556.26
497.251	542.46
497.707	566.66
498.163	555.16
498.618	572.46
499.074	565.46
499.53	593.96
499.986	591.46
500.442	571.56
500.898	554.36
501.354	556.76
501.809	564.16
502.265	571.76
502.721	587.66
503.177	583.66
503.632	587.26
504.088	599.56
504.543	623.16
504.999	615.86
505.455	581.46
505.91	565.36
506.366	562.46
506.821	554.56
507.277	555.06
507.732	568.36
508.187	552.06
508.643	557.96
509.098	566.26
509.553	568.76
510.009	593.96
510.464	587.26
510.919	610.36
511.375	614.46
511.83	621.96
512.285	632.06
512.74	663.06
513.195	690.96
513.65	678.76
514.105	682.16
514.56	682.36
515.015	698.26
515.47	718.96
515.925	705.86
516.38	690.56
516.835	717.76
517.29	703.86
517.745	697.36
518.2	673.96
518.655	655.36
519.109	669.26
519.564	648.96
520.019	653.86
520.474	644.76
520.928	638.16
521.383	635.56
521.838	629.46
522.292	632.46
522.747	624.16
523.201	625.96
523.656	610.36
524.11	605.96
524.565	613.96
525.019	605.46
525.474	613.46
525.928	621.96
526.382	613.76
526.837	611.36
527.291	613.36
527.745	600.66
528.2	606.36
528.654	604.16
529.108	608.56
529.562	597.76
530.016	607.06
530.47	612.76
530.925	614.36
531.379	611.66
531.833	618.76
532.287	615.46
532.741	607.16
533.195	609.76
533.649	618.06
534.103	627.66
534.556	621.36
535.01	623.16
535.464	622.66
535.918	619.96
536.372	625.96
536.826	620.16
537.279	612.06
537.733	631.96
538.187	620.76
538.64	619.26
539.094	627.96
539.548	632.36
540.001	632.66
540.455	623.46
540.908	633.36
541.362	644.36
541.815	648.96
542.269	658.26
542.722	658.36
543.175	662.56
543.629	668.46
544.082	683.36
544.536	680.16
544.989	676.06
545.442	688.56
545.895	695.86
546.349	687.56
546.802	684.76
547.255	684.26
547.708	692.76
548.161	698.96
548.614	703.56
549.067	708.06
549.52	704.36
549.973	699.36
550.426	692.26
550.879	681.56
551.332	685.76
551.785	694.36
552.238	689.26
552.691	701.26
553.144	705.36
553.596	739.76
554.049	747.06
554.502	765.46
554.955	780.46
555.407	784.46
555.86	772.86
556.313	764.46
556.765	756.86
557.218	764.46
557.67	752.96
558.123	755.16
558.576	742.26
559.028	748.46
559.48	758.76
559.933	754.26
560.385	713.56
560.838	700.66
561.29	663.66
561.742	667.76
562.195	648.56
562.647	652.76
563.099	659.06
563.551	660.86
564.004	667.76
564.456	648.26
564.908	651.66
565.36	635.36
565.812	622.66
566.264	607.76
566.716	612.86
567.168	600.26
567.62	607.66
568.072	588.56
568.524	588.86
568.976	583.76
569.428	569.56
569.88	566.96
570.332	572.96
570.784	576.16
571.235	580.06
571.687	584.26
572.139	588.76
572.59	595.26
573.042	596.46
573.494	594.86
573.945	589.06
574.397	574.96
574.849	584.66
575.3	576.26
575.752	578.06
576.203	568.86
576.655	581.26
577.106	570.86
577.557	558.86
578.009	548.46
578.46	554.86
578.912	556.06
579.363	560.16
579.814	566.56
580.265	557.96
580.717	555.46
581.168	562.36
581.619	563.66
582.07	579.76
582.521	565.46
582.972	565.86
583.423	564.36
583.875	564.16
584.326	579.16
584.777	625.66
585.227	680.56
585.678	764.96
586.129	838.16
586.58	889.86
587.031	964.76
587.482	1100.36
587.933	1263.36
588.384	1083.96
588.834	817.06
589.285	670.66
589.736	642.36
590.186	644.36
590.637	635.96
591.088	611.46
591.538	605.16
591.989	607.06
592.439	599.86
592.89	596.06
593.34	591.86
593.791	590.86
594.241	584.16
594.692	582.66
595.142	577.86
595.593	576.96
596.043	581.96
596.493	582.46
596.943	589.16
597.394	591.16
597.844	593.16
598.294	603.46
598.744	616.36
599.195	635.66
599.645	674.66
600.095	703.26
600.545	756.26
600.995	792.06
601.445	828.36
601.895	889.16
602.345	935.06
602.795	923.86
603.245	889.06
603.695	838.66
604.145	786.06
604.594	751.76
605.044	709.56
605.494	659.86
605.944	619.76
606.393	603.86
606.843	595.16
607.293	593.66
607.743	596.06
608.192	605.16
608.642	612.16
609.091	619.76
609.541	624.26
609.99	617.56
610.44	618.16
610.889	585.06
611.339	574.06
611.788	555.96
612.238	560.96
612.687	579.96
613.136	585.96
613.586	600.16
614.035	584.86
614.484	609.16
614.933	606.96
615.383	606.06
615.832	595.36
616.281	582.56
616.73	560.36
617.179	532.96
617.628	522.66
618.077	510.96
618.526	504.36
618.975	498.06
619.424	495.56
619.873	492.16
620.322	505.06
620.771	486.86
621.22	489.96
621.669	475.46
622.118	481.36
622.567	463.56
623.015	460.76
623.464	456.16
623.913	455.56
624.361	446.26
624.81	436.56
625.259	447.86
625.707	441.26
626.156	448.76
626.604	462.66
627.053	450.06
627.501	451.66
627.95	450.36
628.398	463.66
628.847	448.36
629.295	455.86
629.744	460.26
630.192	463.46
630.64	460.66
631.089	450.66
631.537	462.16
631.985	454.46
632.433	473.06
632.881	473.16
633.33	510.76
633.778	496.26
634.226	444.86
634.674	453.26
635.122	453.06
635.57	477.76
636.018	486.06
636.466	458.06
636.914	443.36
637.362	460.46
637.81	456.26
638.258	458.76
638.705	457.06
639.153	480.66
639.601	489.06
640.049	514.66
640.497	535.66
640.944	552.96
641.392	511.76
641.84	482.76
642.287	464.96
642.735	451.36
643.182	453.96
643.63	447.46
644.078	449.66
644.525	466.46
644.973	466.96
645.42	478.06
645.867	488.06
646.315	502.96
646.762	521.16
647.21	543.86
647.657	556.26
648.104	589.96
648.551	610.66
648.999	663.76
649.446	720.36
649.893	781.96
650.34	890.36
650.787	1071.36
651.234	1326.76
651.682	1719.16
652.129	2337.46
652.576	3351.56
653.023	4950.86
653.47	6882.06
653.917	8714.16
654.363	10243.26
654.81	11559.36
655.257	10964.86
655.704	7115.86
656.151	4193.56
656.598	2707.86
657.044	1906.96
657.491	1472.16
657.938	1166.46
658.385	975.66
658.831	850.86
659.278	766.76
659.724	664.66
660.171	632.16
660.618	564.96
661.064	526.26
661.511	513.36
661.957	501.06
662.404	486.06
662.85	494.56
663.296	475.16
663.743	433.46
664.189	423.26
664.635	413.46
665.082	414.36
665.528	408.26
665.974	402.96
666.42	396.46
666.867	384.26
667.313	381.16
667.759	372.36
668.205	375.76
668.651	377.86
669.097	367.96
669.543	387.46
669.989	363.26
670.435	351.66
670.881	349.76
671.327	352.96
671.773	367.86
672.219	382.66
672.665	422.56
673.11	449.26
673.556	497.76
674.002	529.46
674.448	512.06
674.893	434.56
675.339	372.26
675.785	338.46
676.23	324.06
676.676	307.66
677.122	292.36
677.567	282.16
678.013	290.36
678.458	278.16
678.904	272.06
679.349	270.46
679.794	276.16
680.24	271.96
680.685	267.76
681.131	270.36
681.576	284.46
682.021	277.66
682.466	271.56
682.912	266.56
683.357	272.06
683.802	292.16
684.247	318.26
684.692	353.46
685.137	384.56
685.583	419.06
686.028	439.96
686.473	400.16
686.918	343.56
687.363	330.06
687.807	311.46
688.252	277.86
688.697	272.06
689.142	258.16
689.587	251.56
690.032	245.36
690.477	265.56
690.921	275.26
691.366	287.46
691.811	309.56
692.255	337.06
692.7	360.56
693.145	380.36
693.589	513.86
694.034	840.56
694.478	1177.16
694.923	1376.66
695.367	1850.36
695.812	945.56
696.256	388.66
696.701	290.36
697.145	266.36
697.59	249.96
698.034	250.16
698.478	253.26
698.922	250.26
699.367	253.36
699.811	261.56
700.255	269.86
700.699	294.06
701.143	317.36
701.588	363.96
702.032	407.26
702.476	395.06
702.92	385.66
703.364	383.86
703.808	479.36
704.252	785.16
704.696	1115.86
705.14	1323.26
705.584	1718.06
706.027	850.76
706.471	403.66
706.915	310.86
707.359	261.56
707.803	245.66
708.246	237.66
708.69	239.86
709.134	243.36
709.577	235.16
710.021	247.56
710.465	239.76
710.908	227.36
711.352	221.66
711.795	234.96
712.239	268.96
712.682	288.06
713.126	322.36
713.569	360.96
714.012	286.86
714.456	251.56
714.899	234.46
715.342	206.66
715.786	204.36
716.229	196.96
716.672	198.16
717.115	194.46
717.558	193.36
718.002	194.66
718.445	201.56
718.888	223.56
719.331	222.16
719.774	234.86
720.217	238.76
720.66	220.36
721.103	203.56
721.546	193.36
721.989	188.56
722.432	174.16
722.874	179.46
723.317	175.36
723.76	177.96
724.203	199.16
724.645	239.16
725.088	343.46
725.531	429.16
725.974	505.06
726.416	434.16
726.859	237.66
727.301	186.36
727.744	177.96
728.187	181.66
728.629	184.66
729.071	177.06
729.514	198.46
729.956	204.96
730.399	214.66
730.841	219.96
731.283	210.16
731.726	194.06
732.168	203.36
732.61	207.56
733.053	215.76
733.495	234.36
733.937	269.36
734.379	300.96
734.821	336.76
735.263	401.36
735.705	609.76
736.148	1176.56
736.59	1983.96
737.032	2462.46
737.474	2003.66
737.916	639.06
738.357	331.06
738.799	256.66
739.241	225.66
739.683	209.36
740.125	220.56
740.567	223.26
741.008	246.36
741.45	245.46
741.892	247.06
742.334	272.86
742.775	281.06
743.217	270.16
743.658	210.36
744.1	192.46
744.542	195.46
744.983	246.56
745.425	272.36
745.866	277.06
746.307	215.26
746.749	210.56
747.19	239.16
747.632	335.16
748.073	647.66
748.514	1393.16
748.956	2228.16
749.397	2793.36
749.838	2325.76
750.279	2397.16
750.72	1195.16
751.162	423.56
751.603	250.36
752.044	191.36
752.485	155.06
752.926	159.36
753.367	160.36
753.808	149.86
754.249	139.56
754.69	145.56
755.131	137.36
755.572	139.96
756.013	136.06
756.453	138.36
756.894	139.26
757.335	138.66
757.776	145.86
758.216	144.16
758.657	148.96
759.098	146.96
759.538	170.56
759.979	199.66
760.42	283.56
760.86	524.06
761.301	1350.76
761.741	3371.06
762.182	5274.06
762.622	3732.86
763.063	1054.46
763.503	418.36
763.943	268.06
764.384	260.26
764.824	312.96
765.264	345.66
765.705	235.66
766.145	162.26
766.585	139.16
767.025	128.26
767.465	141.16
767.906	188.96
768.346	249.36
768.786	265.86
769.226	197.86
769.666	239.96
770.106	455.76
770.546	1158.86
770.986	2120.16
771.426	1934.66
771.866	621.36
772.306	249.06
772.745	156.06
773.185	136.96
773.625	130.76
774.065	118.96
774.505	147.36
774.944	214.86
775.384	476.86
775.824	905.76
776.263	905.66
776.703	376.96
777.142	155.36
777.582	119.56
778.021	101.46
778.461	107.86
778.9	103.76
779.34	106.86
779.779	87.66
780.219	81.66
780.658	73.46
781.097	81.46
781.537	89.06
781.976	74.16
782.415	74.16
782.855	76.76
783.294	75.36
783.733	76.16
784.172	76.26
784.611	75.26
785.05	77.66
785.489	81.06
785.928	87.56
786.367	93.76
786.806	80.86
787.245	94.36
787.684	96.86
788.123	119.56
788.562	102.66
789.001	98.36
789.44	95.46
789.879	83.76
790.317	96.76
790.756	95.16
791.195	94.16
791.634	116.16
792.072	151.96
792.511	261.86
792.95	728.86
793.388	1691.36
793.827	1579.06
794.265	532.46
794.704	218.86
795.142	144.06
795.581	118.66
796.019	103.56
796.458	92.86
796.896	89.96
797.334	98.16
797.773	119.16
798.211	160.76
798.649	312.36
799.087	777.26
799.526	1234.56
799.964	1578.76
800.402	1637.16
800.84	599.06
801.278	234.36
801.716	141.96
802.154	113.16
802.592	109.66
803.03	104.66
803.468	94.36
803.906	112.26
804.344	116.96
804.782	107.86
805.22	101.26
805.658	96.56
806.096	111.66
806.533	123.76
806.971	131.36
807.409	165.96
807.847	240.96
808.284	491.16
808.722	1419.76
809.16	2650.56
809.597	2422.46
810.035	4308.16
810.472	4860.26
810.91	1716.96
811.347	630.66
811.785	317.26
812.222	192.36
812.66	147.96
813.097	120.06
813.535	108.56
813.972	100.16
814.409	93.06
814.846	75.86
815.284	79.96
815.721	79.46
816.158	80.76
816.595	90.76
817.032	133.96
817.47	154.16
817.907	134.46
818.344	113.36
818.781	87.86
819.218	74.66
819.655	95.36
820.092	151.66
820.529	175.86
820.966	138.36
821.403	107.26
821.839	83.36
822.276	76.36
822.713	93.66
823.15	104.06
823.587	86.16
824.023	112.66
824.46	220.36
824.897	680.76
825.333	1094.46
825.77	461.36
826.206	179.56
826.643	99.46
827.08	83.36
827.516	58.56
827.953	56.16
828.389	66.76
828.825	51.56
829.262	52.86
829.698	51.46
830.135	49.56
830.571	45.86
831.007	48.46
831.443	51.46
831.88	45.46
832.316	48.26
832.752	44.56
833.188	56.36
833.624	46.86
834.06	52.36
834.497	54.96
834.933	46.96
835.369	60.06
835.805	46.26
836.241	56.26
836.677	59.76
837.112	69.76
837.548	65.86
837.984	98.36
838.42	147.16
838.856	367.16
839.292	1173.96
839.727	1883.26
840.163	866.56
840.599	698.86
841.034	1597.96
841.47	1775.16
841.906	631.36
842.341	258.76
842.777	174.16
843.212	238.16
843.648	236.66
844.083	115.06
844.519	72.96
844.954	60.86
845.39	46.06
845.825	40.46
846.261	39.46
846.696	40.76
847.131	36.66
847.566	43.06
848.002	37.26
848.437	37.36
848.872	38.26
849.307	44.16
849.742	64.46
850.177	130.56
850.613	424.76
851.048	721.76
851.483	308.36
851.918	120.16
852.353	68.96
852.788	39.36
853.223	37.76
853.657	44.16
854.092	32.06
854.527	32.06
854.962	32.66
855.397	36.26
855.832	39.66
856.266	28.96
856.701	32.36
857.136	25.36
857.57	26.96
858.005	35.16
858.44	42.46
858.874	33.06
859.309	42.66
859.743	28.46
860.178	32.86
860.612	32.36
861.047	33.86
861.481	45.96
861.915	50.96
862.35	39.16
862.784	17.76
863.218	32.86
863.653	26.26
864.087	34.86
864.521	41.26
864.955	50.26
865.39	119.46
865.824	135.66
866.258	87.16
866.692	142.66
867.126	153.46
867.56	89.66
867.994	42.96
868.428	29.86
868.862	37.56
869.296	47.86
869.73	45.56
870.164	48.96
870.598	37.16
871.031	28.86
871.465	21.06
871.899	25.46
872.333	14.66
872.766	18.36
873.2	18.16
873.634	21.46
874.067	19.16
874.501	19.96
874.935	24.56
875.368	22.16
875.802	16.56
876.235	19.16
876.669	14.66
877.102	17.46
877.535	19.96
877.969	14.06
878.402	14.06
878.836	14.56
879.269	12.26
879.702	17.06
880.135	10.36
880.569	8.36
881.002	20.66
881.435	12.46
881.868	10.16
882.301	17.66
882.734	9.56
883.167	19.46
883.601	13.76
884.034	10.46
884.467	9.76
884.899	9.66
885.332	7.46
885.765	5.86
886.198	7.86
886.631	10.96
887.064	11.06
887.497	17.16
887.929	18.16
888.362	8.46
888.795	10.26
889.228	5.86
889.66	16.56
890.093	8.56
890.526	11.36
890.958	15.66
891.391	21.06
891.823	21.16
892.256	12.56
892.688	3.86
893.121	5.26
893.553	9.36
893.985	17.56
894.418	12.16
894.85	11.26
895.282	15.16
895.715	11.06
896.147	9.86
896.579	10.86
897.011	16.76
897.444	11.76
897.876	9.96
898.308	13.76
898.74	14.46
899.172	5.86
899.604	14.26
900.036	16.06
900.468	8.06
900.9	12.06
901.332	18.46
901.764	7.46
902.196	11.16
902.628	11.56
903.06	14.26
903.491	23.46
903.923	16.46
904.355	12.16
904.787	17.16
905.218	14.06
905.65	11.66
906.082	11.06
906.513	6.66
906.945	8.26
907.376	7.16
907.808	11.66
908.239	13.26
908.671	11.46
909.102	15.26
909.534	15.86
909.965	41.56
910.397	70.46
910.828	251.16
911.259	390.56
911.691	174.66
912.122	80.36
912.553	33.06
912.984	27.56
913.415	16.36
913.847	16.76
914.278	12.06
914.709	13.76
915.14	8.06
915.571	8.46
916.002	3.96
916.433	13.76
916.864	11.96
917.295	7.46
917.726	12.86
918.157	6.06
918.587	18.86
919.018	13.56
919.449	16.16
919.88	17.46
920.311	24.86
920.741	33.16
921.172	129.46
921.603	127.36
922.033	55.86
922.464	35.76
922.895	17.26
923.325	22.06
923.756	6.46
924.186	8.86
924.617	16.36
925.047	28.36
925.478	42.76
925.908	22.86
926.338	15.56
926.769	8.26
927.199	14.36
927.629	7.66
928.06	12.56
928.49	8.76
928.92	12.66
929.35	8.66
929.78	8.66
930.21	1.16
930.641	4.26
931.071	-1.64
931.501	-2.04
931.931	0.66
932.361	8.76
932.791	-0.84
933.221	5.76
933.651	1.26
934.08	9.36
934.51	19.36
934.94	7.46
935.37	1.66
935.8	8.96
936.229	4.76
936.659	7.36
937.089	-1.04
937.519	7.76
937.948	19.56
938.378	8.86
938.807	5.16
939.237	-3.44
939.666	5.06
940.096	-9.54
940.525	-2.04
940.955	-4.24
941.384	-2.04
941.814	-3.94
942.243	-5.04
942.672	-1.54
943.102	-6.64
943.531	-3.64
943.96	-6.34
944.39	-0.04
944.819	0.66
945.248	2.86
945.677	0.66
946.106	-2.04
946.535	5.26
946.964	0.26
947.393	1.96
947.822	2.96
948.251	0.06
948.68	1.26
949.109	5.16
949.538	7.36
949.967	-6.24
950.396	1.36
950.825	-2.44
951.254	0.46
951.682	-10.14
952.111	2.26
952.54	3.76
952.969	-1.44
953.397	-6.54
953.826	-1.34
954.254	-3.44
954.683	-4.24
955.112	-10.74
955.54	-1.94
955.969	1.06
956.397	-0.14
956.826	-3.24
957.254	-0.34
957.682	-2.24
958.111	5.76
958.539	0.46
958.967	3.36
959.396	-2.54
959.824	-2.34
960.252	-1.44
960.68	-7.34
961.109	-3.94
961.537	-11.34
961.965	-5.44
962.393	-0.74
962.821	-0.64
963.249	-0.84
963.677	3.16
964.105	-3.74
964.533	36.86
964.961	34.26
965.389	17.76
965.817	8.16
966.245	-1.54
966.672	-3.34
967.1	-8.54
967.528	-2.14
967.956	-7.84
968.383	-0.24
968.811	-5.04
969.239	-5.94
969.666	-5.44
970.094	-0.64
970.522	-3.14
970.949	-8.04
971.377	1.96
971.804	-4.64
972.232	0.16
972.659	-7.84
973.087	-1.74
973.514	-2.24
973.941	-10.24
974.369	6.46
974.796	3.46
975.223	2.56
975.651	-10.34
976.078	1.46
976.505	-2.64
976.932	2.06
977.359	13.66
977.786	11.06
978.214	-0.44
978.641	-9.94
979.068	-6.24
979.495	-7.34
979.922	-1.64
980.349	-4.94
980.776	-1.44
981.202	-2.04
981.629	-1.74
982.056	4.46
982.483	-3.14
982.91	0.16
983.337	-7.74
983.763	3.86
984.19	-10.64
984.617	-2.34
985.043	-6.54
985.47	-4.74
985.897	-6.04
986.323	-10.84
986.75	1.86
987.176	-7.74
987.603	-3.54
988.029	-4.54
988.456	-5.44
988.882	4.66
989.308	-5.34
989.735	-0.54
990.161	-4.04
990.587	-2.34
991.014	0.16
991.44	3.66
991.866	-9.94
992.292	-5.04
992.719	-7.24
993.145	-1.94
993.571	-6.14
993.997	-8.04
994.423	-1.24
994.849	-7.84
995.275	4.36
995.701	-3.84
996.127	-2.14
996.553	-0.14
996.979	-9.14
997.405	-1.24
997.83	-6.84
998.256	-5.64
998.682	-7.14
999.108	-8.94
999.534	-1.74
999.959	-1.04
1000.385	-5.94
1000.811	-1.64
1001.236	-4.84
1001.662	-14.04
1002.087	-6.14
1002.513	1.66
1002.938	0.76
1003.364	-5.64
1003.789	-4.54
1004.215	3.86
1004.64	-2.74
1005.066	0.56
1005.491	2.66
1005.916	0.16
1006.342	-4.84
1006.767	-8.74
1007.192	0.86
1007.617	-5.94
1008.042	-8.04
1008.468	-5.74
1008.893	-7.44
1009.318	-5.84
1009.743	-5.24
1010.168	1.16
1010.593	2.46
1011.018	-11.44
1011.443	-5.84
1011.868	3.86
1012.293	-2.34
1012.718	-9.74
1013.143	-0.24
1013.567	-4.64
1013.992	-6.34
1014.417	-14.04
1014.842	-2.24
1015.267	-6.44
1015.691	-7.04
1016.116	1.96
1016.541	-3.14
1016.965	-2.04
1017.39	3.66
1017.814	-1.94
1018.239	0.96
1018.663	-10.44
1019.088	-6.14
1019.512	-1.44
1019.937	0.46
1020.361	-7.14
1020.785	-10.44
1021.21	-5.04
1021.634	-2.84
1022.058	-2.24
1022.483	-0.24
1022.907	0.76
1023.331	-6.94
1023.755	-4.94
1024.179	-9.54
1024.604	-2.24
1025.028	-7.94
1025.452	-12.44
1025.876	-4.34
1026.3	-7.24
1026.724	-6.94
1027.148	-11.84
1027.572	-7.44
1027.996	-6.64
1028.42	-4.94
1028.843	-9.24
1029.267	-6.64
1029.691	-1.04
1030.115	-9.04
1030.539	-7.74
1030.962	-3.84
1031.386	-12.14
1031.81	-4.04
1032.233	-1.04
1032.657	-2.04
1033.08	-5.04
1033.504	-3.34
1033.927	-9.64
1034.351	-0.64
1034.774	-6.34
1035.198	-10.14
1035.621	-6.64
1036.045	-6.24
1036.468	5.96
1036.891	-13.74
1037.315	-12.34
1037.738	-6.14
1038.161	0.16
1038.584	-6.44
1039.008	-8.24
1039.431	-3.74
1039.854	-6.64
1040.277	-10.24
1040.7	-13.24
1041.123	-4.94
1041.546	-9.74
1041.969	-5.84
1042.392	-13.24
1042.815	0.56
1043.238	0.46
1043.661	2.66
1044.084	-12.04
1044.507	-11.64
1044.93	-8.04
1045.352	-12.44
1045.775	0.16
1046.198	-2.04
1046.621	-7.34
1047.043	-5.44
1047.466	6.66
1047.889	-8.34
1048.311	-12.34
1048.734	-3.54
1049.156	-0.54
1049.579	-1.44
1050.001	-0.64
1050.424	-1.84
1050.846	-7.04
1051.269	-3.04
1051.691	-6.54
1052.113	-8.14
1052.536	1.96
1052.958	-2.44
1053.38	-5.14
1053.802	-12.74
1054.225	2.56
1054.647	-12.64
1055.069	-1.24
1055.491	-7.74
1055.913	-3.44
1056.335	-2.54
1056.757	-8.64
1057.179	-3.44
1057.601	-2.64
1058.023	-4.14
1058.445	-4.94
1058.867	-0.74
1059.289	-7.24
1059.711	-9.94
1060.133	-5.44
1060.555	-5.74
1060.976	-10.44
1061.398	-12.04
1061.82	-8.84
1062.241	-12.14
1062.663	-9.14
1063.085	-6.34
1063.506	-3.84
1063.928	-5.34
1064.35	-1.24
1064.771	-12.94
1065.193	-11.34
1065.614	-9.64
1066.035	-5.64
1066.457	-7.94
1066.878	-0.14
1067.3	-7.24
1067.721	-8.04
1068.142	-5.54
1068.564	-7.54
1068.985	-6.44
1069.406	-11.14
1069.827	-9.34
1070.248	-1.94
1070.67	-6.54
1071.091	-8.84
1071.512	-6.74
1071.933	-8.04
1072.354	-8.84
1072.775	-4.14
1073.196	-9.04
1073.617	-12.14
1074.038	-7.34
1074.459	-7.44
1074.88	-10.14
1075.3	-0.64
1075.721	-5.04
1076.142	-4.34
1076.563	-3.44
1076.983	-4.14
1077.404	-3.44
1077.825	-16.24
1078.246	-7.74
1078.666	-10.24
1079.087	-6.94
1079.507	-7.94
1079.928	-6.84
1080.348	0.56
1080.769	-1.04
1081.189	-1.84
1081.61	-3.04
1082.03	-8.14
1082.451	-1.04
1082.871	-9.34
1083.291	-7.14
1083.711	-12.74
1084.132	-6.54
1084.552	-3.14
1084.972	-4.84
1085.392	-7.44
1085.813	-11.04
1086.233	-6.64
1086.653	-4.24
1087.073	-3.94
1087.493	-7.84
1087.913	-4.84
1088.333	-10.54
1088.753	-6.04
1089.173	4.86
1089.593	-11.44
1090.013	-2.64
1090.433	-5.64
1090.852	-3.04
1091.272	0.46
1091.692	-6.94
1092.112	-3.84
1092.531	-10.64
1092.951	-14.74
1093.371	-2.24
1093.79	-1.54
1094.21	-4.04
1094.63	-10.54
1095.049	-8.34
1095.469	-3.54
1095.888	-4.64
1096.308	-3.14
1096.727	1.56
1097.146	-11.04
1097.566	1.96
1097.985	-7.94
1098.405	-2.24
1098.824	-15.64
1099.243	-5.64
1099.662	-10.84
1100.082	-7.74
1100.501	-2.74
1100.92	-10.94
1101.339	-7.74
1101.758	-7.64
