Data from 20171114-ORNL-Ar_H_NY_Subt18_08-03-51-416.txt Node
Date: Tue Nov 14 08:03:51 EST 2017
User: Ender
Spectrometer: HR+D1039
Trigger mode: 0
Integration Time (sec): 2.730000E-2
Scans to average: 10
Electric dark correction enabled: true
Nonlinearity correction enabled: false
Boxcar width: 0
XAxis mode: Wavelengths
Number of Pixels in Spectrum: 2048
>>>>>Begin Spectral Data<<<<<
187.836	-4.72
188.309	-4.72
188.782	-4.72
189.255	-1.22
189.728	-0.42
190.201	8.28
190.674	-0.42
191.147	1.18
191.619	-9.22
192.092	6.28
192.565	4.08
193.038	2.18
193.511	1.78
193.984	0.48
194.456	-2.22
194.929	-2.52
195.402	-1.62
195.874	-1.92
196.347	-1.52
196.82	-8.42
197.292	6.48
197.765	-1.12
198.237	-6.32
198.71	0.98
199.182	-3.32
199.655	6.68
200.127	5.08
200.6	-0.32
201.072	-5.42
201.544	-7.82
202.017	-4.62
202.489	6.48
202.961	1.48
203.433	1.18
203.906	-6.62
204.378	-7.42
204.85	-6.82
205.322	-11.32
205.794	-0.52
206.266	-5.12
206.739	-7.02
207.211	-1.52
207.683	-7.72
208.155	-2.32
208.627	-6.12
209.099	-7.72
209.57	-10.52
210.042	-4.62
210.514	-4.52
210.986	-1.22
211.458	-9.82
211.93	-3.02
212.402	0.18
212.873	-12.22
213.345	-8.72
213.817	-10.72
214.288	-5.02
214.76	-10.42
215.232	-5.62
215.703	-8.62
216.175	-1.12
216.646	-5.22
217.118	-3.92
217.589	-1.22
218.061	-0.82
218.532	-5.42
219.004	-6.32
219.475	-4.62
219.946	-13.12
220.418	-0.82
220.889	-1.42
221.36	1.98
221.832	-2.32
222.303	-7.82
222.774	-0.42
223.245	-6.12
223.717	-5.62
224.188	-4.22
224.659	-9.22
225.13	-1.92
225.601	-3.72
226.072	-2.12
226.543	1.48
227.014	-1.52
227.485	-8.82
227.956	-3.52
228.427	-0.52
228.898	-7.62
229.369	3.48
229.839	-1.72
230.31	-2.82
230.781	1.48
231.252	-4.82
231.722	-4.82
232.193	-0.02
232.664	-11.22
233.135	1.88
233.605	-6.42
234.076	-8.02
234.546	3.68
235.017	3.18
235.487	-1.22
235.958	-3.62
236.428	-3.62
236.899	-3.42
237.369	-2.02
237.84	-9.22
238.31	-2.42
238.78	-8.72
239.251	-2.52
239.721	-4.42
240.191	-0.52
240.662	-2.92
241.132	-1.82
241.602	-9.12
242.072	-0.72
242.542	1.88
243.013	1.18
243.483	6.28
243.953	-0.12
244.423	-5.32
244.893	-10.32
245.363	-1.62
245.833	4.78
246.303	-4.12
246.773	1.98
247.243	-2.12
247.712	-4.62
248.182	4.58
248.652	-0.82
249.122	-2.42
249.592	0.78
250.061	2.58
250.531	5.68
251.001	-3.12
251.471	9.18
251.94	9.28
252.41	0.18
252.879	-3.62
253.349	2.58
253.818	4.68
254.288	-0.82
254.757	0.98
255.227	-4.22
255.696	-2.12
256.166	5.38
256.635	7.78
257.105	1.08
257.574	0.38
258.043	2.68
258.513	-7.22
258.982	-5.72
259.451	-3.72
259.92	-3.92
260.389	-0.72
260.859	7.98
261.328	7.18
261.797	-0.82
262.266	0.48
262.735	5.68
263.204	-6.42
263.673	-4.82
264.142	4.08
264.611	-3.42
265.08	3.98
265.549	1.38
266.018	-0.02
266.487	-7.62
266.955	-12.72
267.424	-8.72
267.893	2.48
268.362	-0.52
268.83	0.38
269.299	3.58
269.768	-1.12
270.236	0.08
270.705	-0.02
271.174	1.98
271.642	4.88
272.111	1.78
272.579	0.28
273.048	2.58
273.516	1.28
273.985	3.38
274.453	3.98
274.922	3.38
275.39	1.68
275.858	-6.32
276.327	-2.12
276.795	7.58
277.263	3.98
277.731	8.58
278.2	4.18
278.668	4.98
279.136	11.58
279.604	2.68
280.072	6.18
280.54	1.28
281.008	3.38
281.477	4.18
281.945	-0.22
282.413	6.68
282.881	5.18
283.348	1.58
283.816	8.58
284.284	8.48
284.752	12.28
285.22	5.28
285.688	12.48
286.156	1.98
286.623	16.08
287.091	6.48
287.559	7.08
288.026	2.38
288.494	8.38
288.962	-4.32
289.429	2.48
289.897	10.78
290.364	8.48
290.832	7.18
291.3	4.48
291.767	8.58
292.234	7.48
292.702	9.98
293.169	8.88
293.637	15.08
294.104	16.08
294.571	-2.92
295.039	4.98
295.506	5.78
295.973	15.08
296.44	5.48
296.908	9.58
297.375	3.28
297.842	12.88
298.309	7.58
298.776	6.48
299.243	13.58
299.71	5.78
300.177	14.08
300.644	8.88
301.111	12.28
301.578	16.48
302.045	7.58
302.512	14.68
302.979	17.48
303.446	15.98
303.913	8.58
304.379	11.08
304.846	14.58
305.313	19.98
305.78	16.98
306.246	14.98
306.713	13.78
307.18	16.28
307.646	14.18
308.113	14.38
308.579	15.88
309.046	13.78
309.512	13.98
309.979	5.08
310.445	22.88
310.912	20.68
311.378	22.68
311.845	16.08
312.311	15.68
312.777	22.28
313.244	23.68
313.71	28.48
314.176	22.48
314.642	22.68
315.109	16.88
315.575	22.68
316.041	28.18
316.507	22.88
316.973	25.38
317.439	19.08
317.905	26.18
318.371	20.78
318.837	31.68
319.303	20.78
319.769	23.78
320.235	19.18
320.701	29.08
321.167	30.28
321.633	19.28
322.099	24.88
322.564	32.48
323.03	30.28
323.496	25.58
323.962	27.88
324.427	27.28
324.893	31.98
325.359	27.28
325.824	28.78
326.29	25.88
326.755	31.48
327.221	22.48
327.686	28.58
328.152	32.98
328.617	33.08
329.083	42.58
329.548	41.28
330.014	32.68
330.479	33.48
330.944	34.48
331.41	30.98
331.875	37.98
332.34	30.88
332.805	32.48
333.271	32.98
333.736	29.98
334.201	35.88
334.666	39.98
335.131	40.78
335.596	45.98
336.061	35.58
336.526	31.58
336.991	33.88
337.456	45.98
337.921	42.58
338.386	34.88
338.851	33.68
339.316	37.98
339.781	39.78
340.246	38.68
340.711	36.68
341.175	37.78
341.64	40.28
342.105	40.48
342.569	45.18
343.034	44.88
343.499	43.68
343.963	45.68
344.428	51.78
344.893	56.38
345.357	44.28
345.822	53.68
346.286	56.58
346.751	56.68
347.215	53.48
347.679	59.68
348.144	69.08
348.608	60.38
349.073	60.38
349.537	59.68
350.001	63.18
350.465	68.18
350.93	68.38
351.394	69.58
351.858	58.88
352.322	70.68
352.786	58.38
353.25	77.28
353.715	87.38
354.179	79.58
354.643	92.78
355.107	92.78
355.571	84.98
356.035	77.38
356.498	87.78
356.962	92.48
357.426	101.28
357.89	92.68
358.354	80.38
358.818	75.18
359.281	71.48
359.745	65.18
360.209	68.18
360.673	67.48
361.136	71.98
361.6	76.48
362.064	76.48
362.527	79.98
362.991	81.38
363.454	68.38
363.918	69.48
364.381	68.88
364.845	74.98
365.308	78.58
365.772	79.58
366.235	82.18
366.698	83.18
367.162	81.48
367.625	82.98
368.088	87.58
368.552	83.08
369.015	76.98
369.478	84.08
369.941	88.58
370.404	79.78
370.867	89.28
371.331	96.48
371.794	97.68
372.257	89.88
372.72	96.08
373.183	94.58
373.646	86.08
374.109	86.98
374.572	93.38
375.035	92.98
375.497	101.38
375.96	101.58
376.423	93.98
376.886	105.18
377.349	103.58
377.811	90.58
378.274	94.58
378.737	95.58
379.199	99.68
379.662	103.58
380.125	104.68
380.587	100.88
381.05	97.78
381.512	109.58
381.975	111.38
382.437	115.88
382.9	110.28
383.362	114.68
383.825	116.98
384.287	121.18
384.75	114.38
385.212	120.58
385.674	122.38
386.136	121.88
386.599	114.18
387.061	114.18
387.523	113.28
387.985	120.68
388.447	131.98
388.91	124.68
389.372	123.28
389.834	121.88
390.296	117.28
390.758	128.28
391.22	128.98
391.682	136.38
392.144	148.38
392.606	144.18
393.068	141.18
393.529	151.28
393.991	141.48
394.453	131.48
394.915	130.38
395.377	132.58
395.838	133.18
396.3	136.28
396.762	132.48
397.224	130.48
397.685	138.88
398.147	133.18
398.608	136.68
399.07	135.08
399.531	130.88
399.993	142.98
400.454	155.28
400.916	146.18
401.377	145.48
401.839	148.98
402.3	145.48
402.762	158.28
403.223	178.98
403.684	164.28
404.145	159.58
404.607	152.98
405.068	163.08
405.529	165.18
405.99	174.68
406.451	172.98
406.913	167.08
407.374	162.18
407.835	153.78
408.296	161.58
408.757	164.28
409.218	177.48
409.679	173.08
410.14	180.08
410.601	177.28
411.062	170.78
411.522	185.98
411.983	175.18
412.444	177.78
412.905	181.48
413.366	183.58
413.826	190.18
414.287	216.38
414.748	273.28
415.208	257.28
415.669	212.18
416.13	210.98
416.59	204.18
417.051	210.38
417.511	228.18
417.972	239.28
418.432	252.28
418.893	297.28
419.353	264.28
419.814	202.88
420.274	187.88
420.734	180.48
421.195	200.58
421.655	190.68
422.115	188.38
422.576	194.48
423.036	198.78
423.496	207.48
423.956	222.28
424.416	232.98
424.876	272.38
425.336	256.48
425.797	253.78
426.257	251.68
426.717	235.58
427.177	233.58
427.637	218.28
428.097	236.08
428.556	240.98
429.016	262.88
429.476	258.28
429.936	264.28
430.396	270.78
430.856	284.18
431.315	300.38
431.775	324.68
432.235	357.08
432.694	334.98
433.154	342.18
433.614	355.78
434.073	310.48
434.533	270.68
434.993	251.98
435.452	265.18
435.912	278.08
436.371	266.48
436.83	264.08
437.29	244.48
437.749	240.08
438.209	234.68
438.668	257.48
439.127	263.78
439.587	249.08
440.046	233.28
440.505	244.78
440.964	253.68
441.424	287.88
441.883	280.88
442.342	247.08
442.801	217.88
443.26	218.68
443.719	220.98
444.178	219.18
444.637	213.58
445.096	216.18
445.555	226.68
446.014	232.08
446.473	227.28
446.932	227.98
447.391	221.08
447.849	229.18
448.308	221.68
448.767	215.78
449.226	238.28
449.685	238.08
450.143	248.08
450.602	239.88
451.061	221.58
451.519	223.78
451.978	225.28
452.436	228.48
452.895	230.98
453.353	245.18
453.812	242.48
454.27	236.28
454.729	234.68
455.187	233.68
455.646	235.68
456.104	242.18
456.562	244.48
457.021	251.68
457.479	249.68
457.937	257.98
458.395	256.58
458.854	239.78
459.312	251.08
459.77	268.18
460.228	239.48
460.686	240.68
461.144	251.78
461.602	242.68
462.06	240.98
462.518	251.88
462.976	243.28
463.434	247.68
463.892	259.98
464.35	260.68
464.808	280.58
465.266	252.78
465.724	266.28
466.181	275.28
466.639	264.88
467.097	284.98
467.555	286.58
468.012	294.88
468.47	296.58
468.928	312.38
469.385	320.58
469.843	328.68
470.3	326.08
470.758	341.38
471.215	356.98
471.673	365.78
472.13	370.58
472.588	387.08
473.045	361.98
473.503	364.08
473.96	375.88
474.417	384.98
474.875	413.78
475.332	441.58
475.789	432.98
476.246	441.28
476.704	456.78
477.161	477.28
477.618	480.08
478.075	506.18
478.532	561.48
478.989	618.48
479.446	695.48
479.903	689.98
480.36	727.28
480.817	767.68
481.274	847.38
481.731	919.58
482.188	996.58
482.645	1115.38
483.102	1193.98
483.558	1295.88
484.015	1346.98
484.472	1320.68
484.929	1291.68
485.385	1256.78
485.842	1226.68
486.299	1182.78
486.755	1122.78
487.212	968.68
487.668	831.58
488.125	786.78
488.582	715.68
489.038	691.78
489.494	653.18
489.951	627.28
490.407	620.28
490.864	599.48
491.32	589.08
491.776	592.08
492.233	601.38
492.689	560.88
493.145	567.28
493.602	559.98
494.058	564.68
494.514	565.98
494.97	576.08
495.426	579.68
495.882	560.18
496.338	567.38
496.794	564.88
497.251	555.58
497.707	577.58
498.163	573.58
498.618	572.78
499.074	580.28
499.53	594.58
499.986	590.58
500.442	578.18
500.898	557.68
501.354	561.98
501.809	567.18
502.265	564.18
502.721	575.28
503.177	575.98
503.632	588.08
504.088	585.58
504.543	604.18
504.999	620.98
505.455	592.78
505.91	579.98
506.366	585.48
506.821	576.48
507.277	579.38
507.732	580.88
508.187	579.28
508.643	578.88
509.098	575.78
509.553	596.48
510.009	605.18
510.464	623.38
510.919	632.18
511.375	623.88
511.83	640.38
512.285	644.08
512.74	675.78
513.195	687.18
513.65	674.48
514.105	676.08
514.56	676.38
515.015	695.18
515.47	707.78
515.925	700.08
516.38	701.68
516.835	701.68
517.29	696.48
517.745	694.58
518.2	682.98
518.655	670.28
519.109	659.88
519.564	650.28
520.019	644.58
520.474	637.98
520.928	644.28
521.383	641.08
521.838	630.88
522.292	631.08
522.747	632.48
523.201	627.88
523.656	616.68
524.11	615.88
524.565	617.68
525.019	619.18
525.474	620.18
525.928	614.68
526.382	612.28
526.837	618.78
527.291	611.98
527.745	610.68
528.2	612.78
528.654	603.28
529.108	601.18
529.562	604.68
530.016	599.78
530.47	600.48
530.925	602.78
531.379	599.38
531.833	609.58
532.287	605.18
532.741	606.78
533.195	610.48
533.649	603.88
534.103	614.18
534.556	602.18
535.01	612.78
535.464	601.18
535.918	608.48
536.372	606.38
536.826	612.48
537.279	598.88
537.733	605.88
538.187	618.38
538.64	613.48
539.094	613.78
539.548	621.38
540.001	611.98
540.455	622.28
540.908	634.78
541.362	633.68
541.815	634.28
542.269	641.38
542.722	645.08
543.175	647.68
543.629	645.88
544.082	676.58
544.536	664.48
544.989	665.98
545.442	678.48
545.895	675.08
546.349	677.78
546.802	676.48
547.255	673.38
547.708	680.58
548.161	686.98
548.614	693.88
549.067	697.78
549.52	695.88
549.973	678.88
550.426	675.18
550.879	672.68
551.332	668.78
551.785	678.88
552.238	674.18
552.691	681.28
553.144	694.48
553.596	705.58
554.049	715.28
554.502	743.78
554.955	754.08
555.407	752.88
555.86	739.18
556.313	735.78
556.765	723.38
557.218	730.68
557.67	724.28
558.123	716.38
558.576	708.18
559.028	730.88
559.48	735.08
559.933	726.98
560.385	698.88
560.838	663.28
561.29	655.08
561.742	650.38
562.195	634.18
562.647	622.18
563.099	639.88
563.551	633.78
564.004	647.48
564.456	630.38
564.908	615.28
565.36	605.38
565.812	583.58
566.264	582.58
566.716	575.98
567.168	566.98
567.62	582.08
568.072	572.98
568.524	562.38
568.976	556.28
569.428	549.28
569.88	540.68
570.332	552.48
570.784	555.18
571.235	548.88
571.687	555.78
572.139	574.98
572.59	575.08
573.042	568.28
573.494	565.68
573.945	563.78
574.397	550.98
574.849	556.48
575.3	550.08
575.752	544.98
576.203	538.58
576.655	544.28
577.106	526.68
577.557	527.68
578.009	525.98
578.46	533.88
578.912	521.28
579.363	529.98
579.814	530.38
580.265	527.48
580.717	521.48
581.168	528.18
581.619	531.48
582.07	532.88
582.521	526.98
582.972	520.58
583.423	533.08
583.875	525.98
584.326	537.58
584.777	538.78
585.227	562.98
585.678	581.18
586.129	587.48
586.58	622.58
587.031	631.08
587.482	663.08
587.933	690.78
588.384	658.08
588.834	620.78
589.285	613.38
589.736	608.78
590.186	599.18
590.637	587.98
591.088	581.98
591.538	573.28
591.989	568.18
592.439	565.28
592.89	562.38
593.34	543.98
593.791	532.88
594.241	541.18
594.692	536.68
595.142	531.68
595.593	529.38
596.043	534.08
596.493	539.58
596.943	538.88
597.394	552.78
597.844	546.68
598.294	558.78
598.744	586.48
599.195	588.98
599.645	623.68
600.095	653.98
600.545	700.28
600.995	735.38
601.445	785.88
601.895	821.68
602.345	862.88
602.795	852.88
603.245	811.18
603.695	771.88
604.145	729.98
604.594	705.98
605.044	654.68
605.494	610.48
605.944	573.58
606.393	558.18
606.843	546.28
607.293	546.38
607.743	543.98
608.192	552.28
608.642	568.78
609.091	564.48
609.541	561.78
609.99	560.48
610.44	565.98
610.889	528.28
611.339	512.68
611.788	509.18
612.238	523.48
612.687	529.68
613.136	520.18
613.586	519.28
614.035	526.98
614.484	523.38
614.933	522.38
615.383	527.98
615.832	532.88
616.281	516.28
616.73	504.58
617.179	489.68
617.628	481.78
618.077	477.28
618.526	458.48
618.975	454.88
619.424	446.38
619.873	452.88
620.322	462.88
620.771	444.08
621.22	447.18
621.669	442.38
622.118	416.98
622.567	431.08
623.015	419.48
623.464	413.18
623.913	410.98
624.361	397.08
624.81	402.88
625.259	405.48
625.707	407.08
626.156	407.08
626.604	412.58
627.053	401.28
627.501	410.38
627.95	412.28
628.398	420.38
628.847	415.38
629.295	414.18
629.744	416.88
630.192	415.88
630.64	411.78
631.089	402.08
631.537	392.08
631.985	382.08
632.433	388.78
632.881	382.08
633.33	379.28
633.778	369.88
634.226	379.98
634.674	392.88
635.122	396.28
635.57	386.38
636.018	404.08
636.466	398.28
636.914	404.98
637.362	420.88
637.81	423.88
638.258	416.58
638.705	419.78
639.153	440.88
639.601	437.88
640.049	464.38
640.497	477.98
640.944	506.48
641.392	467.78
641.84	440.38
642.287	419.68
642.735	395.28
643.182	407.68
643.63	405.28
644.078	405.88
644.525	417.18
644.973	419.58
645.42	416.58
645.867	429.18
646.315	451.68
646.762	468.48
647.21	488.58
647.657	496.88
648.104	513.08
648.551	537.38
648.999	572.28
649.446	612.28
649.893	669.98
650.34	760.88
650.787	891.48
651.234	1103.78
651.682	1405.78
652.129	1886.78
652.576	2667.88
653.023	3881.58
653.47	5387.28
653.917	6846.38
654.363	8003.38
654.81	9099.48
655.257	8639.68
655.704	5698.88
656.151	3398.78
656.598	2223.88
657.044	1589.08
657.491	1217.98
657.938	985.38
658.385	843.68
658.831	729.68
659.278	659.98
659.724	585.28
660.171	533.08
660.618	485.28
661.064	466.48
661.511	453.88
661.957	438.38
662.404	431.68
662.85	431.28
663.296	417.48
663.743	385.18
664.189	375.88
664.635	373.18
665.082	362.38
665.528	367.08
665.974	367.18
666.42	360.18
666.867	356.08
667.313	330.38
667.759	328.28
668.205	319.98
668.651	312.88
669.097	313.88
669.543	313.38
669.989	312.18
670.435	318.48
670.881	308.48
671.327	312.78
671.773	324.48
672.219	349.38
672.665	378.18
673.11	412.28
673.556	444.48
674.002	475.08
674.448	472.68
674.893	398.58
675.339	337.08
675.785	308.98
676.23	294.08
676.676	275.48
677.122	273.88
677.567	261.58
678.013	255.78
678.458	243.68
678.904	246.88
679.349	245.88
679.794	248.18
680.24	240.88
680.685	243.58
681.131	242.48
681.576	247.78
682.021	245.58
682.466	243.98
682.912	248.18
683.357	239.08
683.802	268.38
684.247	280.28
684.692	310.58
685.137	336.38
685.583	379.18
686.028	398.68
686.473	366.88
686.918	312.08
687.363	291.68
687.807	276.98
688.252	259.38
688.697	253.58
689.142	232.08
689.587	228.78
690.032	220.98
690.477	241.58
690.921	241.48
691.366	260.08
691.811	273.38
692.255	300.28
692.7	316.08
693.145	349.48
693.589	472.08
694.034	773.48
694.478	1068.48
694.923	1251.78
695.367	1670.88
695.812	874.38
696.256	357.28
696.701	256.48
697.145	243.88
697.59	222.88
698.034	212.18
698.478	220.38
698.922	221.38
699.367	231.98
699.811	238.68
700.255	244.78
700.699	260.08
701.143	287.88
701.588	327.08
702.032	365.78
702.476	367.48
702.92	348.78
703.364	343.78
703.808	432.18
704.252	702.18
704.696	1005.88
705.14	1198.88
705.584	1567.48
706.027	772.58
706.471	373.68
706.915	281.48
707.359	244.88
707.803	226.98
708.246	206.18
708.69	221.78
709.134	213.68
709.577	220.98
710.021	214.58
710.465	215.08
710.908	208.58
711.352	210.28
711.795	218.58
712.239	239.58
712.682	256.18
713.126	280.68
713.569	317.08
714.012	254.48
714.456	211.58
714.899	207.18
715.342	185.38
715.786	176.48
716.229	182.68
716.672	177.88
717.115	168.98
717.558	174.28
718.002	177.78
718.445	180.38
718.888	198.38
719.331	202.88
719.774	211.68
720.217	209.88
720.66	196.88
721.103	187.78
721.546	176.58
721.989	173.58
722.432	156.18
722.874	170.58
723.317	147.78
723.76	162.98
724.203	174.58
724.645	214.78
725.088	297.88
725.531	388.08
725.974	461.88
726.416	388.58
726.859	209.68
727.301	167.38
727.744	164.48
728.187	158.28
728.629	161.18
729.071	165.98
729.514	177.88
729.956	185.88
730.399	197.28
730.841	199.08
731.283	194.08
731.726	184.58
732.168	182.18
732.61	188.48
733.053	195.08
733.495	215.28
733.937	244.68
734.379	271.98
734.821	295.88
735.263	367.38
735.705	556.78
736.148	1037.48
736.59	1779.68
737.032	2251.98
737.474	1839.08
737.916	579.48
738.357	297.28
738.799	234.08
739.241	204.28
739.683	197.68
740.125	197.88
740.567	203.88
741.008	223.18
741.45	216.78
741.892	218.68
742.334	248.68
742.775	251.28
743.217	243.88
743.658	191.58
744.1	178.48
744.542	185.18
744.983	226.28
745.425	255.78
745.866	257.78
746.307	198.38
746.749	189.28
747.19	215.98
747.632	303.68
748.073	570.18
748.514	1246.68
748.956	1992.38
749.397	2514.98
749.838	2096.98
750.279	2196.58
750.72	1106.68
751.162	386.78
751.603	221.18
752.044	179.78
752.485	146.58
752.926	144.38
753.367	140.68
753.808	134.98
754.249	131.98
754.69	124.08
755.131	125.08
755.572	126.98
756.013	120.58
756.453	126.48
756.894	122.78
757.335	125.38
757.776	130.58
758.216	130.88
758.657	131.68
759.098	133.68
759.538	154.48
759.979	179.48
760.42	248.98
760.86	466.18
761.301	1217.48
761.741	3076.98
762.182	4874.38
762.622	3441.08
763.063	960.98
763.503	372.18
763.943	225.98
764.384	197.58
764.824	190.68
765.264	178.58
765.705	146.08
766.145	124.18
766.585	122.08
767.025	118.88
767.465	109.28
767.906	123.58
768.346	143.48
768.786	147.48
769.226	146.18
769.666	206.98
770.106	403.48
770.546	1029.98
770.986	1905.28
771.426	1758.88
771.866	566.88
772.306	229.98
772.745	141.28
773.185	114.18
773.625	111.78
774.065	101.38
774.505	112.88
774.944	149.78
775.384	261.88
775.824	465.48
776.263	459.98
776.703	209.88
777.142	109.28
777.582	95.38
778.021	79.58
778.461	87.88
778.9	86.28
779.34	84.18
779.779	73.38
780.219	73.18
780.658	70.08
781.097	78.48
781.537	71.38
781.976	74.08
782.415	70.38
782.855	66.98
783.294	70.48
783.733	69.48
784.172	77.48
784.611	66.88
785.05	68.28
785.489	72.58
785.928	82.78
786.367	80.08
786.806	81.28
787.245	90.28
787.684	87.68
788.123	104.18
788.562	91.68
789.001	87.18
789.44	85.18
789.879	83.48
790.317	83.38
790.756	89.88
791.195	85.68
791.634	103.28
792.072	134.28
792.511	241.48
792.95	653.98
793.388	1521.58
793.827	1441.58
794.265	486.98
794.704	197.88
795.142	133.38
795.581	110.08
796.019	92.98
796.458	88.78
796.896	85.68
797.334	88.68
797.773	102.78
798.211	144.18
798.649	283.08
799.087	695.08
799.526	1126.68
799.964	1423.58
800.402	1510.98
800.84	551.58
801.278	213.68
801.716	127.98
802.154	109.48
802.592	104.78
803.03	93.78
803.468	88.58
803.906	97.48
804.344	108.38
804.782	95.78
805.22	90.28
805.658	88.38
806.096	99.88
806.533	106.78
806.971	120.58
807.409	150.18
807.847	214.28
808.284	444.08
808.722	1281.38
809.16	2410.88
809.597	2222.08
810.035	3961.18
810.472	4524.78
810.91	1604.58
811.347	587.58
811.785	289.08
812.222	178.68
812.66	142.18
813.097	120.78
813.535	104.58
813.972	95.58
814.409	88.78
814.846	76.78
815.284	76.08
815.721	69.38
816.158	65.38
816.595	76.58
817.032	108.58
817.47	136.88
817.907	105.98
818.344	75.78
818.781	61.38
819.218	65.78
819.655	85.78
820.092	142.28
820.529	169.08
820.966	129.58
821.403	95.48
821.839	68.48
822.276	66.08
822.713	81.68
823.15	100.28
823.587	79.88
824.023	97.78
824.46	193.18
824.897	616.18
825.333	995.68
825.77	432.78
826.206	167.88
826.643	92.18
827.08	69.98
827.516	54.48
827.953	54.58
828.389	56.58
828.825	50.68
829.262	41.88
829.698	46.28
830.135	41.98
830.571	43.88
831.007	43.68
831.443	39.38
831.88	40.78
832.316	47.08
832.752	43.98
833.188	48.98
833.624	36.78
834.06	48.88
834.497	43.98
834.933	49.38
835.369	50.58
835.805	50.38
836.241	44.58
836.677	52.58
837.112	64.58
837.548	70.38
837.984	95.58
838.42	134.98
838.856	338.68
839.292	1075.18
839.727	1725.08
840.163	795.58
840.599	644.18
841.034	1465.58
841.47	1640.18
841.906	586.28
842.341	242.88
842.777	145.28
843.212	148.38
843.648	144.98
844.083	81.88
844.519	59.08
844.954	48.18
845.39	41.58
845.825	43.08
846.261	37.58
846.696	36.38
847.131	35.08
847.566	41.58
848.002	31.38
848.437	39.68
848.872	41.58
849.307	37.98
849.742	63.28
850.177	110.88
850.613	388.08
851.048	649.68
851.483	284.18
851.918	109.08
852.353	59.38
852.788	34.98
853.223	34.68
853.657	38.88
854.092	32.28
854.527	25.28
854.962	24.48
855.397	29.18
855.832	34.58
856.266	24.08
856.701	28.28
857.136	28.78
857.57	27.28
858.005	37.98
858.44	51.78
858.874	26.38
859.309	39.28
859.743	23.18
860.178	28.88
860.612	29.08
861.047	37.88
861.481	51.28
861.915	50.58
862.35	39.18
862.784	20.38
863.218	26.08
863.653	21.38
864.087	31.08
864.521	34.38
864.955	37.58
865.39	105.48
865.824	124.48
866.258	82.98
866.692	129.68
867.126	146.18
867.56	85.68
867.994	44.28
868.428	28.28
868.862	31.68
869.296	39.58
869.73	44.28
870.164	38.78
870.598	34.28
871.031	25.98
871.465	24.08
871.899	22.08
872.333	14.68
872.766	14.28
873.2	14.38
873.634	18.98
874.067	17.08
874.501	22.28
874.935	27.38
875.368	24.18
875.802	16.38
876.235	15.38
876.669	16.48
877.102	8.38
877.535	12.18
877.969	21.38
878.402	13.78
878.836	12.38
879.269	12.68
879.702	17.68
880.135	12.98
880.569	14.08
881.002	12.58
881.435	12.98
881.868	11.48
882.301	14.48
882.734	6.58
883.167	11.08
883.601	12.28
884.034	17.58
884.467	8.08
884.899	15.18
885.332	9.68
885.765	11.38
886.198	15.38
886.631	12.68
887.064	12.48
887.497	17.98
887.929	20.38
888.362	5.68
888.795	6.18
889.228	8.98
889.66	8.98
890.093	13.48
890.526	11.68
890.958	10.18
891.391	17.78
891.823	19.58
892.256	7.98
892.688	6.38
893.121	11.48
893.553	8.48
893.985	14.78
894.418	14.08
894.85	2.48
895.282	8.08
895.715	12.08
896.147	8.18
896.579	9.98
897.011	13.58
897.444	5.68
897.876	15.38
898.308	12.38
898.74	11.58
899.172	10.78
899.604	17.98
900.036	17.98
900.468	6.38
900.9	7.58
901.332	10.78
901.764	11.68
902.196	10.78
902.628	15.28
903.06	8.48
903.491	19.78
903.923	10.18
904.355	11.28
904.787	14.68
905.218	15.08
905.65	9.58
906.082	10.58
906.513	2.88
906.945	7.98
907.376	8.98
907.808	14.88
908.239	12.98
908.671	10.88
909.102	10.08
909.534	13.68
909.965	29.48
910.397	62.48
910.828	224.78
911.259	366.68
911.691	164.38
912.122	71.68
912.553	34.88
912.984	24.18
913.415	26.48
913.847	15.28
914.278	12.38
914.709	12.48
915.14	14.98
915.571	15.08
916.002	4.98
916.433	18.38
916.864	14.48
917.295	16.98
917.726	17.28
918.157	9.58
918.587	22.38
919.018	12.58
919.449	11.18
919.88	16.18
920.311	27.98
920.741	31.38
921.172	112.58
921.603	113.78
922.033	45.78
922.464	30.48
922.895	15.18
923.325	14.58
923.756	9.78
924.186	5.18
924.617	11.98
925.047	17.58
925.478	18.88
925.908	17.68
926.338	8.28
926.769	9.38
927.199	9.88
927.629	4.78
928.06	8.88
928.49	8.98
928.92	9.48
929.35	5.58
929.78	4.28
930.21	5.38
930.641	12.28
931.071	3.78
931.501	1.28
931.931	12.48
932.361	6.08
932.791	0.88
933.221	6.98
933.651	-0.02
934.08	7.38
934.51	18.98
934.94	3.98
935.37	4.68
935.8	9.98
936.229	4.98
936.659	3.58
937.089	-1.52
937.519	7.88
937.948	22.08
938.378	15.18
938.807	5.48
939.237	0.58
939.666	2.78
940.096	-3.92
940.525	4.18
940.955	0.28
941.384	4.58
941.814	-5.22
942.243	-4.22
942.672	4.38
943.102	1.48
943.531	-1.52
943.96	1.38
944.39	2.58
944.819	1.08
945.248	2.68
945.677	2.28
946.106	7.88
946.535	9.78
946.964	0.38
947.393	0.88
947.822	-3.62
948.251	-6.92
948.68	-1.22
949.109	9.58
949.538	2.48
949.967	-2.42
950.396	-0.62
950.825	-2.92
951.254	0.28
951.682	-9.52
952.111	-0.92
952.54	-4.32
952.969	-9.82
953.397	-7.32
953.826	-1.32
954.254	-2.12
954.683	4.68
955.112	-4.52
955.54	1.08
955.969	7.78
956.397	-1.32
956.826	-6.32
957.254	-0.82
957.682	1.38
958.111	6.78
958.539	-1.72
958.967	-3.52
959.396	-2.52
959.824	-1.62
960.252	1.58
960.68	2.48
961.109	-1.92
961.537	-3.12
961.965	0.18
962.393	1.58
962.821	-5.62
963.249	0.38
963.677	3.58
964.105	0.98
964.533	30.98
964.961	31.58
965.389	19.88
965.817	6.48
966.245	-2.02
966.672	-8.12
967.1	-7.32
967.528	1.58
967.956	-10.02
968.383	-3.02
968.811	-2.52
969.239	-1.22
969.666	-8.92
970.094	1.38
970.522	1.98
970.949	-1.82
971.377	-6.52
971.804	-4.02
972.232	-3.52
972.659	-4.52
973.087	-2.02
973.514	-2.22
973.941	-3.92
974.369	-1.02
974.796	0.18
975.223	5.48
975.651	-3.52
976.078	-2.42
976.505	-7.02
976.932	6.38
977.359	14.78
977.786	13.08
978.214	1.88
978.641	-6.52
979.068	-8.42
979.495	-4.82
979.922	-1.52
980.349	-4.32
980.776	4.98
981.202	-2.92
981.629	-2.52
982.056	2.48
982.483	-1.42
982.91	7.68
983.337	-4.62
983.763	5.98
984.19	-7.72
984.617	-2.32
985.043	-9.42
985.47	-3.72
985.897	-9.22
986.323	-4.52
986.75	5.58
987.176	2.38
987.603	2.68
988.029	-3.02
988.456	0.48
988.882	3.88
989.308	-6.62
989.735	-3.92
990.161	3.48
990.587	-2.62
991.014	-7.62
991.44	6.98
991.866	-5.62
992.292	-3.72
992.719	-3.82
993.145	3.18
993.571	-12.62
993.997	3.28
994.423	-2.72
994.849	-7.22
995.275	0.48
995.701	-2.12
996.127	-1.02
996.553	-3.52
996.979	-3.72
997.405	0.58
997.83	-4.52
998.256	-9.22
998.682	-8.72
999.108	-10.72
999.534	-1.22
999.959	-1.42
1000.385	-2.12
1000.811	-2.22
1001.236	-10.92
1001.662	-11.52
1002.087	-11.62
1002.513	1.68
1002.938	1.68
1003.364	-0.32
1003.789	2.48
1004.215	4.88
1004.64	-1.32
1005.066	-3.52
1005.491	-3.52
1005.916	-5.22
1006.342	-4.12
1006.767	-3.92
1007.192	5.88
1007.617	-2.82
1008.042	-4.52
1008.468	-3.52
1008.893	0.18
1009.318	-1.22
1009.743	-5.92
1010.168	6.68
1010.593	7.28
1011.018	-14.22
1011.443	-5.42
1011.868	-3.92
1012.293	-3.12
1012.718	-5.02
1013.143	4.38
1013.567	-0.32
1013.992	-2.92
1014.417	-11.32
1014.842	0.98
1015.267	-4.72
1015.691	-4.02
1016.116	3.08
1016.541	-1.82
1016.965	5.98
1017.39	7.08
1017.814	-6.62
1018.239	-10.12
1018.663	-8.12
1019.088	-6.82
1019.512	-3.72
1019.937	6.48
1020.361	-6.22
1020.785	-6.92
1021.21	0.58
1021.634	4.68
1022.058	-7.02
1022.483	-0.02
1022.907	-8.42
1023.331	-2.12
1023.755	1.48
1024.179	-0.02
1024.604	-7.42
1025.028	-7.72
1025.452	-6.92
1025.876	-3.12
1026.3	1.88
1026.724	-5.62
1027.148	3.08
1027.572	-10.52
1027.996	-0.72
1028.42	-2.82
1028.843	-8.82
1029.267	-4.32
1029.691	-0.22
1030.115	-5.42
1030.539	-8.12
1030.962	-4.92
1031.386	-12.02
1031.81	2.38
1032.233	-1.92
1032.657	-3.42
1033.08	-2.02
1033.504	-3.42
1033.927	-3.52
1034.351	-2.82
1034.774	-5.62
1035.198	-5.32
1035.621	-10.72
1036.045	-7.82
1036.468	-2.22
1036.891	-10.72
1037.315	-7.32
1037.738	-4.82
1038.161	3.08
1038.584	-5.52
1039.008	-2.22
1039.431	-0.72
1039.854	0.78
1040.277	-8.02
1040.7	-4.72
1041.123	-1.82
1041.546	-8.82
1041.969	-2.12
1042.392	-2.82
1042.815	-4.02
1043.238	1.98
1043.661	-1.12
1044.084	-4.92
1044.507	-3.82
1044.93	-4.22
1045.352	-7.62
1045.775	-1.92
1046.198	-5.32
1046.621	-0.12
1047.043	-2.92
1047.466	-0.92
1047.889	-4.82
1048.311	-1.92
1048.734	-3.72
1049.156	-2.62
1049.579	-4.22
1050.001	-1.12
1050.424	1.48
1050.846	-4.22
1051.269	-6.92
1051.691	-14.82
1052.113	-5.32
1052.536	-2.82
1052.958	-0.32
1053.38	-5.12
1053.802	-6.32
1054.225	8.48
1054.647	-9.42
1055.069	-5.02
1055.491	-0.22
1055.913	-5.62
1056.335	-5.22
1056.757	-1.92
1057.179	-2.42
1057.601	-1.92
1058.023	-5.72
1058.445	-2.32
1058.867	-3.02
1059.289	0.18
1059.711	-4.62
1060.133	-6.72
1060.555	-3.02
1060.976	-5.02
1061.398	-12.22
1061.82	-5.42
1062.241	0.08
1062.663	-8.02
1063.085	-7.02
1063.506	-1.72
1063.928	-3.22
1064.35	0.88
1064.771	-9.42
1065.193	0.48
1065.614	-8.22
1066.035	-2.42
1066.457	-7.82
1066.878	-1.52
1067.3	-5.42
1067.721	-8.82
1068.142	-6.72
1068.564	-4.22
1068.985	-5.32
1069.406	0.08
1069.827	-1.12
1070.248	-0.22
1070.67	-3.72
1071.091	-3.22
1071.512	-5.22
1071.933	-3.72
1072.354	-6.52
1072.775	-2.92
1073.196	-6.02
1073.617	-3.32
1074.038	-4.32
1074.459	-4.32
1074.88	-11.92
1075.3	2.08
1075.721	-4.42
1076.142	1.78
1076.563	0.18
1076.983	-13.62
1077.404	-6.92
1077.825	-14.32
1078.246	-5.02
1078.666	-9.02
1079.087	-6.02
1079.507	-9.52
1079.928	-1.32
1080.348	-1.62
1080.769	-5.22
1081.189	-3.92
1081.61	-1.22
1082.03	-10.72
1082.451	-3.72
1082.871	-2.12
1083.291	-7.52
1083.711	-2.62
1084.132	-5.22
1084.552	-6.52
1084.972	-0.82
1085.392	-10.02
1085.813	-9.52
1086.233	-6.62
1086.653	-7.22
1087.073	-0.02
1087.493	-6.82
1087.913	-1.82
1088.333	-8.72
1088.753	-4.12
1089.173	2.98
1089.593	-3.32
1090.013	-1.42
1090.433	4.78
1090.852	-4.32
1091.272	-0.12
1091.692	1.38
1092.112	-4.32
1092.531	-6.52
1092.951	-12.82
1093.371	1.48
1093.79	3.28
1094.21	-3.42
1094.63	-9.02
1095.049	-1.52
1095.469	-3.32
1095.888	-8.22
1096.308	-2.12
1096.727	6.58
1097.146	-3.52
1097.566	-0.22
1097.985	-8.02
1098.405	-2.92
1098.824	-6.32
1099.243	-7.32
1099.662	-6.92
1100.082	-1.22
1100.501	-4.92
1100.92	-8.52
1101.339	-6.52
1101.758	-3.82
