Data from 20171114-ORNL-Ar_H_NY_Subt18_08-04-05-338.txt Node
Date: Tue Nov 14 08:04:05 EST 2017
User: Ender
Spectrometer: HR+D1039
Trigger mode: 0
Integration Time (sec): 2.730000E-2
Scans to average: 10
Electric dark correction enabled: true
Nonlinearity correction enabled: false
Boxcar width: 0
XAxis mode: Wavelengths
Number of Pixels in Spectrum: 2048
>>>>>Begin Spectral Data<<<<<
187.836	-5.98
188.309	-5.98
188.782	-5.98
189.255	0.72
189.728	0.82
190.201	4.62
190.674	-0.78
191.147	2.02
191.619	-7.78
192.092	2.82
192.565	3.82
193.038	2.52
193.511	-0.08
193.984	3.12
194.456	-0.88
194.929	1.72
195.402	-3.08
195.874	-3.58
196.347	0.82
196.82	-7.38
197.292	7.22
197.765	1.72
198.237	-9.68
198.71	2.22
199.182	0.82
199.655	-3.18
200.127	1.32
200.6	-2.08
201.072	-1.88
201.544	-3.08
202.017	2.62
202.489	-2.18
202.961	-6.28
203.433	-4.48
203.906	-5.78
204.378	-12.38
204.85	-5.78
205.322	-9.28
205.794	-3.18
206.266	-0.48
206.739	-6.68
207.211	1.22
207.683	-9.98
208.155	-7.98
208.627	-6.88
209.099	-3.18
209.57	-5.68
210.042	-4.28
210.514	-5.98
210.986	-3.18
211.458	-10.48
211.93	-4.78
212.402	3.92
212.873	-11.88
213.345	-6.48
213.817	-8.68
214.288	-11.18
214.76	-13.28
215.232	-6.68
215.703	-4.68
216.175	-2.78
216.646	-7.98
217.118	-11.68
217.589	-6.68
218.061	-6.68
218.532	-7.88
219.004	-7.18
219.475	-7.98
219.946	-4.58
220.418	-7.68
220.889	-0.18
221.36	-0.78
221.832	-9.48
222.303	-11.98
222.774	2.02
223.245	-8.48
223.717	-6.28
224.188	-0.28
224.659	-10.78
225.13	-7.68
225.601	-3.08
226.072	0.12
226.543	-5.08
227.014	-0.78
227.485	-11.98
227.956	-11.88
228.427	-2.48
228.898	-7.38
229.369	1.62
229.839	-0.98
230.31	-6.38
230.781	-3.78
231.252	-0.28
231.722	-1.18
232.193	-1.98
232.664	-0.98
233.135	2.52
233.605	-6.38
234.076	-7.08
234.546	-1.98
235.017	2.32
235.487	2.72
235.958	-6.48
236.428	-10.28
236.899	-1.38
237.369	5.02
237.84	-3.38
238.31	3.62
238.78	-1.38
239.251	-6.18
239.721	-2.68
240.191	-7.18
240.662	-4.78
241.132	-1.18
241.602	-3.18
242.072	-1.88
242.542	6.42
243.013	-2.18
243.483	0.62
243.953	5.02
244.423	-1.38
244.893	-7.08
245.363	-2.58
245.833	-0.58
246.303	-0.38
246.773	7.52
247.243	0.22
247.712	0.22
248.182	1.82
248.652	2.82
249.122	-4.18
249.592	6.82
250.061	10.72
250.531	23.92
251.001	3.92
251.471	10.32
251.94	10.32
252.41	-2.58
252.879	-2.48
253.349	9.82
253.818	5.22
254.288	5.82
254.757	1.32
255.227	-1.38
255.696	-2.58
256.166	4.62
256.635	1.42
257.105	3.12
257.574	6.82
258.043	4.02
258.513	-0.68
258.982	7.32
259.451	2.82
259.92	4.12
260.389	8.32
260.859	14.72
261.328	6.02
261.797	9.42
262.266	-2.48
262.735	12.12
263.204	-1.18
263.673	-1.38
264.142	4.92
264.611	-3.48
265.08	-5.28
265.549	-2.08
266.018	5.12
266.487	-4.68
266.955	-7.48
267.424	-3.88
267.893	5.12
268.362	0.92
268.83	1.62
269.299	3.72
269.768	2.72
270.236	4.32
270.705	5.02
271.174	3.92
271.642	0.92
272.111	4.92
272.579	7.52
273.048	12.02
273.516	16.52
273.985	9.82
274.453	14.92
274.922	12.12
275.39	6.32
275.858	4.42
276.327	11.42
276.795	12.02
277.263	4.12
277.731	10.92
278.2	30.92
278.668	35.72
279.136	27.32
279.604	11.12
280.072	7.62
280.54	7.82
281.008	7.52
281.477	7.82
281.945	6.12
282.413	6.72
282.881	8.92
283.348	4.72
283.816	9.72
284.284	-0.98
284.752	12.02
285.22	8.12
285.688	8.12
286.156	12.52
286.623	25.62
287.091	30.52
287.559	22.22
288.026	4.42
288.494	8.12
288.962	-2.88
289.429	4.12
289.897	10.82
290.364	6.62
290.832	13.52
291.3	7.32
291.767	8.92
292.234	5.72
292.702	7.32
293.169	4.12
293.637	11.72
294.104	8.02
294.571	2.72
295.039	4.82
295.506	6.32
295.973	13.82
296.44	7.22
296.908	7.42
297.375	6.22
297.842	9.42
298.309	17.72
298.776	4.42
299.243	19.82
299.71	4.12
300.177	12.22
300.644	11.72
301.111	11.02
301.578	12.52
302.045	12.02
302.512	13.92
302.979	14.02
303.446	19.62
303.913	12.42
304.379	13.62
304.846	20.92
305.313	12.42
305.78	14.12
306.246	15.32
306.713	17.12
307.18	16.82
307.646	20.62
308.113	17.92
308.579	14.42
309.046	18.62
309.512	19.42
309.979	8.22
310.445	16.92
310.912	18.52
311.378	20.82
311.845	19.62
312.311	16.52
312.777	19.62
313.244	21.72
313.71	26.32
314.176	23.82
314.642	24.02
315.109	16.72
315.575	18.52
316.041	27.02
316.507	14.72
316.973	27.02
317.439	22.42
317.905	19.62
318.371	28.32
318.837	25.22
319.303	25.22
319.769	25.52
320.235	17.52
320.701	22.42
321.167	29.12
321.633	29.02
322.099	29.62
322.564	32.92
323.03	26.32
323.496	29.72
323.962	29.52
324.427	25.42
324.893	34.92
325.359	31.52
325.824	28.72
326.29	25.82
326.755	30.62
327.221	27.92
327.686	30.02
328.152	33.42
328.617	32.62
329.083	37.32
329.548	41.22
330.014	38.12
330.479	30.32
330.944	33.22
331.41	32.12
331.875	30.62
332.34	28.42
332.805	28.82
333.271	37.02
333.736	32.02
334.201	42.12
334.666	41.52
335.131	38.62
335.596	43.42
336.061	37.82
336.526	32.22
336.991	40.72
337.456	38.62
337.921	40.42
338.386	33.22
338.851	34.32
339.316	39.02
339.781	38.52
340.246	42.72
340.711	39.62
341.175	38.72
341.64	35.22
342.105	37.72
342.569	43.72
343.034	42.42
343.499	47.02
343.963	41.72
344.428	52.42
344.893	49.82
345.357	50.92
345.822	49.62
346.286	48.62
346.751	55.42
347.215	53.02
347.679	54.32
348.144	59.52
348.608	61.72
349.073	55.12
349.537	58.12
350.001	63.42
350.465	68.42
350.93	58.12
351.394	61.82
351.858	66.82
352.322	75.82
352.786	59.42
353.25	75.92
353.715	85.62
354.179	77.72
354.643	88.92
355.107	88.02
355.571	85.22
356.035	86.82
356.498	91.32
356.962	91.82
357.426	99.72
357.89	88.12
358.354	65.62
358.818	71.42
359.281	62.22
359.745	61.82
360.209	63.72
360.673	58.72
361.136	70.92
361.6	69.52
362.064	66.42
362.527	67.82
362.991	74.42
363.454	66.62
363.918	60.62
364.381	62.12
364.845	61.52
365.308	76.52
365.772	73.42
366.235	80.82
366.698	66.32
367.162	70.12
367.625	72.82
368.088	71.12
368.552	70.42
369.015	77.72
369.478	75.22
369.941	83.82
370.404	70.12
370.867	84.22
371.331	84.82
371.794	87.92
372.257	86.42
372.72	93.82
373.183	95.72
373.646	87.12
374.109	88.52
374.572	89.72
375.035	87.52
375.497	90.22
375.96	90.62
376.423	85.92
376.886	92.92
377.349	95.52
377.811	86.62
378.274	89.62
378.737	88.82
379.199	93.72
379.662	93.52
380.125	99.42
380.587	100.12
381.05	101.12
381.512	102.82
381.975	111.82
382.437	112.72
382.9	106.02
383.362	105.52
383.825	120.32
384.287	121.32
384.75	110.12
385.212	121.02
385.674	118.92
386.136	117.32
386.599	110.12
387.061	111.02
387.523	115.62
387.985	119.52
388.447	123.02
388.91	120.62
389.372	135.42
389.834	131.12
390.296	118.72
390.758	121.32
391.22	132.52
391.682	161.52
392.144	227.72
392.606	179.62
393.068	143.42
393.529	133.12
393.991	126.42
394.453	122.02
394.915	136.32
395.377	156.62
395.838	169.62
396.3	131.82
396.762	123.02
397.224	123.52
397.685	113.32
398.147	114.02
398.608	113.82
399.07	115.02
399.531	110.72
399.993	117.22
400.454	132.12
400.916	127.52
401.377	127.82
401.839	133.12
402.3	131.12
402.762	138.92
403.223	162.52
403.684	151.82
404.145	140.32
404.607	145.02
405.068	144.32
405.529	148.02
405.99	158.02
406.451	149.02
406.913	154.42
407.374	145.12
407.835	142.32
408.296	146.12
408.757	152.72
409.218	162.52
409.679	156.02
410.14	153.12
410.601	156.32
411.062	163.02
411.522	165.22
411.983	166.22
412.444	150.82
412.905	154.72
413.366	163.22
413.826	168.12
414.287	187.52
414.748	231.42
415.208	224.32
415.669	195.02
416.13	184.42
416.59	180.72
417.051	191.82
417.511	189.82
417.972	212.32
418.432	220.32
418.893	269.02
419.353	234.22
419.814	174.12
420.274	162.22
420.734	158.22
421.195	183.82
421.655	175.52
422.115	170.92
422.576	172.72
423.036	173.72
423.496	181.32
423.956	190.92
424.416	204.22
424.876	235.82
425.336	230.42
425.797	227.82
426.257	224.72
426.717	207.72
427.177	211.12
427.637	202.72
428.097	208.52
428.556	215.82
429.016	236.62
429.476	226.62
429.936	234.42
430.396	241.02
430.856	254.32
431.315	272.02
431.775	307.62
432.235	334.12
432.694	308.72
433.154	309.12
433.614	331.02
434.073	288.72
434.533	251.12
434.993	234.62
435.452	235.62
435.912	258.32
436.371	245.22
436.83	241.02
437.29	230.82
437.749	218.42
438.209	205.52
438.668	228.52
439.127	240.12
439.587	226.92
440.046	216.12
440.505	225.22
440.964	237.22
441.424	264.32
441.883	256.92
442.342	226.92
442.801	202.82
443.26	194.72
443.719	197.62
444.178	192.12
444.637	181.62
445.096	194.22
445.555	202.22
446.014	200.12
446.473	208.72
446.932	208.02
447.391	206.12
447.849	212.02
448.308	195.52
448.767	197.02
449.226	216.12
449.685	214.92
450.143	222.42
450.602	211.42
451.061	203.52
451.519	207.42
451.978	204.02
452.436	209.42
452.895	216.82
453.353	228.42
453.812	210.22
454.27	205.32
454.729	216.72
455.187	206.72
455.646	210.32
456.104	213.32
456.562	228.72
457.021	232.22
457.479	225.92
457.937	239.72
458.395	226.52
458.854	216.72
459.312	221.22
459.77	235.02
460.228	226.72
460.686	224.12
461.144	221.62
461.602	216.82
462.06	219.22
462.518	219.72
462.976	227.42
463.434	227.62
463.892	229.62
464.35	239.22
464.808	254.72
465.266	238.72
465.724	242.42
466.181	238.92
466.639	242.42
467.097	259.92
467.555	263.52
468.012	268.82
468.47	273.02
468.928	290.32
469.385	290.72
469.843	301.02
470.3	301.32
470.758	315.92
471.215	325.82
471.673	343.32
472.13	344.02
472.588	351.42
473.045	327.62
473.503	334.02
473.96	343.92
474.417	353.82
474.875	377.82
475.332	413.02
475.789	401.22
476.246	405.82
476.704	426.72
477.161	446.22
477.618	457.42
478.075	483.42
478.532	525.52
478.989	591.82
479.446	674.62
479.903	662.02
480.36	700.32
480.817	755.32
481.274	841.82
481.731	929.12
482.188	1005.52
482.645	1134.52
483.102	1230.12
483.558	1350.02
484.015	1391.22
484.472	1381.72
484.929	1325.32
485.385	1298.02
485.842	1257.52
486.299	1203.92
486.755	1110.72
487.212	952.12
487.668	817.02
488.125	753.82
488.582	699.02
489.038	663.42
489.494	627.42
489.951	605.52
490.407	599.62
490.864	576.62
491.32	566.62
491.776	563.92
492.233	558.22
492.689	540.72
493.145	530.32
493.602	526.32
494.058	535.02
494.514	542.22
494.97	566.22
495.426	557.02
495.882	543.12
496.338	536.12
496.794	542.72
497.251	542.12
497.707	542.62
498.163	554.02
498.618	559.12
499.074	560.22
499.53	576.32
499.986	572.62
500.442	565.22
500.898	545.22
501.354	542.72
501.809	547.42
502.265	555.62
502.721	567.02
503.177	585.92
503.632	577.12
504.088	582.92
504.543	603.02
504.999	608.82
505.455	572.82
505.91	557.82
506.366	552.32
506.821	549.62
507.277	540.42
507.732	552.92
508.187	552.02
508.643	559.62
509.098	554.82
509.553	571.82
510.009	572.82
510.464	579.82
510.919	589.42
511.375	603.62
511.83	612.02
512.285	630.12
512.74	660.42
513.195	681.02
513.65	665.42
514.105	670.32
514.56	668.12
515.015	679.52
515.47	700.12
515.925	689.42
516.38	682.02
516.835	680.62
517.29	676.82
517.745	682.92
518.2	658.82
518.655	663.82
519.109	651.92
519.564	649.62
520.019	630.52
520.474	622.62
520.928	629.12
521.383	629.62
521.838	619.12
522.292	620.32
522.747	610.32
523.201	607.12
523.656	596.12
524.11	592.92
524.565	602.32
525.019	597.02
525.474	604.12
525.928	606.52
526.382	610.42
526.837	599.92
527.291	598.62
527.745	601.42
528.2	604.02
528.654	591.12
529.108	590.92
529.562	582.02
530.016	591.22
530.47	588.22
530.925	588.52
531.379	597.82
531.833	599.72
532.287	602.92
532.741	603.82
533.195	597.42
533.649	614.52
534.103	614.82
534.556	609.32
535.01	614.22
535.464	605.32
535.918	618.62
536.372	605.72
536.826	611.52
537.279	602.92
537.733	605.42
538.187	607.62
538.64	602.12
539.094	606.52
539.548	617.42
540.001	610.52
540.455	622.52
540.908	629.82
541.362	621.52
541.815	632.32
542.269	646.82
542.722	647.42
543.175	642.32
543.629	643.52
544.082	671.12
544.536	668.12
544.989	658.22
545.442	675.72
545.895	665.62
546.349	671.82
546.802	666.12
547.255	677.82
547.708	680.62
548.161	687.22
548.614	691.82
549.067	698.62
549.52	683.42
549.973	685.32
550.426	689.62
550.879	668.42
551.332	671.62
551.785	676.82
552.238	675.72
552.691	689.42
553.144	690.52
553.596	711.82
554.049	730.82
554.502	741.82
554.955	763.42
555.407	766.92
555.86	745.62
556.313	746.32
556.765	738.82
557.218	733.62
557.67	734.72
558.123	727.12
558.576	731.52
559.028	732.12
559.48	735.92
559.933	731.92
560.385	702.62
560.838	684.12
561.29	657.02
561.742	657.12
562.195	636.62
562.647	634.92
563.099	649.62
563.551	645.12
564.004	665.22
564.456	629.42
564.908	627.02
565.36	617.82
565.812	608.12
566.264	603.82
566.716	596.82
567.168	585.82
567.62	599.22
568.072	581.22
568.524	572.82
568.976	568.62
569.428	556.52
569.88	557.72
570.332	558.82
570.784	571.42
571.235	560.02
571.687	574.42
572.139	572.82
572.59	590.92
573.042	577.32
573.494	578.42
573.945	576.12
574.397	559.12
574.849	564.72
575.3	560.92
575.752	561.32
576.203	550.72
576.655	565.32
577.106	559.32
577.557	545.02
578.009	541.52
578.46	546.72
578.912	530.42
579.363	538.12
579.814	536.82
580.265	536.62
580.717	548.52
581.168	548.22
581.619	549.42
582.07	547.82
582.521	540.92
582.972	542.12
583.423	542.92
583.875	550.72
584.326	576.42
584.777	601.42
585.227	644.82
585.678	706.92
586.129	779.22
586.58	833.62
587.031	894.12
587.482	1020.92
587.933	1148.72
588.384	1003.02
588.834	768.42
589.285	646.92
589.736	635.62
590.186	634.32
590.637	614.62
591.088	587.72
591.538	597.92
591.989	592.02
592.439	580.62
592.89	585.92
593.34	566.02
593.791	556.32
594.241	559.12
594.692	563.92
595.142	555.62
595.593	551.02
596.043	563.32
596.493	566.62
596.943	567.92
597.394	574.62
597.844	562.62
598.294	576.92
598.744	597.42
599.195	622.02
599.645	653.12
600.095	686.32
600.545	726.42
600.995	759.02
601.445	814.02
601.895	861.82
602.345	907.72
602.795	891.22
603.245	854.12
603.695	816.12
604.145	762.72
604.594	720.72
605.044	690.82
605.494	644.42
605.944	600.32
606.393	587.22
606.843	572.62
607.293	577.12
607.743	573.52
608.192	588.32
608.642	598.02
609.091	593.92
609.541	594.52
609.99	604.82
610.44	609.02
610.889	563.92
611.339	541.92
611.788	542.02
612.238	549.02
612.687	565.42
613.136	561.72
613.586	568.92
614.035	570.82
614.484	585.42
614.933	586.02
615.383	569.12
615.832	572.72
616.281	560.42
616.73	544.72
617.179	520.72
617.628	505.42
618.077	506.92
618.526	484.92
618.975	472.92
619.424	482.42
619.873	469.92
620.322	475.32
620.771	468.12
621.22	469.52
621.669	462.92
622.118	460.62
622.567	444.52
623.015	437.82
623.464	443.02
623.913	430.32
624.361	430.02
624.81	425.52
625.259	424.02
625.707	426.92
626.156	435.02
626.604	446.72
627.053	438.12
627.501	431.92
627.95	440.62
628.398	451.42
628.847	442.82
629.295	437.92
629.744	444.02
630.192	435.02
630.64	445.02
631.089	431.22
631.537	434.52
631.985	432.12
632.433	447.72
632.881	442.42
633.33	490.52
633.778	464.02
634.226	423.92
634.674	427.62
635.122	434.12
635.57	451.82
636.018	466.52
636.466	440.72
636.914	426.02
637.362	442.02
637.81	442.92
638.258	443.92
638.705	450.22
639.153	470.82
639.601	473.82
640.049	484.72
640.497	512.92
640.944	537.42
641.392	493.82
641.84	466.02
642.287	460.32
642.735	430.32
643.182	427.32
643.63	434.72
644.078	432.12
644.525	453.92
644.973	456.72
645.42	458.02
645.867	478.62
646.315	485.52
646.762	506.92
647.21	525.42
647.657	544.72
648.104	572.52
648.551	590.42
648.999	637.52
649.446	700.82
649.893	755.82
650.34	865.52
650.787	1021.42
651.234	1281.02
651.682	1650.22
652.129	2257.12
652.576	3208.22
653.023	4750.52
653.47	6619.32
653.917	8355.02
654.363	9834.22
654.81	11109.42
655.257	10553.02
655.704	6868.72
656.151	4034.72
656.598	2609.52
657.044	1838.42
657.491	1409.02
657.938	1134.32
658.385	954.62
658.831	826.42
659.278	723.42
659.724	640.62
660.171	592.72
660.618	545.92
661.064	509.12
661.511	497.62
661.957	479.92
662.404	469.02
662.85	475.02
663.296	452.82
663.743	416.02
664.189	405.82
664.635	404.52
665.082	394.82
665.528	396.92
665.974	396.12
666.42	390.62
666.867	380.92
667.313	361.02
667.759	355.02
668.205	355.32
668.651	359.12
669.097	362.22
669.543	368.62
669.989	356.02
670.435	339.32
670.881	332.52
671.327	330.72
671.773	345.12
672.219	369.02
672.665	412.02
673.11	438.82
673.556	475.82
674.002	505.42
674.448	495.32
674.893	416.52
675.339	361.02
675.785	323.82
676.23	313.02
676.676	285.62
677.122	281.02
677.567	274.82
678.013	268.92
678.458	265.02
678.904	266.62
679.349	259.42
679.794	262.92
680.24	270.42
680.685	256.42
681.131	262.72
681.576	263.12
682.021	267.12
682.466	260.62
682.912	256.12
683.357	251.72
683.802	279.22
684.247	304.02
684.692	336.42
685.137	366.82
685.583	411.12
686.028	426.22
686.473	388.92
686.918	340.52
687.363	312.02
687.807	295.72
688.252	270.62
688.697	261.72
689.142	255.32
689.587	247.62
690.032	239.82
690.477	252.72
690.921	253.52
691.366	283.02
691.811	297.62
692.255	327.32
692.7	350.42
693.145	368.42
693.589	498.12
694.034	820.22
694.478	1137.82
694.923	1329.72
695.367	1768.02
695.812	924.52
696.256	378.92
696.701	278.72
697.145	254.12
697.59	239.12
698.034	236.42
698.478	241.52
698.922	239.02
699.367	242.12
699.811	247.42
700.255	264.72
700.699	281.42
701.143	301.82
701.588	348.02
702.032	388.32
702.476	385.42
702.92	366.82
703.364	360.92
703.808	463.92
704.252	736.52
704.696	1079.32
705.14	1270.92
705.584	1664.32
706.027	816.22
706.471	387.92
706.915	304.02
707.359	264.42
707.803	230.22
708.246	233.72
708.69	235.62
709.134	229.62
709.577	231.42
710.021	234.62
710.465	224.72
710.908	223.62
711.352	222.72
711.795	227.72
712.239	256.22
712.682	280.12
713.126	308.22
713.569	356.52
714.012	280.02
714.456	238.82
714.899	218.72
715.342	207.32
715.786	193.62
716.229	196.12
716.672	184.82
717.115	179.22
717.558	187.52
718.002	187.82
718.445	191.92
718.888	210.02
719.331	216.82
719.774	231.62
720.217	223.82
720.66	209.02
721.103	198.32
721.546	189.42
721.989	176.92
722.432	172.22
722.874	174.62
723.317	167.52
723.76	181.52
724.203	196.82
724.645	231.52
725.088	315.22
725.531	422.82
725.974	491.52
726.416	424.02
726.859	227.32
727.301	182.12
727.744	175.92
728.187	171.12
728.629	181.32
729.071	184.72
729.514	193.62
729.956	202.02
730.399	214.42
730.841	211.72
731.283	207.22
731.726	205.52
732.168	191.02
732.61	200.12
733.053	209.72
733.495	228.12
733.937	257.22
734.379	294.82
734.821	313.02
735.263	390.82
735.705	605.42
736.148	1133.72
736.59	1917.42
737.032	2381.12
737.474	1949.62
737.916	616.72
738.357	325.62
738.799	240.52
739.241	223.02
739.683	209.22
740.125	215.52
740.567	220.82
741.008	241.22
741.45	238.02
741.892	242.32
742.334	256.92
742.775	275.42
743.217	258.32
743.658	203.02
744.1	191.62
744.542	190.12
744.983	224.72
745.425	263.72
745.866	264.82
746.307	215.42
746.749	210.32
747.19	236.72
747.632	324.22
748.073	615.52
748.514	1340.42
748.956	2143.52
749.397	2684.02
749.838	2223.12
750.279	2333.22
750.72	1153.82
751.162	413.22
751.603	236.32
752.044	188.82
752.485	159.42
752.926	156.82
753.367	151.72
753.808	148.62
754.249	139.72
754.69	137.12
755.131	131.62
755.572	129.62
756.013	135.12
756.453	138.52
756.894	141.02
757.335	138.02
757.776	142.82
758.216	150.22
758.657	141.32
759.098	145.02
759.538	162.52
759.979	197.42
760.42	265.02
760.86	505.42
761.301	1300.92
761.741	3265.52
762.182	5132.72
762.622	3626.12
763.063	1012.12
763.503	412.12
763.943	256.32
764.384	241.42
764.824	286.12
765.264	319.12
765.705	220.12
766.145	152.22
766.585	137.92
767.025	131.22
767.465	130.22
767.906	175.92
768.346	228.12
768.786	251.52
769.226	182.92
769.666	228.22
770.106	432.62
770.546	1116.52
770.986	2038.72
771.426	1864.82
771.866	615.22
772.306	246.82
772.745	157.82
773.185	132.82
773.625	126.92
774.065	120.12
774.505	144.02
774.944	202.12
775.384	451.62
775.824	843.22
776.263	844.92
776.703	354.62
777.142	161.32
777.582	118.12
778.021	95.92
778.461	105.32
778.9	102.32
779.34	103.22
779.779	85.82
780.219	79.22
780.658	85.52
781.097	83.12
781.537	86.52
781.976	82.22
782.415	79.92
782.855	72.62
783.294	81.52
783.733	69.62
784.172	74.32
784.611	79.22
785.05	81.52
785.489	80.52
785.928	86.32
786.367	93.72
786.806	83.32
787.245	89.52
787.684	100.12
788.123	111.62
788.562	105.52
789.001	93.02
789.44	96.12
789.879	85.42
790.317	93.32
790.756	89.92
791.195	93.62
791.634	110.52
792.072	147.32
792.511	257.22
792.95	719.72
793.388	1649.62
793.827	1542.82
794.265	513.22
794.704	202.82
795.142	142.72
795.581	109.82
796.019	104.92
796.458	94.42
796.896	82.52
797.334	89.82
797.773	112.32
798.211	151.82
798.649	307.72
799.087	735.12
799.526	1202.22
799.964	1513.72
800.402	1593.12
800.84	586.02
801.278	227.52
801.716	139.92
802.154	113.82
802.592	107.42
803.03	104.32
803.468	100.32
803.906	101.02
804.344	115.02
804.782	106.82
805.22	100.62
805.658	94.92
806.096	113.32
806.533	118.52
806.971	133.82
807.409	154.92
807.847	235.22
808.284	465.32
808.722	1378.42
809.16	2559.22
809.597	2358.02
810.035	4185.62
810.472	4740.32
810.91	1676.62
811.347	618.52
811.785	309.02
812.222	194.52
812.66	145.12
813.097	122.12
813.535	104.02
813.972	92.12
814.409	93.82
814.846	83.22
815.284	81.42
815.721	78.22
816.158	78.12
816.595	89.42
817.032	129.42
817.47	149.22
817.907	132.22
818.344	101.42
818.781	84.72
819.218	65.12
819.655	94.62
820.092	145.52
820.529	179.12
820.966	131.72
821.403	106.72
821.839	80.32
822.276	74.72
822.713	96.22
823.15	101.32
823.587	84.72
824.023	103.32
824.46	211.72
824.897	654.62
825.333	1065.22
825.77	455.02
826.206	170.92
826.643	101.72
827.08	71.32
827.516	58.02
827.953	59.42
828.389	58.02
828.825	52.52
829.262	45.42
829.698	46.62
830.135	44.72
830.571	47.32
831.007	43.32
831.443	47.52
831.88	38.62
832.316	46.62
832.752	46.92
833.188	46.52
833.624	44.92
834.06	43.92
834.497	52.32
834.933	53.22
835.369	57.92
835.805	48.52
836.241	56.72
836.677	55.12
837.112	69.52
837.548	70.02
837.984	99.02
838.42	143.22
838.856	356.42
839.292	1135.82
839.727	1836.02
840.163	830.02
840.599	676.02
841.034	1560.22
841.47	1722.62
841.906	613.72
842.341	251.22
842.777	163.62
843.212	216.62
843.648	225.52
844.083	107.82
844.519	72.32
844.954	60.12
845.39	38.22
845.825	39.72
846.261	43.82
846.696	38.72
847.131	35.92
847.566	39.62
848.002	40.72
848.437	42.52
848.872	40.92
849.307	46.52
849.742	63.12
850.177	125.22
850.613	411.92
851.048	689.02
851.483	293.02
851.918	115.52
852.353	59.22
852.788	42.82
853.223	39.22
853.657	39.62
854.092	37.72
854.527	28.12
854.962	24.42
855.397	37.12
855.832	38.92
856.266	25.62
856.701	24.02
857.136	29.72
857.57	33.52
858.005	38.12
858.44	44.82
858.874	33.82
859.309	37.02
859.743	29.42
860.178	33.42
860.612	29.32
861.047	33.72
861.481	56.52
861.915	63.72
862.35	38.02
862.784	24.62
863.218	34.62
863.653	25.62
864.087	38.02
864.521	33.52
864.955	44.72
865.39	108.92
865.824	131.72
866.258	84.32
866.692	133.22
867.126	152.12
867.56	84.12
867.994	40.22
868.428	28.82
868.862	37.62
869.296	40.52
869.73	45.32
870.164	37.92
870.598	37.22
871.031	30.22
871.465	25.22
871.899	23.62
872.333	21.32
872.766	19.02
873.2	17.12
873.634	21.32
874.067	18.72
874.501	16.62
874.935	23.52
875.368	23.02
875.802	16.72
876.235	16.32
876.669	14.62
877.102	13.62
877.535	12.52
877.969	18.72
878.402	22.72
878.836	7.12
879.269	14.42
879.702	16.42
880.135	11.72
880.569	15.32
881.002	20.92
881.435	16.02
881.868	10.82
882.301	12.62
882.734	13.82
883.167	20.02
883.601	13.52
884.034	14.12
884.467	7.02
884.899	18.92
885.332	11.62
885.765	12.12
886.198	7.92
886.631	11.02
887.064	6.42
887.497	16.12
887.929	16.42
888.362	8.62
888.795	8.12
889.228	11.62
889.66	19.22
890.093	13.02
890.526	10.52
890.958	13.72
891.391	10.22
891.823	18.92
892.256	11.72
892.688	11.02
893.121	9.32
893.553	15.12
893.985	19.62
894.418	14.32
894.85	4.92
895.282	7.42
895.715	4.72
896.147	11.22
896.579	14.72
897.011	7.62
897.444	14.32
897.876	6.62
898.308	15.22
898.74	10.92
899.172	8.32
899.604	22.42
900.036	16.92
900.468	7.92
900.9	10.92
901.332	18.92
901.764	10.52
902.196	11.72
902.628	12.82
903.06	5.32
903.491	23.22
903.923	16.02
904.355	18.12
904.787	11.52
905.218	17.02
905.65	15.42
906.082	5.52
906.513	8.72
906.945	13.02
907.376	10.42
907.808	13.92
908.239	18.02
908.671	11.62
909.102	13.22
909.534	13.12
909.965	32.02
910.397	67.22
910.828	246.72
911.259	381.32
911.691	176.62
912.122	87.02
912.553	39.12
912.984	21.62
913.415	11.92
913.847	15.72
914.278	11.72
914.709	8.42
915.14	11.02
915.571	13.82
916.002	13.12
916.433	15.02
916.864	13.62
917.295	6.22
917.726	8.22
918.157	5.42
918.587	21.82
919.018	13.92
919.449	12.02
919.88	15.02
920.311	17.32
920.741	32.22
921.172	127.12
921.603	119.32
922.033	50.52
922.464	37.92
922.895	16.62
923.325	19.92
923.756	8.72
924.186	5.12
924.617	16.72
925.047	22.42
925.478	35.82
925.908	33.12
926.338	14.52
926.769	12.32
927.199	16.92
927.629	7.32
928.06	8.72
928.49	8.22
928.92	3.72
929.35	4.42
929.78	11.02
930.21	6.02
930.641	4.32
931.071	8.42
931.501	-0.68
931.931	11.82
932.361	4.22
932.791	2.02
933.221	2.02
933.651	0.52
934.08	12.22
934.51	23.02
934.94	5.82
935.37	6.12
935.8	7.02
936.229	5.22
936.659	10.32
937.089	3.72
937.519	9.72
937.948	20.42
938.378	11.82
938.807	1.62
939.237	1.02
939.666	6.12
940.096	1.22
940.525	-1.18
940.955	1.72
941.384	1.52
941.814	-7.98
942.243	-6.58
942.672	3.92
943.102	-5.78
943.531	-1.28
943.96	1.02
944.39	0.42
944.819	-1.58
945.248	4.82
945.677	-0.88
946.106	4.92
946.535	1.52
946.964	-1.58
947.393	2.92
947.822	4.52
948.251	-3.88
948.68	-2.18
949.109	5.02
949.538	1.92
949.967	1.52
950.396	-2.88
950.825	-4.98
951.254	3.32
951.682	-7.58
952.111	3.52
952.54	6.92
952.969	-6.08
953.397	-2.78
953.826	-2.98
954.254	-4.48
954.683	-2.68
955.112	-1.18
955.54	-5.58
955.969	-4.78
956.397	1.62
956.826	-5.98
957.254	2.02
957.682	-2.08
958.111	7.22
958.539	2.82
958.967	-0.28
959.396	-5.28
959.824	5.32
960.252	1.82
960.68	-4.48
961.109	0.52
961.537	-0.48
961.965	0.82
962.393	-3.78
962.821	-6.78
963.249	1.52
963.677	-2.38
964.105	1.22
964.533	34.42
964.961	26.42
965.389	12.82
965.817	5.22
966.245	-3.18
966.672	0.02
967.1	-6.18
967.528	0.32
967.956	-2.28
968.383	-6.38
968.811	-8.08
969.239	-1.18
969.666	-3.78
970.094	-4.38
970.522	-0.18
970.949	0.82
971.377	-5.38
971.804	-0.58
972.232	-4.88
972.659	-7.98
973.087	-4.68
973.514	0.32
973.941	-3.98
974.369	6.92
974.796	0.92
975.223	-3.48
975.651	-1.68
976.078	0.42
976.505	-2.48
976.932	-0.88
977.359	7.52
977.786	11.02
978.214	-2.68
978.641	-5.58
979.068	-5.88
979.495	-2.38
979.922	-1.38
980.349	-1.68
980.776	0.92
981.202	4.62
981.629	8.42
982.056	6.12
982.483	-2.58
982.91	1.32
983.337	-6.58
983.763	2.12
984.19	-2.18
984.617	-7.38
985.043	-4.98
985.47	-4.98
985.897	-11.68
986.323	-9.88
986.75	3.22
987.176	-6.28
987.603	2.82
988.029	3.62
988.456	-1.88
988.882	1.52
989.308	-5.58
989.735	-5.88
990.161	-3.68
990.587	-7.08
991.014	-4.78
991.44	7.92
991.866	-5.38
992.292	-7.18
992.719	-7.28
993.145	2.42
993.571	-7.28
993.997	-4.58
994.423	-0.28
994.849	-5.48
995.275	2.62
995.701	-2.18
996.127	-3.18
996.553	1.02
996.979	-2.38
997.405	-0.38
997.83	-6.58
998.256	-3.08
998.682	-6.28
999.108	-11.48
999.534	-6.48
999.959	2.12
1000.385	-9.98
1000.811	0.32
1001.236	-9.28
1001.662	-11.68
1002.087	-8.88
1002.513	-2.28
1002.938	-0.38
1003.364	-10.08
1003.789	-3.28
1004.215	5.22
1004.64	-4.28
1005.066	-0.18
1005.491	-0.68
1005.916	-1.08
1006.342	-0.98
1006.767	-5.88
1007.192	6.02
1007.617	-5.08
1008.042	-9.08
1008.468	-12.88
1008.893	-5.98
1009.318	-5.78
1009.743	-1.48
1010.168	4.42
1010.593	-3.28
1011.018	-8.18
1011.443	-1.78
1011.868	3.42
1012.293	-7.48
1012.718	-8.48
1013.143	-5.68
1013.567	-0.58
1013.992	-4.18
1014.417	-15.08
1014.842	3.32
1015.267	-7.28
1015.691	-7.58
1016.116	3.62
1016.541	-1.08
1016.965	1.52
1017.39	2.82
1017.814	-3.28
1018.239	-4.78
1018.663	-14.48
1019.088	-15.68
1019.512	-3.58
1019.937	-4.18
1020.361	-2.38
1020.785	-10.28
1021.21	-7.78
1021.634	1.42
1022.058	-1.68
1022.483	6.02
1022.907	-9.68
1023.331	-5.58
1023.755	-5.28
1024.179	-5.38
1024.604	-10.48
1025.028	-6.78
1025.452	-6.98
1025.876	-1.28
1026.3	-2.08
1026.724	-13.58
1027.148	-4.18
1027.572	-5.88
1027.996	-0.98
1028.42	-1.98
1028.843	4.02
1029.267	-4.78
1029.691	0.52
1030.115	-2.88
1030.539	-13.08
1030.962	-2.58
1031.386	-10.38
1031.81	-1.18
1032.233	-4.38
1032.657	-0.78
1033.08	-0.28
1033.504	-6.58
1033.927	-2.98
1034.351	-1.18
1034.774	-7.28
1035.198	-3.68
1035.621	-11.28
1036.045	-7.58
1036.468	-1.28
1036.891	-8.08
1037.315	-8.48
1037.738	-13.68
1038.161	-6.78
1038.584	-8.48
1039.008	-8.18
1039.431	-6.28
1039.854	-3.78
1040.277	-6.98
1040.7	-6.98
1041.123	5.92
1041.546	-2.68
1041.969	-4.18
1042.392	-8.08
1042.815	-5.28
1043.238	-4.18
1043.661	-3.78
1044.084	-9.78
1044.507	-6.48
1044.93	-11.28
1045.352	-6.88
1045.775	-1.38
1046.198	-3.58
1046.621	-2.18
1047.043	-1.48
1047.466	7.32
1047.889	-8.18
1048.311	-7.98
1048.734	0.32
1049.156	-2.78
1049.579	1.42
1050.001	-1.58
1050.424	0.52
1050.846	1.32
1051.269	-5.98
1051.691	-8.68
1052.113	-6.58
1052.536	-0.38
1052.958	-4.08
1053.38	-4.18
1053.802	-12.78
1054.225	3.22
1054.647	-12.58
1055.069	3.52
1055.491	1.72
1055.913	-7.18
1056.335	3.12
1056.757	-1.98
1057.179	-9.88
1057.601	-13.38
1058.023	-6.18
1058.445	-2.98
1058.867	-5.28
1059.289	-2.18
1059.711	-9.48
1060.133	1.82
1060.555	-10.68
1060.976	-9.48
1061.398	-7.48
1061.82	-13.48
1062.241	-8.88
1062.663	-5.78
1063.085	-2.38
1063.506	3.22
1063.928	-5.88
1064.35	-3.78
1064.771	-10.08
1065.193	-3.98
1065.614	-5.58
1066.035	-5.08
1066.457	-9.08
1066.878	1.92
1067.3	-7.18
1067.721	-5.58
1068.142	-6.78
1068.564	-6.48
1068.985	-5.28
1069.406	-6.68
1069.827	-0.68
1070.248	-5.88
1070.67	-9.88
1071.091	-4.78
1071.512	-4.68
1071.933	-10.28
1072.354	-11.58
1072.775	-7.28
1073.196	-8.48
1073.617	-7.98
1074.038	-2.98
1074.459	-8.88
1074.88	-10.18
1075.3	-1.28
1075.721	-7.68
1076.142	0.62
1076.563	-0.68
1076.983	-7.88
1077.404	-10.38
1077.825	-6.28
1078.246	-11.28
1078.666	-9.48
1079.087	-7.08
1079.507	-12.48
1079.928	-2.58
1080.348	-3.18
1080.769	-11.18
1081.189	-1.58
1081.61	-5.38
1082.03	-7.98
1082.451	-5.38
1082.871	-4.78
1083.291	-13.38
1083.711	-7.48
1084.132	-7.58
1084.552	-6.78
1084.972	-6.28
1085.392	-5.68
1085.813	-7.68
1086.233	-3.28
1086.653	-7.68
1087.073	-8.28
1087.493	-9.08
1087.913	-5.78
1088.333	-6.98
1088.753	-4.28
1089.173	7.22
1089.593	0.12
1090.013	1.12
1090.433	-0.78
1090.852	-4.88
1091.272	-3.38
1091.692	-6.48
1092.112	-2.08
1092.531	-10.88
1092.951	-10.78
1093.371	-8.48
1093.79	-1.48
1094.21	-4.48
1094.63	-9.28
1095.049	-5.78
1095.469	-2.38
1095.888	0.72
1096.308	0.32
1096.727	3.62
1097.146	-3.88
1097.566	-0.08
1097.985	-5.58
1098.405	-0.18
1098.824	-16.68
1099.243	-3.98
1099.662	-8.68
1100.082	-7.28
1100.501	-6.78
1100.92	-5.78
1101.339	-4.18
1101.758	-8.28
