Data from 20171114-ORNL-Ar_H_NY_Subt18_08-03-45-411.txt Node
Date: Tue Nov 14 08:03:45 EST 2017
User: Ender
Spectrometer: HR+D1039
Trigger mode: 0
Integration Time (sec): 2.730000E-2
Scans to average: 10
Electric dark correction enabled: true
Nonlinearity correction enabled: false
Boxcar width: 0
XAxis mode: Wavelengths
Number of Pixels in Spectrum: 2048
>>>>>Begin Spectral Data<<<<<
187.836	-3.83
188.309	-3.83
188.782	-3.83
189.255	-1.53
189.728	-0.63
190.201	5.17
190.674	1.47
191.147	3.87
191.619	-8.63
192.092	3.07
192.565	6.67
193.038	-1.43
193.511	-1.23
193.984	3.07
194.456	-6.13
194.929	0.87
195.402	-2.13
195.874	1.37
196.347	0.07
196.82	-6.13
197.292	10.07
197.765	2.27
198.237	-3.83
198.71	-0.83
199.182	-0.03
199.655	5.47
200.127	1.67
200.6	-0.73
201.072	-3.73
201.544	-5.43
202.017	-1.83
202.489	1.57
202.961	1.57
203.433	-3.23
203.906	-0.93
204.378	-3.03
204.85	-4.43
205.322	-9.33
205.794	-2.33
206.266	-1.53
206.739	-14.83
207.211	4.37
207.683	-3.63
208.155	-5.23
208.627	-3.23
209.099	2.07
209.57	-4.23
210.042	-6.03
210.514	-6.43
210.986	-5.23
211.458	-7.83
211.93	-0.73
212.402	0.67
212.873	-6.23
213.345	-7.03
213.817	-8.63
214.288	-5.13
214.76	-6.13
215.232	-4.13
215.703	-7.93
216.175	-6.33
216.646	-6.43
217.118	-4.93
217.589	-3.13
218.061	2.57
218.532	1.27
219.004	-3.83
219.475	-6.13
219.946	-2.73
220.418	-3.83
220.889	1.17
221.36	2.67
221.832	-2.53
222.303	-5.33
222.774	1.57
223.245	-11.53
223.717	-6.03
224.188	-5.83
224.659	-7.03
225.13	-7.83
225.601	2.57
226.072	3.17
226.543	0.37
227.014	-1.03
227.485	-1.63
227.956	-10.33
228.427	-4.03
228.898	1.67
229.369	3.37
229.839	4.97
230.31	-10.33
230.781	5.67
231.252	-1.73
231.722	-4.93
232.193	-5.83
232.664	-0.93
233.135	-2.03
233.605	-2.53
234.076	-4.43
234.546	1.77
235.017	3.37
235.487	-4.63
235.958	-8.23
236.428	-0.33
236.899	-0.23
237.369	2.97
237.84	-7.73
238.31	3.97
238.78	4.87
239.251	-5.73
239.721	-3.73
240.191	-6.53
240.662	-3.33
241.132	1.97
241.602	-3.23
242.072	-1.93
242.542	1.87
243.013	-4.93
243.483	2.07
243.953	5.77
244.423	-2.43
244.893	-1.93
245.363	-5.43
245.833	-1.13
246.303	1.27
246.773	1.07
247.243	0.97
247.712	-1.33
248.182	8.07
248.652	0.67
249.122	-10.83
249.592	1.67
250.061	2.87
250.531	8.57
251.001	-2.03
251.471	0.47
251.94	7.07
252.41	-1.73
252.879	1.37
253.349	7.97
253.818	7.67
254.288	1.47
254.757	4.27
255.227	-9.33
255.696	3.07
256.166	0.07
256.635	3.57
257.105	5.57
257.574	0.47
258.043	3.27
258.513	-11.23
258.982	0.37
259.451	-4.23
259.92	1.17
260.389	-0.63
260.859	7.47
261.328	1.77
261.797	2.07
262.266	2.67
262.735	8.67
263.204	1.37
263.673	1.37
264.142	2.37
264.611	-6.33
265.08	-5.93
265.549	1.77
266.018	5.97
266.487	-3.43
266.955	3.17
267.424	2.17
267.893	8.17
268.362	0.27
268.83	3.07
269.299	7.77
269.768	-3.13
270.236	2.27
270.705	-1.83
271.174	4.07
271.642	1.77
272.111	-0.43
272.579	2.77
273.048	6.77
273.516	-0.93
273.985	-0.83
274.453	10.07
274.922	14.37
275.39	2.17
275.858	-4.43
276.327	8.47
276.795	11.27
277.263	1.47
277.731	16.57
278.2	1.87
278.668	8.37
279.136	4.27
279.604	-4.63
280.072	4.37
280.54	5.77
281.008	3.87
281.477	6.27
281.945	16.27
282.413	7.57
282.881	4.47
283.348	3.77
283.816	9.37
284.284	1.17
284.752	14.57
285.22	6.97
285.688	10.07
286.156	6.97
286.623	12.17
287.091	4.37
287.559	9.97
288.026	8.27
288.494	8.77
288.962	-0.73
289.429	2.87
289.897	16.37
290.364	13.57
290.832	17.47
291.3	15.37
291.767	11.87
292.234	12.27
292.702	8.07
293.169	12.77
293.637	17.57
294.104	11.77
294.571	3.67
295.039	6.67
295.506	9.67
295.973	2.97
296.44	11.67
296.908	12.17
297.375	12.47
297.842	9.27
298.309	12.17
298.776	9.07
299.243	15.37
299.71	8.97
300.177	12.67
300.644	17.07
301.111	14.67
301.578	19.47
302.045	13.67
302.512	15.47
302.979	13.77
303.446	17.37
303.913	11.17
304.379	11.17
304.846	24.07
305.313	19.47
305.78	17.87
306.246	17.27
306.713	15.17
307.18	17.97
307.646	12.47
308.113	20.57
308.579	17.87
309.046	13.77
309.512	15.17
309.979	11.77
310.445	18.17
310.912	24.87
311.378	26.87
311.845	19.87
312.311	24.87
312.777	28.77
313.244	24.77
313.71	30.17
314.176	24.87
314.642	22.97
315.109	19.07
315.575	21.57
316.041	28.07
316.507	30.37
316.973	31.47
317.439	24.17
317.905	27.87
318.371	20.77
318.837	27.17
319.303	28.37
319.769	21.37
320.235	22.07
320.701	29.27
321.167	29.67
321.633	23.47
322.099	33.17
322.564	33.47
323.03	23.77
323.496	28.97
323.962	35.17
324.427	24.87
324.893	36.17
325.359	30.57
325.824	36.97
326.29	32.27
326.755	33.47
327.221	31.87
327.686	30.47
328.152	41.07
328.617	38.47
329.083	42.27
329.548	47.17
330.014	36.57
330.479	32.07
330.944	34.37
331.41	34.27
331.875	40.27
332.34	34.07
332.805	38.07
333.271	42.47
333.736	35.67
334.201	43.57
334.666	40.67
335.131	43.87
335.596	42.37
336.061	43.97
336.526	34.27
336.991	38.87
337.456	48.17
337.921	37.47
338.386	46.57
338.851	39.47
339.316	43.97
339.781	41.67
340.246	49.87
340.711	45.17
341.175	41.67
341.64	41.97
342.105	49.57
342.569	50.57
343.034	50.47
343.499	47.57
343.963	47.07
344.428	64.77
344.893	54.17
345.357	61.37
345.822	53.47
346.286	57.47
346.751	59.47
347.215	60.27
347.679	65.67
348.144	74.97
348.608	71.57
349.073	59.57
349.537	68.77
350.001	71.87
350.465	79.37
350.93	71.47
351.394	79.57
351.858	69.07
352.322	71.27
352.786	73.17
353.25	81.97
353.715	100.97
354.179	85.87
354.643	106.07
355.107	103.77
355.571	100.37
356.035	93.07
356.498	100.07
356.962	92.57
357.426	106.27
357.89	94.47
358.354	86.47
358.818	82.07
359.281	81.67
359.745	67.67
360.209	79.87
360.673	70.97
361.136	79.27
361.6	82.17
362.064	83.77
362.527	79.77
362.991	87.37
363.454	76.87
363.918	82.17
364.381	82.87
364.845	77.97
365.308	87.37
365.772	91.57
366.235	85.37
366.698	87.77
367.162	87.47
367.625	89.57
368.088	83.27
368.552	90.57
369.015	86.67
369.478	99.27
369.941	102.37
370.404	99.37
370.867	99.77
371.331	103.57
371.794	107.67
372.257	103.77
372.72	104.47
373.183	101.07
373.646	98.37
374.109	99.87
374.572	99.57
375.035	101.07
375.497	110.37
375.96	112.17
376.423	107.57
376.886	120.27
377.349	104.37
377.811	108.47
378.274	114.77
378.737	105.57
379.199	115.57
379.662	108.27
380.125	115.07
380.587	112.97
381.05	115.87
381.512	119.47
381.975	132.47
382.437	117.87
382.9	128.87
383.362	134.27
383.825	132.37
384.287	137.37
384.75	118.97
385.212	127.87
385.674	132.07
386.136	139.37
386.599	133.67
387.061	132.77
387.523	132.07
387.985	137.97
388.447	144.77
388.91	139.97
389.372	138.47
389.834	142.17
390.296	135.57
390.758	136.07
391.22	141.27
391.682	151.07
392.144	153.97
392.606	141.97
393.068	144.17
393.529	158.97
393.991	151.37
394.453	143.47
394.915	145.37
395.377	144.17
395.838	145.77
396.3	141.37
396.762	144.17
397.224	154.37
397.685	144.67
398.147	149.87
398.608	146.77
399.07	145.37
399.531	154.77
399.993	165.37
400.454	161.87
400.916	161.37
401.377	155.37
401.839	166.37
402.3	161.67
402.762	175.67
403.223	188.17
403.684	185.57
404.145	171.87
404.607	171.27
405.068	172.47
405.529	175.07
405.99	194.57
406.451	180.87
406.913	182.67
407.374	176.37
407.835	174.07
408.296	186.37
408.757	190.67
409.218	198.57
409.679	194.37
410.14	187.67
410.601	192.77
411.062	200.87
411.522	189.97
411.983	185.37
412.444	190.87
412.905	199.97
413.366	203.47
413.826	216.17
414.287	240.17
414.748	294.87
415.208	277.67
415.669	234.07
416.13	225.77
416.59	228.47
417.051	239.37
417.511	240.67
417.972	269.67
418.432	283.77
418.893	323.37
419.353	282.67
419.814	227.17
420.274	204.17
420.734	198.97
421.195	213.07
421.655	206.17
422.115	215.97
422.576	213.77
423.036	222.27
423.496	226.77
423.956	233.77
424.416	250.97
424.876	284.47
425.336	281.57
425.797	282.07
426.257	285.27
426.717	265.67
427.177	253.47
427.637	242.77
428.097	249.07
428.556	268.07
429.016	287.67
429.476	274.17
429.936	286.07
430.396	292.37
430.856	307.07
431.315	327.57
431.775	356.17
432.235	397.37
432.694	373.77
433.154	369.07
433.614	391.77
434.073	345.57
434.533	305.87
434.993	284.97
435.452	295.07
435.912	286.97
436.371	288.87
436.83	288.77
437.29	272.67
437.749	258.07
438.209	261.27
438.668	279.37
439.127	288.47
439.587	268.17
440.046	255.47
440.505	260.77
440.964	279.07
441.424	313.87
441.883	299.97
442.342	277.97
442.801	239.97
443.26	240.87
443.719	241.97
444.178	242.57
444.637	232.47
445.096	237.27
445.555	245.47
446.014	244.27
446.473	243.57
446.932	254.27
447.391	251.07
447.849	250.47
448.308	235.47
448.767	241.57
449.226	256.57
449.685	256.87
450.143	262.97
450.602	256.87
451.061	246.57
451.519	248.77
451.978	255.17
452.436	240.17
452.895	250.17
453.353	260.07
453.812	259.47
454.27	256.97
454.729	250.87
455.187	257.67
455.646	257.67
456.104	257.27
456.562	271.37
457.021	273.67
457.479	264.57
457.937	278.87
458.395	272.87
458.854	262.67
459.312	268.57
459.77	278.47
460.228	261.07
460.686	254.07
461.144	262.37
461.602	258.27
462.06	266.17
462.518	270.17
462.976	277.67
463.434	270.37
463.892	275.97
464.35	288.57
464.808	301.37
465.266	287.87
465.724	283.37
466.181	290.67
466.639	284.57
467.097	304.67
467.555	314.97
468.012	316.87
468.47	317.77
468.928	339.97
469.385	343.77
469.843	358.07
470.3	353.47
470.758	370.77
471.215	380.37
471.673	400.67
472.13	405.37
472.588	413.87
473.045	381.87
473.503	392.57
473.96	410.77
474.417	417.17
474.875	432.67
475.332	466.97
475.789	460.37
476.246	473.07
476.704	484.97
477.161	510.77
477.618	521.67
478.075	545.47
478.532	595.77
478.989	657.87
479.446	738.67
479.903	738.47
480.36	776.77
480.817	812.17
481.274	902.57
481.731	981.57
482.188	1067.57
482.645	1180.27
483.102	1270.97
483.558	1374.77
484.015	1444.17
484.472	1419.87
484.929	1377.07
485.385	1335.77
485.842	1306.67
486.299	1270.47
486.755	1187.67
487.212	1031.07
487.668	902.27
488.125	835.47
488.582	760.77
489.038	729.37
489.494	695.67
489.951	680.37
490.407	668.07
490.864	644.87
491.32	637.57
491.776	635.27
492.233	629.57
492.689	613.87
493.145	605.37
493.602	591.27
494.058	596.77
494.514	596.67
494.97	616.27
495.426	616.07
495.882	599.17
496.338	581.87
496.794	601.17
497.251	593.27
497.707	605.47
498.163	603.97
498.618	608.37
499.074	618.37
499.53	633.77
499.986	630.27
500.442	608.17
500.898	597.67
501.354	600.17
501.809	609.37
502.265	600.97
502.721	616.87
503.177	619.37
503.632	624.57
504.088	616.07
504.543	643.37
504.999	645.37
505.455	625.47
505.91	622.77
506.366	616.47
506.821	611.37
507.277	617.57
507.732	619.27
508.187	619.07
508.643	626.67
509.098	619.47
509.553	628.17
510.009	641.97
510.464	643.87
510.919	661.97
511.375	659.77
511.83	663.67
512.285	682.77
512.74	713.37
513.195	713.87
513.65	714.07
514.105	715.87
514.56	718.57
515.015	740.17
515.47	743.17
515.925	723.07
516.38	734.57
516.835	751.07
517.29	728.07
517.745	730.77
518.2	716.77
518.655	710.07
519.109	698.37
519.564	695.97
520.019	685.47
520.474	680.27
520.928	672.97
521.383	669.17
521.838	657.97
522.292	672.87
522.747	667.67
523.201	666.67
523.656	660.87
524.11	654.27
524.565	644.27
525.019	647.07
525.474	648.87
525.928	650.27
526.382	650.77
526.837	647.37
527.291	651.37
527.745	646.57
528.2	650.07
528.654	632.97
529.108	637.97
529.562	627.67
530.016	633.67
530.47	636.97
530.925	637.97
531.379	632.97
531.833	632.87
532.287	634.57
532.741	634.67
533.195	638.57
533.649	635.97
534.103	648.07
534.556	634.07
535.01	643.47
535.464	620.37
535.918	643.17
536.372	640.37
536.826	633.07
537.279	619.27
537.733	638.47
538.187	635.27
538.64	633.47
539.094	655.87
539.548	646.47
540.001	637.57
540.455	648.57
540.908	655.87
541.362	659.17
541.815	661.67
542.269	670.97
542.722	679.17
543.175	677.97
543.629	692.47
544.082	695.97
544.536	709.17
544.989	703.47
545.442	715.47
545.895	709.47
546.349	703.87
546.802	702.47
547.255	704.67
547.708	711.07
548.161	709.97
548.614	718.57
549.067	725.97
549.52	714.07
549.973	722.87
550.426	706.17
550.879	698.17
551.332	693.77
551.785	711.27
552.238	700.37
552.691	716.07
553.144	723.77
553.596	733.07
554.049	751.47
554.502	762.67
554.955	791.67
555.407	779.57
555.86	774.27
556.313	763.37
556.765	758.37
557.218	751.77
557.67	747.17
558.123	743.27
558.576	749.67
559.028	758.47
559.48	759.77
559.933	752.37
560.385	716.77
560.838	699.97
561.29	674.87
561.742	683.57
562.195	659.77
562.647	651.67
563.099	664.77
563.551	665.67
564.004	674.37
564.456	650.77
564.908	649.17
565.36	623.57
565.812	618.17
566.264	611.17
566.716	613.07
567.168	598.97
567.62	604.77
568.072	582.07
568.524	582.87
568.976	581.87
569.428	569.07
569.88	569.87
570.332	574.67
570.784	579.27
571.235	579.37
571.687	590.07
572.139	591.47
572.59	593.37
573.042	586.97
573.494	587.17
573.945	585.37
574.397	558.77
574.849	573.17
575.3	568.47
575.752	569.47
576.203	566.47
576.655	572.57
577.106	552.57
577.557	550.87
578.009	544.17
578.46	543.67
578.912	552.17
579.363	540.57
579.814	543.47
580.265	544.77
580.717	545.07
581.168	536.77
581.619	549.27
582.07	551.07
582.521	543.47
582.972	551.27
583.423	546.77
583.875	551.37
584.326	552.47
584.777	566.37
585.227	584.27
585.678	595.07
586.129	615.97
586.58	630.07
587.031	642.77
587.482	686.17
587.933	715.97
588.384	685.47
588.834	637.87
589.285	622.77
589.736	628.97
590.186	628.97
590.637	622.57
591.088	602.67
591.538	596.27
591.989	586.97
592.439	588.07
592.89	570.17
593.34	557.17
593.791	557.17
594.241	548.57
594.692	546.27
595.142	550.07
595.593	548.77
596.043	559.47
596.493	562.67
596.943	562.77
597.394	568.17
597.844	568.77
598.294	585.07
598.744	609.47
599.195	612.97
599.645	652.37
600.095	662.67
600.545	720.77
600.995	750.17
601.445	795.57
601.895	846.97
602.345	876.97
602.795	878.47
603.245	844.47
603.695	795.97
604.145	750.87
604.594	717.97
605.044	677.77
605.494	623.07
605.944	581.27
606.393	577.77
606.843	570.07
607.293	567.97
607.743	561.87
608.192	563.57
608.642	572.67
609.091	577.37
609.541	588.87
609.99	580.07
610.44	573.17
610.889	548.87
611.339	536.37
611.788	524.07
612.238	534.77
612.687	552.17
613.136	538.17
613.586	545.77
614.035	520.57
614.484	541.67
614.933	537.67
615.383	545.77
615.832	540.87
616.281	536.57
616.73	506.97
617.179	508.87
617.628	496.97
618.077	488.47
618.526	484.47
618.975	472.17
619.424	475.77
619.873	466.07
620.322	480.77
620.771	462.97
621.22	465.97
621.669	450.87
622.118	446.77
622.567	444.67
623.015	427.97
623.464	428.07
623.913	423.47
624.361	415.97
624.81	424.17
625.259	424.97
625.707	421.17
626.156	425.97
626.604	436.67
627.053	422.77
627.501	418.17
627.95	424.67
628.398	439.97
628.847	427.67
629.295	429.37
629.744	425.27
630.192	429.27
630.64	426.57
631.089	406.07
631.537	406.47
631.985	394.87
632.433	403.27
632.881	390.97
633.33	398.97
633.778	389.27
634.226	389.07
634.674	401.57
635.122	404.67
635.57	411.37
636.018	417.67
636.466	414.17
636.914	410.27
637.362	430.37
637.81	423.27
638.258	436.07
638.705	431.27
639.153	441.87
639.601	458.87
640.049	477.27
640.497	499.87
640.944	523.67
641.392	488.07
641.84	462.67
642.287	431.57
642.735	418.17
643.182	415.47
643.63	423.37
644.078	417.87
644.525	426.17
644.973	431.57
645.42	438.37
645.867	454.97
646.315	465.77
646.762	482.77
647.21	496.17
647.657	515.27
648.104	539.87
648.551	542.37
648.999	581.57
649.446	639.67
649.893	694.37
650.34	792.27
650.787	944.97
651.234	1143.97
651.682	1443.27
652.129	1948.67
652.576	2736.97
653.023	4010.57
653.47	5563.77
653.917	6992.87
654.363	8199.77
654.81	9339.47
655.257	8841.87
655.704	5879.87
656.151	3499.87
656.598	2290.97
657.044	1635.47
657.491	1269.07
657.938	1017.77
658.385	851.27
658.831	750.37
659.278	671.77
659.724	602.57
660.171	558.97
660.618	494.87
661.064	477.07
661.511	456.97
661.957	445.07
662.404	440.37
662.85	439.67
663.296	425.97
663.743	400.57
664.189	390.97
664.635	387.57
665.082	375.07
665.528	377.57
665.974	369.87
666.42	361.37
666.867	355.17
667.313	342.87
667.759	334.27
668.205	329.87
668.651	325.57
669.097	327.57
669.543	319.57
669.989	327.57
670.435	337.17
670.881	327.77
671.327	326.47
671.773	340.37
672.219	360.37
672.665	390.77
673.11	420.37
673.556	460.87
674.002	493.47
674.448	485.27
674.893	405.77
675.339	353.87
675.785	326.67
676.23	311.17
676.676	277.77
677.122	277.57
677.567	271.27
678.013	268.47
678.458	259.07
678.904	256.07
679.349	252.27
679.794	255.27
680.24	257.87
680.685	251.27
681.131	247.17
681.576	248.97
682.021	255.67
682.466	252.87
682.912	250.57
683.357	252.57
683.802	270.57
684.247	292.67
684.692	321.67
685.137	356.07
685.583	387.87
686.028	411.47
686.473	380.27
686.918	324.77
687.363	300.27
687.807	285.27
688.252	259.47
688.697	257.67
689.142	251.87
689.587	242.27
690.032	226.67
690.477	248.57
690.921	244.57
691.366	273.77
691.811	283.17
692.255	303.87
692.7	336.07
693.145	359.87
693.589	479.67
694.034	781.37
694.478	1087.57
694.923	1280.37
695.367	1710.37
695.812	888.27
696.256	372.57
696.701	264.07
697.145	245.87
697.59	234.47
698.034	227.77
698.478	232.37
698.922	228.87
699.367	226.97
699.811	243.37
700.255	248.97
700.699	266.07
701.143	304.37
701.588	339.27
702.032	375.77
702.476	371.37
702.92	350.97
703.364	353.17
703.808	442.27
704.252	707.97
704.696	1018.97
705.14	1222.67
705.584	1601.27
706.027	787.27
706.471	377.37
706.915	289.87
707.359	250.67
707.803	228.57
708.246	219.67
708.69	220.97
709.134	224.47
709.577	227.07
710.021	226.97
710.465	217.77
710.908	216.37
711.352	212.27
711.795	221.67
712.239	245.17
712.682	265.27
713.126	294.77
713.569	325.57
714.012	251.97
714.456	215.77
714.899	212.47
715.342	194.57
715.786	184.77
716.229	189.67
716.672	181.97
717.115	176.97
717.558	176.87
718.002	174.57
718.445	189.67
718.888	203.07
719.331	207.77
719.774	216.97
720.217	213.97
720.66	204.57
721.103	192.07
721.546	183.17
721.989	182.47
722.432	164.67
722.874	173.37
723.317	163.37
723.76	170.67
724.203	184.07
724.645	214.47
725.088	308.67
725.531	397.17
725.974	469.37
726.416	403.17
726.859	222.37
727.301	176.17
727.744	164.27
728.187	166.87
728.629	168.47
729.071	173.27
729.514	184.67
729.956	189.97
730.399	203.07
730.841	202.57
731.283	192.17
731.726	195.07
732.168	193.07
732.61	188.77
733.053	200.97
733.495	214.47
733.937	242.17
734.379	281.17
734.821	307.37
735.263	378.07
735.705	568.67
736.148	1072.87
736.59	1820.77
737.032	2281.57
737.474	1882.87
737.916	598.37
738.357	307.07
738.799	226.67
739.241	216.97
739.683	205.77
740.125	210.97
740.567	219.57
741.008	232.17
741.45	227.57
741.892	231.57
742.334	248.97
742.775	264.87
743.217	257.47
743.658	195.27
744.1	189.17
744.542	189.17
744.983	234.77
745.425	272.67
745.866	270.37
746.307	202.27
746.749	194.87
747.19	226.77
747.632	301.97
748.073	587.17
748.514	1255.57
748.956	2061.07
749.397	2558.57
749.838	2154.87
750.279	2224.77
750.72	1134.57
751.162	396.27
751.603	228.37
752.044	178.17
752.485	159.27
752.926	151.67
753.367	136.37
753.808	140.57
754.249	144.07
754.69	131.27
755.131	131.47
755.572	132.47
756.013	121.77
756.453	131.97
756.894	134.57
757.335	136.17
757.776	142.97
758.216	135.47
758.657	143.77
759.098	139.57
759.538	159.37
759.979	183.97
760.42	256.17
760.86	474.47
761.301	1247.87
761.741	3136.37
762.182	4954.47
762.622	3514.77
763.063	993.77
763.503	393.97
763.943	233.17
764.384	197.87
764.824	193.77
765.264	181.37
765.705	154.47
766.145	127.57
766.585	122.67
767.025	115.27
767.465	117.37
767.906	131.27
768.346	139.27
768.786	153.07
769.226	144.47
769.666	208.67
770.106	404.77
770.546	1051.37
770.986	1930.87
771.426	1790.97
771.866	580.17
772.306	231.87
772.745	144.17
773.185	116.87
773.625	117.97
774.065	104.47
774.505	112.77
774.944	146.77
775.384	256.17
775.824	473.87
776.263	481.97
776.703	230.77
777.142	119.37
777.582	97.17
778.021	92.77
778.461	93.47
778.9	89.77
779.34	88.47
779.779	82.07
780.219	73.97
780.658	76.77
781.097	75.97
781.537	78.97
781.976	75.37
782.415	77.47
782.855	72.67
783.294	77.77
783.733	74.07
784.172	73.17
784.611	69.87
785.05	72.47
785.489	80.87
785.928	83.67
786.367	81.67
786.806	78.47
787.245	91.37
787.684	93.87
788.123	103.07
788.562	94.47
789.001	91.67
789.44	82.87
789.879	81.07
790.317	82.77
790.756	87.47
791.195	86.57
791.634	102.77
792.072	143.87
792.511	245.97
792.95	683.47
793.388	1548.37
793.827	1465.97
794.265	496.47
794.704	203.07
795.142	129.47
795.581	109.57
796.019	95.97
796.458	89.47
796.896	87.07
797.334	92.27
797.773	113.47
798.211	150.27
798.649	287.37
799.087	711.97
799.526	1123.47
799.964	1447.57
800.402	1534.07
800.84	568.47
801.278	222.47
801.716	129.77
802.154	107.57
802.592	107.07
803.03	99.17
803.468	90.77
803.906	101.47
804.344	110.27
804.782	106.97
805.22	94.87
805.658	87.67
806.096	106.97
806.533	111.97
806.971	123.47
807.409	156.17
807.847	215.97
808.284	454.07
808.722	1301.07
809.16	2449.87
809.597	2253.67
810.035	4036.27
810.472	4620.97
810.91	1643.07
811.347	602.57
811.785	301.97
812.222	193.87
812.66	148.67
813.097	123.07
813.535	101.27
813.972	94.07
814.409	89.87
814.846	81.27
815.284	84.77
815.721	73.87
816.158	72.97
816.595	82.37
817.032	114.97
817.47	142.97
817.907	107.97
818.344	76.37
818.781	73.47
819.218	70.37
819.655	89.37
820.092	150.17
820.529	181.57
820.966	137.47
821.403	98.67
821.839	75.87
822.276	72.87
822.713	91.27
823.15	109.57
823.587	87.97
824.023	103.37
824.46	204.67
824.897	623.67
825.333	1020.97
825.77	439.87
826.206	175.97
826.643	102.67
827.08	77.27
827.516	59.97
827.953	53.17
828.389	61.77
828.825	47.27
829.262	42.47
829.698	48.77
830.135	47.47
830.571	48.07
831.007	47.57
831.443	42.47
831.88	41.37
832.316	37.87
832.752	40.27
833.188	45.07
833.624	41.37
834.06	48.57
834.497	49.57
834.933	48.57
835.369	50.27
835.805	46.37
836.241	58.27
836.677	56.37
837.112	62.07
837.548	68.07
837.984	97.67
838.42	142.37
838.856	340.37
839.292	1089.47
839.727	1761.07
840.163	818.57
840.599	652.47
841.034	1480.77
841.47	1675.07
841.906	593.87
842.341	240.27
842.777	141.07
843.212	151.77
843.648	146.97
844.083	81.67
844.519	59.57
844.954	53.17
845.39	32.17
845.825	37.57
846.261	38.67
846.696	35.47
847.131	31.67
847.566	43.77
848.002	42.17
848.437	36.27
848.872	40.27
849.307	35.37
849.742	63.07
850.177	120.27
850.613	394.27
851.048	652.97
851.483	280.17
851.918	116.07
852.353	63.77
852.788	39.27
853.223	39.07
853.657	38.17
854.092	32.27
854.527	32.77
854.962	31.97
855.397	35.47
855.832	40.77
856.266	31.67
856.701	31.17
857.136	25.87
857.57	32.97
858.005	30.97
858.44	46.47
858.874	26.97
859.309	45.27
859.743	30.97
860.178	31.97
860.612	29.67
861.047	33.97
861.481	51.07
861.915	55.87
862.35	38.27
862.784	22.27
863.218	31.07
863.653	28.77
864.087	36.97
864.521	42.37
864.955	45.57
865.39	114.57
865.824	130.37
866.258	85.67
866.692	136.27
867.126	155.07
867.56	93.07
867.994	52.17
868.428	31.77
868.862	35.87
869.296	49.87
869.73	41.87
870.164	42.17
870.598	36.07
871.031	28.07
871.465	29.87
871.899	26.07
872.333	15.17
872.766	18.87
873.2	19.47
873.634	21.87
874.067	18.57
874.501	15.87
874.935	21.67
875.368	20.67
875.802	19.47
876.235	21.97
876.669	16.47
877.102	16.67
877.535	18.07
877.969	17.77
878.402	17.87
878.836	12.37
879.269	18.77
879.702	22.87
880.135	18.87
880.569	14.47
881.002	20.37
881.435	17.57
881.868	16.27
882.301	14.47
882.734	8.87
883.167	20.37
883.601	14.07
884.034	19.27
884.467	12.07
884.899	11.67
885.332	13.17
885.765	8.97
886.198	10.87
886.631	7.77
887.064	8.37
887.497	13.27
887.929	14.57
888.362	9.47
888.795	11.47
889.228	8.47
889.66	16.57
890.093	8.17
890.526	15.57
890.958	11.17
891.391	11.47
891.823	15.97
892.256	7.97
892.688	3.57
893.121	11.27
893.553	7.57
893.985	18.57
894.418	13.47
894.85	9.27
895.282	8.47
895.715	6.37
896.147	11.27
896.579	19.77
897.011	10.57
897.444	10.37
897.876	6.37
898.308	7.77
898.74	12.87
899.172	17.77
899.604	12.37
900.036	13.17
900.468	4.77
900.9	5.57
901.332	10.47
901.764	8.87
902.196	14.87
902.628	17.37
903.06	9.67
903.491	20.37
903.923	18.47
904.355	16.07
904.787	16.37
905.218	16.47
905.65	11.17
906.082	9.57
906.513	2.97
906.945	10.37
907.376	11.27
907.808	13.57
908.239	13.97
908.671	10.07
909.102	13.97
909.534	15.87
909.965	38.27
910.397	67.07
910.828	233.97
911.259	365.67
911.691	165.77
912.122	74.87
912.553	37.67
912.984	21.87
913.415	22.87
913.847	20.47
914.278	15.67
914.709	17.57
915.14	12.07
915.571	15.87
916.002	10.67
916.433	16.77
916.864	8.67
917.295	8.97
917.726	14.47
918.157	9.37
918.587	27.57
919.018	17.77
919.449	11.67
919.88	19.87
920.311	25.07
920.741	30.67
921.172	117.77
921.603	116.47
922.033	55.37
922.464	35.77
922.895	11.67
923.325	16.47
923.756	7.37
924.186	8.67
924.617	9.77
925.047	17.87
925.478	15.27
925.908	18.27
926.338	13.47
926.769	6.47
927.199	12.67
927.629	4.67
928.06	10.47
928.49	11.17
928.92	12.37
929.35	9.27
929.78	8.67
930.21	5.17
930.641	6.57
931.071	9.87
931.501	1.37
931.931	7.37
932.361	9.67
932.791	0.17
933.221	10.57
933.651	-1.73
934.08	16.67
934.51	25.07
934.94	8.97
935.37	6.17
935.8	11.47
936.229	6.67
936.659	2.67
937.089	0.07
937.519	6.77
937.948	21.37
938.378	17.17
938.807	4.97
939.237	11.57
939.666	6.67
940.096	-6.33
940.525	4.67
940.955	0.77
941.384	4.77
941.814	-5.53
942.243	-0.23
942.672	7.77
943.102	-1.63
943.531	1.37
943.96	3.67
944.39	8.87
944.819	0.97
945.248	2.97
945.677	-4.93
946.106	2.97
946.535	1.67
946.964	-2.73
947.393	3.07
947.822	1.47
948.251	-8.23
948.68	0.87
949.109	4.37
949.538	4.57
949.967	-3.53
950.396	-0.83
950.825	-2.53
951.254	3.37
951.682	-7.53
952.111	0.77
952.54	4.97
952.969	-7.13
953.397	-5.93
953.826	2.97
954.254	0.77
954.683	1.57
955.112	6.57
955.54	-1.23
955.969	2.57
956.397	2.87
956.826	-7.53
957.254	4.27
957.682	-0.73
958.111	1.97
958.539	-4.33
958.967	5.37
959.396	-7.83
959.824	2.17
960.252	-0.53
960.68	-3.33
961.109	1.57
961.537	0.87
961.965	2.07
962.393	-1.63
962.821	-2.23
963.249	-0.23
963.677	0.37
964.105	0.77
964.533	32.07
964.961	27.47
965.389	15.37
965.817	2.67
966.245	3.57
966.672	0.97
967.1	-9.83
967.528	2.27
967.956	4.17
968.383	-0.13
968.811	-4.13
969.239	-1.03
969.666	-5.23
970.094	5.47
970.522	3.57
970.949	1.87
971.377	1.07
971.804	3.27
972.232	-1.23
972.659	1.37
973.087	-2.83
973.514	-6.73
973.941	-6.53
974.369	4.77
974.796	-2.43
975.223	-3.63
975.651	-2.13
976.078	4.97
976.505	-3.33
976.932	2.97
977.359	11.57
977.786	11.17
978.214	1.67
978.641	-4.83
979.068	-4.83
979.495	-8.73
979.922	2.37
980.349	-0.53
980.776	4.97
981.202	4.27
981.629	4.77
982.056	2.77
982.483	-0.93
982.91	7.57
983.337	-5.73
983.763	1.57
984.19	-1.43
984.617	-2.73
985.043	-8.13
985.47	0.57
985.897	-1.53
986.323	-8.73
986.75	2.27
987.176	-1.33
987.603	3.67
988.029	-5.03
988.456	-3.53
988.882	5.87
989.308	-3.93
989.735	-4.33
990.161	1.07
990.587	-5.73
991.014	-0.03
991.44	5.37
991.866	-1.63
992.292	-4.43
992.719	-1.73
993.145	1.47
993.571	-9.13
993.997	-2.33
994.423	5.57
994.849	-0.23
995.275	3.57
995.701	-1.23
996.127	0.37
996.553	1.47
996.979	-0.03
997.405	-0.43
997.83	-1.63
998.256	-8.93
998.682	-5.43
999.108	-4.83
999.534	1.17
999.959	-1.43
1000.385	-3.63
1000.811	1.77
1001.236	-7.43
1001.662	-0.83
1002.087	-8.63
1002.513	2.77
1002.938	3.37
1003.364	-5.13
1003.789	-3.63
1004.215	3.57
1004.64	1.77
1005.066	5.17
1005.491	-2.83
1005.916	1.47
1006.342	-8.03
1006.767	-9.33
1007.192	-2.33
1007.617	-2.23
1008.042	1.97
1008.468	-6.93
1008.893	0.17
1009.318	-1.93
1009.743	-1.03
1010.168	0.77
1010.593	7.67
1011.018	-3.53
1011.443	-1.53
1011.868	-0.33
1012.293	-2.33
1012.718	-7.93
1013.143	6.17
1013.567	2.97
1013.992	-0.43
1014.417	-7.93
1014.842	5.27
1015.267	-2.53
1015.691	-3.43
1016.116	7.67
1016.541	-3.43
1016.965	-1.33
1017.39	2.87
1017.814	-0.13
1018.239	0.17
1018.663	-6.03
1019.088	-9.63
1019.512	1.77
1019.937	3.77
1020.361	-1.43
1020.785	-5.33
1021.21	-2.63
1021.634	-0.03
1022.058	0.27
1022.483	0.17
1022.907	0.07
1023.331	-1.53
1023.755	-1.43
1024.179	1.17
1024.604	-2.63
1025.028	-0.13
1025.452	-2.03
1025.876	-2.83
1026.3	-3.03
1026.724	-10.73
1027.148	-1.93
1027.572	-2.23
1027.996	-0.43
1028.42	-0.13
1028.843	-1.03
1029.267	-6.03
1029.691	1.47
1030.115	-7.93
1030.539	-4.83
1030.962	-1.83
1031.386	-8.73
1031.81	-0.03
1032.233	-6.23
1032.657	-4.53
1033.08	-2.53
1033.504	-1.83
1033.927	-2.43
1034.351	1.57
1034.774	-4.13
1035.198	-2.23
1035.621	-6.73
1036.045	-7.03
1036.468	2.37
1036.891	-13.03
1037.315	-5.03
1037.738	-4.23
1038.161	7.57
1038.584	-0.53
1039.008	0.27
1039.431	-6.93
1039.854	-1.03
1040.277	-5.33
1040.7	-5.03
1041.123	4.97
1041.546	-9.13
1041.969	3.67
1042.392	-9.03
1042.815	-2.63
1043.238	0.07
1043.661	2.67
1044.084	-5.63
1044.507	-3.73
1044.93	-6.53
1045.352	-4.23
1045.775	2.67
1046.198	-3.83
1046.621	0.47
1047.043	-3.03
1047.466	8.97
1047.889	3.57
1048.311	-5.13
1048.734	-0.03
1049.156	-2.53
1049.579	-3.13
1050.001	-5.43
1050.424	-4.83
1050.846	-4.93
1051.269	-4.03
1051.691	-9.23
1052.113	-6.13
1052.536	2.17
1052.958	3.27
1053.38	-2.53
1053.802	-6.33
1054.225	5.47
1054.647	-13.03
1055.069	-1.93
1055.491	-1.13
1055.913	-9.73
1056.335	-2.83
1056.757	-3.03
1057.179	-0.93
1057.601	-4.23
1058.023	-3.33
1058.445	-6.73
1058.867	-6.23
1059.289	-0.43
1059.711	-0.73
1060.133	2.37
1060.555	-6.33
1060.976	3.37
1061.398	-13.23
1061.82	3.87
1062.241	-4.33
1062.663	-6.53
1063.085	-5.03
1063.506	0.67
1063.928	-3.23
1064.35	-3.43
1064.771	-16.23
1065.193	-6.33
1065.614	-10.23
1066.035	0.77
1066.457	-5.33
1066.878	3.07
1067.3	-1.43
1067.721	-3.53
1068.142	-3.13
1068.564	-5.03
1068.985	-1.03
1069.406	-9.53
1069.827	-5.53
1070.248	-1.23
1070.67	-1.43
1071.091	-0.73
1071.512	-0.03
1071.933	-5.33
1072.354	-1.93
1072.775	-7.03
1073.196	-4.03
1073.617	-1.93
1074.038	-3.93
1074.459	-5.33
1074.88	-1.83
1075.3	1.07
1075.721	-3.73
1076.142	0.37
1076.563	0.87
1076.983	-10.23
1077.404	0.97
1077.825	-8.63
1078.246	-0.53
1078.666	-11.93
1079.087	0.17
1079.507	-6.83
1079.928	-2.43
1080.348	-4.43
1080.769	-3.53
1081.189	-1.03
1081.61	-4.73
1082.03	-4.73
1082.451	-3.93
1082.871	3.77
1083.291	-5.33
1083.711	-10.93
1084.132	-1.23
1084.552	0.67
1084.972	-1.73
1085.392	-4.23
1085.813	-7.53
1086.233	-8.93
1086.653	-3.93
1087.073	-2.73
1087.493	-4.63
1087.913	-3.83
1088.333	-0.83
1088.753	-1.43
1089.173	7.97
1089.593	-0.53
1090.013	2.87
1090.433	-6.03
1090.852	-1.63
1091.272	-4.83
1091.692	-2.33
1092.112	-5.83
1092.531	-4.93
1092.951	-15.33
1093.371	-3.73
1093.79	0.47
1094.21	-0.03
1094.63	-1.03
1095.049	-1.63
1095.469	3.47
1095.888	-3.53
1096.308	1.17
1096.727	3.07
1097.146	-7.73
1097.566	-0.43
1097.985	-10.63
1098.405	4.17
1098.824	-4.53
1099.243	-9.03
1099.662	-8.73
1100.082	-1.93
1100.501	-1.53
1100.92	-4.63
1101.339	-5.93
1101.758	-3.93
