Data from 20171114-ORNL-Ar_H_NY_Subt18_08-03-48-413.txt Node
Date: Tue Nov 14 08:03:48 EST 2017
User: Ender
Spectrometer: HR+D1039
Trigger mode: 0
Integration Time (sec): 2.730000E-2
Scans to average: 10
Electric dark correction enabled: true
Nonlinearity correction enabled: false
Boxcar width: 0
XAxis mode: Wavelengths
Number of Pixels in Spectrum: 2048
>>>>>Begin Spectral Data<<<<<
187.836	-0.03
188.309	-0.03
188.782	-0.03
189.255	-1.23
189.728	-6.23
190.201	6.77
190.674	-4.03
191.147	3.37
191.619	-6.23
192.092	1.57
192.565	3.57
193.038	-0.23
193.511	0.07
193.984	0.07
194.456	3.07
194.929	0.07
195.402	5.27
195.874	-5.93
196.347	1.97
196.82	-6.73
197.292	7.67
197.765	-2.63
198.237	-2.43
198.71	4.17
199.182	-0.23
199.655	1.87
200.127	3.77
200.6	-3.63
201.072	-1.33
201.544	-0.03
202.017	-1.83
202.489	-0.53
202.961	-7.93
203.433	-3.03
203.906	-4.03
204.378	-4.53
204.85	1.97
205.322	-5.03
205.794	0.27
206.266	-5.43
206.739	-5.43
207.211	-0.13
207.683	-3.23
208.155	-2.73
208.627	-5.83
209.099	-2.33
209.57	-9.33
210.042	-6.83
210.514	-3.23
210.986	-2.33
211.458	-10.73
211.93	-3.93
212.402	5.17
212.873	0.07
213.345	-6.13
213.817	-5.43
214.288	-8.53
214.76	-13.93
215.232	-4.83
215.703	-4.03
216.175	-3.23
216.646	-3.53
217.118	-6.33
217.589	2.17
218.061	2.57
218.532	-5.73
219.004	0.97
219.475	-3.23
219.946	-0.23
220.418	-10.63
220.889	2.57
221.36	-2.73
221.832	-4.83
222.303	-5.33
222.774	-1.33
223.245	-3.53
223.717	-1.83
224.188	-9.43
224.659	-7.13
225.13	-10.93
225.601	-0.03
226.072	-4.03
226.543	-5.43
227.014	3.47
227.485	-2.13
227.956	-7.43
228.427	-2.63
228.898	-1.23
229.369	3.17
229.839	-8.83
230.31	-10.03
230.781	-6.33
231.252	-5.93
231.722	-4.13
232.193	-7.13
232.664	-2.03
233.135	0.97
233.605	-5.63
234.076	-7.63
234.546	-1.33
235.017	0.67
235.487	-2.23
235.958	-3.33
236.428	-5.53
236.899	-5.43
237.369	-1.53
237.84	-9.83
238.31	-1.83
238.78	0.37
239.251	-5.13
239.721	-0.03
240.191	-1.43
240.662	-4.33
241.132	-1.53
241.602	-2.33
242.072	-1.13
242.542	4.87
243.013	-2.63
243.483	3.47
243.953	0.37
244.423	-2.03
244.893	-6.23
245.363	1.67
245.833	-5.63
246.303	-1.93
246.773	0.77
247.243	-2.23
247.712	0.37
248.182	6.87
248.652	-1.13
249.122	-2.93
249.592	1.47
250.061	0.07
250.531	5.37
251.001	-2.83
251.471	1.47
251.94	5.27
252.41	-7.73
252.879	-3.73
253.349	7.67
253.818	4.87
254.288	1.57
254.757	-5.03
255.227	0.57
255.696	-2.43
256.166	3.87
256.635	1.17
257.105	11.47
257.574	2.17
258.043	-1.83
258.513	-7.23
258.982	0.27
259.451	-7.53
259.92	5.57
260.389	-3.03
260.859	9.77
261.328	-2.23
261.797	7.57
262.266	-3.13
262.735	5.37
263.204	4.47
263.673	-2.03
264.142	-1.53
264.611	-9.13
265.08	-2.63
265.549	-6.23
266.018	4.67
266.487	-4.93
266.955	0.37
267.424	-0.73
267.893	6.07
268.362	-1.23
268.83	6.27
269.299	3.57
269.768	1.17
270.236	2.87
270.705	0.57
271.174	1.47
271.642	11.47
272.111	0.67
272.579	-0.83
273.048	-2.13
273.516	1.37
273.985	-4.13
274.453	9.27
274.922	11.37
275.39	5.27
275.858	-7.03
276.327	7.47
276.795	14.77
277.263	0.67
277.731	9.47
278.2	3.87
278.668	4.37
279.136	12.77
279.604	-1.33
280.072	9.17
280.54	7.27
281.008	6.37
281.477	10.47
281.945	6.37
282.413	6.07
282.881	10.17
283.348	7.07
283.816	13.77
284.284	3.87
284.752	13.07
285.22	8.07
285.688	9.87
286.156	7.27
286.623	12.87
287.091	6.67
287.559	13.27
288.026	11.77
288.494	12.47
288.962	3.77
289.429	13.67
289.897	11.87
290.364	10.37
290.832	12.97
291.3	12.87
291.767	12.47
292.234	9.77
292.702	6.87
293.169	13.37
293.637	15.57
294.104	15.37
294.571	3.57
295.039	5.87
295.506	11.07
295.973	8.77
296.44	7.77
296.908	6.87
297.375	17.57
297.842	10.47
298.309	10.77
298.776	6.77
299.243	13.57
299.71	8.77
300.177	13.37
300.644	19.87
301.111	12.17
301.578	15.87
302.045	12.57
302.512	16.97
302.979	17.07
303.446	19.97
303.913	14.07
304.379	12.57
304.846	17.07
305.313	21.17
305.78	13.57
306.246	18.37
306.713	16.77
307.18	21.07
307.646	19.87
308.113	13.97
308.579	10.17
309.046	11.77
309.512	20.57
309.979	15.97
310.445	15.47
310.912	18.67
311.378	27.57
311.845	24.37
312.311	24.57
312.777	23.57
313.244	20.77
313.71	31.17
314.176	22.37
314.642	15.77
315.109	24.77
315.575	26.37
316.041	22.57
316.507	23.77
316.973	27.37
317.439	28.37
317.905	29.87
318.371	28.47
318.837	25.77
319.303	24.07
319.769	27.37
320.235	21.77
320.701	25.87
321.167	26.17
321.633	26.07
322.099	28.17
322.564	31.27
323.03	30.97
323.496	32.87
323.962	32.67
324.427	26.27
324.893	30.97
325.359	32.87
325.824	33.97
326.29	26.27
326.755	28.87
327.221	31.67
327.686	32.47
328.152	41.37
328.617	36.77
329.083	38.27
329.548	40.17
330.014	40.57
330.479	33.27
330.944	37.97
331.41	39.37
331.875	35.97
332.34	37.37
332.805	39.17
333.271	40.17
333.736	32.27
334.201	44.07
334.666	40.67
335.131	41.77
335.596	46.47
336.061	40.47
336.526	33.47
336.991	40.77
337.456	49.37
337.921	46.07
338.386	37.47
338.851	38.67
339.316	41.27
339.781	37.47
340.246	47.37
340.711	44.17
341.175	49.17
341.64	44.47
342.105	49.37
342.569	54.97
343.034	50.27
343.499	41.77
343.963	55.07
344.428	55.77
344.893	52.17
345.357	53.37
345.822	59.57
346.286	59.37
346.751	63.87
347.215	60.17
347.679	63.87
348.144	78.97
348.608	70.17
349.073	64.07
349.537	66.57
350.001	66.17
350.465	78.47
350.93	74.67
351.394	72.87
351.858	65.77
352.322	77.27
352.786	73.17
353.25	87.17
353.715	96.67
354.179	88.37
354.643	100.57
355.107	105.07
355.571	92.67
356.035	94.87
356.498	95.87
356.962	94.67
357.426	105.17
357.89	95.27
358.354	79.57
358.818	81.47
359.281	77.97
359.745	70.37
360.209	76.67
360.673	70.17
361.136	76.57
361.6	81.57
362.064	79.27
362.527	86.47
362.991	86.67
363.454	73.87
363.918	74.57
364.381	79.37
364.845	78.47
365.308	84.27
365.772	86.17
366.235	93.37
366.698	77.27
367.162	80.07
367.625	85.87
368.088	89.77
368.552	88.47
369.015	87.27
369.478	95.47
369.941	95.97
370.404	92.27
370.867	102.17
371.331	104.27
371.794	101.27
372.257	94.57
372.72	101.47
373.183	104.87
373.646	94.57
374.109	99.37
374.572	103.27
375.035	98.07
375.497	105.17
375.96	102.97
376.423	100.17
376.886	113.97
377.349	110.57
377.811	102.07
378.274	112.47
378.737	107.37
379.199	111.27
379.662	111.67
380.125	113.57
380.587	107.87
381.05	114.37
381.512	115.17
381.975	119.47
382.437	127.07
382.9	121.17
383.362	119.77
383.825	130.17
384.287	128.07
384.75	117.97
385.212	125.37
385.674	135.97
386.136	138.57
386.599	118.37
387.061	127.27
387.523	121.77
387.985	129.17
388.447	138.37
388.91	126.17
389.372	132.07
389.834	122.67
390.296	127.87
390.758	133.27
391.22	133.57
391.682	151.97
392.144	151.57
392.606	148.37
393.068	143.47
393.529	157.27
393.991	145.57
394.453	142.27
394.915	143.37
395.377	130.87
395.838	140.27
396.3	140.27
396.762	148.97
397.224	147.37
397.685	140.27
398.147	138.77
398.608	136.07
399.07	132.27
399.531	138.47
399.993	153.17
400.454	158.57
400.916	160.07
401.377	154.27
401.839	158.27
402.3	157.17
402.762	176.17
403.223	183.87
403.684	177.77
404.145	170.67
404.607	170.27
405.068	169.07
405.529	172.97
405.99	183.87
406.451	177.77
406.913	175.67
407.374	174.17
407.835	167.97
408.296	176.87
408.757	178.87
409.218	192.47
409.679	184.77
410.14	183.07
410.601	178.67
411.062	190.47
411.522	189.37
411.983	185.67
412.444	186.67
412.905	190.07
413.366	194.57
413.826	210.47
414.287	237.47
414.748	287.47
415.208	269.57
415.669	228.77
416.13	224.37
416.59	223.27
417.051	235.07
417.511	241.67
417.972	257.07
418.432	273.77
418.893	322.77
419.353	282.97
419.814	209.37
420.274	202.37
420.734	196.57
421.195	208.17
421.655	200.47
422.115	204.87
422.576	211.37
423.036	213.17
423.496	225.37
423.956	233.67
424.416	244.27
424.876	282.67
425.336	273.97
425.797	282.17
426.257	266.17
426.717	247.57
427.177	236.47
427.637	237.77
428.097	242.27
428.556	253.57
429.016	284.27
429.476	276.87
429.936	278.57
430.396	288.67
430.856	291.47
431.315	319.17
431.775	345.67
432.235	379.07
432.694	352.07
433.154	366.57
433.614	377.77
434.073	336.77
434.533	296.87
434.993	271.77
435.452	285.57
435.912	294.27
436.371	280.87
436.83	269.57
437.29	263.87
437.749	254.47
438.209	257.37
438.668	267.87
439.127	275.17
439.587	261.87
440.046	249.57
440.505	260.87
440.964	263.77
441.424	297.07
441.883	301.67
442.342	268.17
442.801	242.17
443.26	239.57
443.719	239.77
444.178	233.37
444.637	228.17
445.096	239.07
445.555	236.87
446.014	240.47
446.473	245.57
446.932	244.97
447.391	234.47
447.849	237.07
448.308	232.37
448.767	234.87
449.226	250.37
449.685	246.67
450.143	254.67
450.602	252.47
451.061	243.57
451.519	238.07
451.978	240.37
452.436	231.97
452.895	241.47
453.353	255.47
453.812	244.67
454.27	248.17
454.729	249.37
455.187	247.67
455.646	240.07
456.104	248.07
456.562	260.07
457.021	266.67
457.479	270.37
457.937	270.57
458.395	269.57
458.854	255.57
459.312	264.47
459.77	271.37
460.228	264.37
460.686	250.47
461.144	255.07
461.602	253.97
462.06	250.07
462.518	259.07
462.976	257.67
463.434	261.17
463.892	261.57
464.35	278.87
464.808	291.07
465.266	278.47
465.724	277.87
466.181	283.07
466.639	276.87
467.097	297.77
467.555	306.77
468.012	298.57
468.47	312.37
468.928	332.57
469.385	333.07
469.843	344.97
470.3	344.37
470.758	352.47
471.215	369.17
471.673	393.67
472.13	388.07
472.588	404.77
473.045	367.17
473.503	379.57
473.96	405.67
474.417	398.97
474.875	425.47
475.332	463.77
475.789	451.37
476.246	456.27
476.704	471.97
477.161	496.17
477.618	504.97
478.075	539.77
478.532	580.47
478.989	651.47
479.446	727.07
479.903	725.07
480.36	760.67
480.817	797.17
481.274	888.77
481.731	971.37
482.188	1040.67
482.645	1152.88
483.102	1241.07
483.558	1357.97
484.015	1410.87
484.472	1390.37
484.929	1357.17
485.385	1321.27
485.842	1297.87
486.299	1232.77
486.755	1181.37
487.212	1017.37
487.668	879.97
488.125	814.57
488.582	760.47
489.038	717.97
489.494	684.57
489.951	662.17
490.407	643.87
490.864	626.47
491.32	620.77
491.776	613.97
492.233	621.37
492.689	587.07
493.145	582.47
493.602	575.07
494.058	592.37
494.514	583.87
494.97	601.27
495.426	603.67
495.882	591.87
496.338	586.47
496.794	589.77
497.251	585.37
497.707	602.17
498.163	598.57
498.618	606.27
499.074	607.17
499.53	620.47
499.986	619.47
500.442	598.87
500.898	593.67
501.354	586.47
501.809	595.47
502.265	591.87
502.721	600.27
503.177	610.57
503.632	617.17
504.088	612.27
504.543	637.27
504.999	645.07
505.455	614.27
505.91	612.07
506.366	608.37
506.821	602.57
507.277	605.37
507.732	603.67
508.187	608.27
508.643	611.97
509.098	611.67
509.553	635.57
510.009	631.07
510.464	639.07
510.919	657.87
511.375	656.77
511.83	665.37
512.285	680.77
512.74	707.87
513.195	714.17
513.65	708.57
514.105	714.77
514.56	710.87
515.015	717.87
515.47	736.27
515.925	726.77
516.38	736.27
516.835	744.17
517.29	726.87
517.745	715.27
518.2	704.27
518.655	695.57
519.109	692.57
519.564	685.87
520.019	681.97
520.474	670.57
520.928	671.27
521.383	655.17
521.838	658.07
522.292	661.27
522.747	661.57
523.201	650.47
523.656	644.07
524.11	643.07
524.565	650.67
525.019	629.87
525.474	646.67
525.928	642.47
526.382	639.97
526.837	636.47
527.291	638.97
527.745	626.97
528.2	636.77
528.654	630.07
529.108	623.27
529.562	628.17
530.016	626.77
530.47	619.97
530.925	626.97
531.379	630.77
531.833	637.97
532.287	627.57
532.741	629.77
533.195	624.37
533.649	641.67
534.103	636.87
534.556	617.67
535.01	635.37
535.464	621.17
535.918	638.27
536.372	636.87
536.826	628.77
537.279	627.17
537.733	627.17
538.187	631.17
538.64	637.47
539.094	642.87
539.548	653.67
540.001	635.97
540.455	643.57
540.908	643.97
541.362	650.67
541.815	652.97
542.269	666.97
542.722	669.37
543.175	680.47
543.629	678.37
544.082	700.67
544.536	693.57
544.989	691.77
545.442	704.27
545.895	698.17
546.349	704.27
546.802	701.27
547.255	706.37
547.708	697.67
548.161	712.57
548.614	716.67
549.067	726.87
549.52	719.07
549.973	711.07
550.426	698.47
550.879	684.87
551.332	696.57
551.785	700.97
552.238	699.07
552.691	712.37
553.144	719.57
553.596	728.47
554.049	745.07
554.502	769.07
554.955	775.87
555.407	780.27
555.86	766.17
556.313	760.17
556.765	750.47
557.218	749.07
557.67	739.47
558.123	743.17
558.576	749.87
559.028	755.77
559.48	759.77
559.933	735.47
560.385	716.47
560.838	697.47
561.29	669.17
561.742	663.07
562.195	655.17
562.647	653.97
563.099	664.57
563.551	651.47
564.004	673.37
564.456	650.87
564.908	638.77
565.36	624.67
565.812	608.27
566.264	604.17
566.716	602.97
567.168	597.97
567.62	602.87
568.072	579.17
568.524	580.77
568.976	577.57
569.428	557.57
569.88	568.07
570.332	571.67
570.784	575.47
571.235	567.07
571.687	577.97
572.139	588.07
572.59	591.17
573.042	594.67
573.494	583.37
573.945	584.17
574.397	563.07
574.849	565.67
575.3	570.77
575.752	558.77
576.203	553.27
576.655	567.67
577.106	546.97
577.557	537.67
578.009	546.27
578.46	540.67
578.912	542.97
579.363	538.27
579.814	543.47
580.265	536.57
580.717	544.77
581.168	542.67
581.619	557.07
582.07	552.17
582.521	559.07
582.972	552.17
583.423	537.77
583.875	545.97
584.326	549.57
584.777	569.37
585.227	585.27
585.678	600.47
586.129	628.37
586.58	647.57
587.031	662.17
587.482	691.17
587.933	722.77
588.384	709.67
588.834	653.87
589.285	620.37
589.736	630.67
590.186	632.77
590.637	619.47
591.088	597.37
591.538	602.27
591.989	594.07
592.439	573.17
592.89	570.67
593.34	565.77
593.791	557.17
594.241	560.17
594.692	549.37
595.142	553.17
595.593	553.57
596.043	553.47
596.493	555.37
596.943	556.07
597.394	564.77
597.844	560.77
598.294	572.07
598.744	597.17
599.195	611.67
599.645	638.87
600.095	672.87
600.545	716.37
600.995	755.47
601.445	808.67
601.895	850.27
602.345	879.77
602.795	866.87
603.245	842.57
603.695	800.87
604.145	760.97
604.594	724.67
605.044	677.87
605.494	624.37
605.944	591.27
606.393	580.37
606.843	575.17
607.293	567.07
607.743	557.17
608.192	564.57
608.642	580.17
609.091	580.77
609.541	581.57
609.99	580.47
610.44	572.87
610.889	557.17
611.339	532.87
611.788	526.47
612.238	530.97
612.687	546.07
613.136	532.07
613.586	546.57
614.035	544.37
614.484	543.87
614.933	538.77
615.383	549.77
615.832	533.17
616.281	536.07
616.73	512.57
617.179	499.27
617.628	491.47
618.077	478.97
618.526	476.87
618.975	463.57
619.424	470.77
619.873	470.07
620.322	466.77
620.771	458.97
621.22	465.17
621.669	453.67
622.118	432.77
622.567	433.07
623.015	421.27
623.464	433.47
623.913	425.67
624.361	418.77
624.81	416.17
625.259	424.07
625.707	421.07
626.156	421.87
626.604	424.97
627.053	423.57
627.501	425.27
627.95	430.27
628.398	441.37
628.847	434.97
629.295	427.17
629.744	441.07
630.192	418.17
630.64	420.77
631.089	409.87
631.537	403.07
631.985	395.57
632.433	392.37
632.881	392.17
633.33	394.17
633.778	391.17
634.226	391.67
634.674	391.97
635.122	399.07
635.57	405.27
636.018	411.57
636.466	417.67
636.914	414.57
637.362	424.27
637.81	431.77
638.258	423.27
638.705	432.47
639.153	447.47
639.601	456.57
640.049	467.77
640.497	495.07
640.944	518.97
641.392	479.67
641.84	453.07
642.287	431.07
642.735	421.67
643.182	421.37
643.63	419.47
644.078	416.17
644.525	428.97
644.973	428.07
645.42	444.07
645.867	450.87
646.315	470.47
646.762	480.27
647.21	493.47
647.657	508.37
648.104	537.77
648.551	546.07
648.999	590.17
649.446	626.87
649.893	685.27
650.34	773.37
650.787	932.07
651.234	1129.57
651.682	1452.67
652.129	1952.07
652.576	2742.77
653.023	4002.37
653.47	5568.47
653.917	7030.07
654.363	8247.27
654.81	9324.07
655.257	8886.77
655.704	5876.88
656.151	3469.38
656.598	2286.07
657.044	1634.47
657.491	1264.87
657.938	1014.97
658.385	859.77
658.831	752.57
659.278	669.67
659.724	597.27
660.171	552.57
660.618	508.97
661.064	482.37
661.511	459.57
661.957	455.27
662.404	444.57
662.85	440.87
663.296	428.27
663.743	404.17
664.189	389.97
664.635	387.27
665.082	377.07
665.528	383.17
665.974	370.77
666.42	368.77
666.867	351.47
667.313	342.17
667.759	337.57
668.205	332.47
668.651	323.67
669.097	323.67
669.543	322.27
669.989	314.27
670.435	328.57
670.881	327.27
671.327	326.57
671.773	342.67
672.219	365.97
672.665	391.47
673.11	419.57
673.556	459.67
674.002	490.07
674.448	474.37
674.893	401.87
675.339	351.97
675.785	332.27
676.23	301.57
676.676	285.37
677.122	279.77
677.567	266.67
678.013	263.47
678.458	256.17
678.904	259.77
679.349	248.37
679.794	257.27
680.24	258.77
680.685	241.87
681.131	247.17
681.576	250.87
682.021	266.17
682.466	254.77
682.912	244.57
683.357	244.17
683.802	275.27
684.247	290.77
684.692	318.97
685.137	352.37
685.583	383.97
686.028	405.77
686.473	374.67
686.918	312.57
687.363	308.07
687.807	285.27
688.252	260.57
688.697	254.67
689.142	240.67
689.587	239.07
690.032	227.57
690.477	252.27
690.921	240.17
691.366	275.57
691.811	288.57
692.255	307.87
692.7	329.47
693.145	351.97
693.589	480.17
694.034	777.07
694.478	1092.97
694.923	1277.67
695.367	1712.57
695.812	902.97
696.256	361.77
696.701	269.47
697.145	245.37
697.59	232.87
698.034	227.97
698.478	236.37
698.922	226.07
699.367	228.77
699.811	244.67
700.255	244.87
700.699	277.37
701.143	297.37
701.588	341.17
702.032	367.97
702.476	364.37
702.92	357.27
703.364	351.77
703.808	448.17
704.252	717.47
704.696	1033.87
705.14	1229.47
705.584	1607.47
706.027	784.97
706.471	374.77
706.915	291.07
707.359	255.57
707.803	227.17
708.246	221.77
708.69	222.27
709.134	222.27
709.577	219.97
710.021	220.27
710.465	221.77
710.908	213.67
711.352	215.27
711.795	225.27
712.239	247.27
712.682	262.67
713.126	297.67
713.569	338.67
714.012	256.37
714.456	222.37
714.899	206.77
715.342	200.47
715.786	179.27
716.229	181.47
716.672	182.17
717.115	171.47
717.558	176.77
718.002	180.47
718.445	188.57
718.888	198.57
719.331	208.17
719.774	217.47
720.217	216.77
720.66	199.17
721.103	185.47
721.546	178.67
721.989	177.07
722.432	164.37
722.874	164.67
723.317	157.57
723.76	162.47
724.203	174.77
724.645	217.67
725.088	313.57
725.531	397.27
725.974	465.27
726.416	396.97
726.859	225.77
727.301	170.37
727.744	162.27
728.187	167.67
728.629	165.77
729.071	165.87
729.514	186.17
729.956	196.77
730.399	203.37
730.841	202.67
731.283	194.87
731.726	193.87
732.168	183.67
732.61	183.67
733.053	201.87
733.495	219.97
733.937	244.47
734.379	282.57
734.821	306.77
735.263	380.37
735.705	570.07
736.148	1072.57
736.59	1839.17
737.032	2297.27
737.474	1887.77
737.916	600.57
738.357	313.17
738.799	234.87
739.241	212.47
739.683	199.27
740.125	211.07
740.567	223.17
741.008	229.47
741.45	237.47
741.892	231.77
742.334	257.97
742.775	271.57
743.217	259.37
743.658	199.07
744.1	182.07
744.542	191.67
744.983	228.67
745.425	269.97
745.866	262.07
746.307	204.57
746.749	193.67
747.19	227.67
747.632	312.47
748.073	584.27
748.514	1271.37
748.956	2064.47
749.397	2591.17
749.838	2159.67
750.279	2232.17
750.72	1130.37
751.162	399.57
751.603	227.07
752.044	178.97
752.485	151.77
752.926	145.77
753.367	144.67
753.808	141.27
754.249	139.27
754.69	132.17
755.131	124.57
755.572	123.97
756.013	122.97
756.453	135.27
756.894	127.37
757.335	137.47
757.776	142.37
758.216	138.27
758.657	143.97
759.098	141.57
759.538	156.97
759.979	183.07
760.42	255.97
760.86	477.67
761.301	1237.57
761.741	3140.07
762.182	4994.27
762.622	3532.07
763.063	988.87
763.503	394.47
763.943	244.17
764.384	211.07
764.824	197.87
765.264	187.47
765.705	154.17
766.145	130.57
766.585	124.17
767.025	115.07
767.465	111.27
767.906	133.27
768.346	152.97
768.786	159.77
769.226	156.77
769.666	210.27
770.106	411.37
770.546	1064.38
770.986	1962.77
771.426	1806.17
771.866	588.47
772.306	234.17
772.745	150.57
773.185	123.77
773.625	110.27
774.065	102.37
774.505	116.47
774.944	145.77
775.384	256.07
775.824	469.87
776.263	466.77
776.703	219.27
777.142	113.97
777.582	101.97
778.021	89.47
778.461	96.97
778.9	89.47
779.34	86.07
779.779	79.27
780.219	81.07
780.658	72.97
781.097	72.77
781.537	77.47
781.976	79.47
782.415	70.97
782.855	76.97
783.294	71.27
783.733	72.17
784.172	72.97
784.611	67.27
785.05	72.57
785.489	77.07
785.928	79.87
786.367	84.17
786.806	79.67
787.245	87.17
787.684	101.97
788.123	106.07
788.562	91.17
789.001	88.87
789.44	87.17
789.879	79.77
790.317	82.47
790.756	87.87
791.195	87.47
791.634	103.87
792.072	144.47
792.511	247.67
792.95	681.57
793.388	1550.17
793.827	1470.97
794.265	491.37
794.704	201.57
795.142	131.17
795.581	109.87
796.019	94.47
796.458	86.27
796.896	86.57
797.334	91.27
797.773	110.67
798.211	155.47
798.649	297.57
799.087	716.87
799.526	1150.38
799.964	1464.47
800.402	1547.17
800.84	567.97
801.278	220.07
801.716	139.77
802.154	113.07
802.592	108.27
803.03	101.17
803.468	90.57
803.906	107.67
804.344	108.47
804.782	101.47
805.22	97.57
805.658	97.67
806.096	103.57
806.533	112.57
806.971	121.87
807.409	151.97
807.847	223.47
808.284	448.07
808.722	1316.87
809.16	2469.57
809.597	2284.38
810.035	4050.18
810.472	4636.68
810.91	1633.87
811.347	603.87
811.785	296.57
812.222	191.57
812.66	144.77
813.097	121.07
813.535	101.27
813.972	100.67
814.409	89.57
814.846	80.37
815.284	77.07
815.721	76.37
816.158	75.27
816.595	84.77
817.032	119.47
817.47	145.17
817.907	112.27
818.344	79.27
818.781	68.07
819.218	69.17
819.655	91.97
820.092	149.57
820.529	167.37
820.966	145.07
821.403	102.67
821.839	71.57
822.276	65.27
822.713	94.17
823.15	105.37
823.587	84.87
824.023	105.17
824.46	195.77
824.897	626.77
825.333	1022.97
825.77	444.47
826.206	169.67
826.643	99.57
827.08	74.47
827.516	55.37
827.953	54.47
828.389	59.67
828.825	53.17
829.262	43.97
829.698	48.77
830.135	49.27
830.571	41.77
831.007	41.97
831.443	51.57
831.88	40.87
832.316	41.47
832.752	42.17
833.188	43.97
833.624	44.17
834.06	47.17
834.497	51.77
834.933	53.57
835.369	49.57
835.805	49.57
836.241	54.47
836.677	60.57
837.112	60.77
837.548	73.87
837.984	93.17
838.42	136.77
838.856	346.07
839.292	1091.97
839.727	1793.87
840.163	817.37
840.599	648.27
841.034	1507.37
841.47	1674.67
841.906	598.77
842.341	248.47
842.777	147.97
843.212	154.07
843.648	142.87
844.083	84.67
844.519	63.37
844.954	51.07
845.39	42.47
845.825	41.07
846.261	37.67
846.696	31.07
847.131	35.47
847.566	43.27
848.002	36.97
848.437	34.37
848.872	47.17
849.307	42.87
849.742	56.07
850.177	118.37
850.613	390.07
851.048	659.07
851.483	284.37
851.918	104.27
852.353	62.47
852.788	34.87
853.223	34.57
853.657	45.87
854.092	33.77
854.527	25.27
854.962	26.57
855.397	34.17
855.832	37.47
856.266	30.87
856.701	28.67
857.136	28.47
857.57	29.27
858.005	32.87
858.44	45.07
858.874	26.97
859.309	39.67
859.743	23.67
860.178	35.47
860.612	30.97
861.047	33.67
861.481	54.77
861.915	62.57
862.35	40.57
862.784	27.87
863.218	32.57
863.653	25.07
864.087	32.07
864.521	37.27
864.955	50.37
865.39	108.97
865.824	132.17
866.258	84.67
866.692	135.97
867.126	154.17
867.56	93.27
867.994	42.17
868.428	28.97
868.862	39.57
869.296	37.97
869.73	41.27
870.164	46.57
870.598	38.77
871.031	23.87
871.465	20.97
871.899	22.57
872.333	19.87
872.766	21.67
873.2	13.57
873.634	19.77
874.067	19.37
874.501	14.47
874.935	26.67
875.368	16.87
875.802	20.27
876.235	18.27
876.669	20.87
877.102	15.87
877.535	15.77
877.969	18.87
878.402	22.27
878.836	13.07
879.269	14.77
879.702	17.27
880.135	6.07
880.569	16.47
881.002	19.67
881.435	13.47
881.868	10.37
882.301	19.37
882.734	9.07
883.167	16.77
883.601	15.27
884.034	20.77
884.467	11.27
884.899	14.27
885.332	6.97
885.765	7.17
886.198	11.07
886.631	12.97
887.064	13.07
887.497	19.67
887.929	20.07
888.362	7.67
888.795	14.57
889.228	16.57
889.66	9.17
890.093	13.07
890.526	14.27
890.958	9.57
891.391	12.07
891.823	17.77
892.256	9.77
892.688	7.87
893.121	11.27
893.553	11.17
893.985	19.27
894.418	14.07
894.85	6.07
895.282	16.67
895.715	14.77
896.147	14.77
896.579	14.37
897.011	7.97
897.444	9.97
897.876	9.17
898.308	12.67
898.74	11.17
899.172	10.17
899.604	18.27
900.036	17.57
900.468	6.47
900.9	13.97
901.332	14.57
901.764	10.87
902.196	20.47
902.628	14.47
903.06	11.37
903.491	28.87
903.923	15.47
904.355	19.37
904.787	16.47
905.218	16.57
905.65	9.77
906.082	-0.73
906.513	7.17
906.945	12.57
907.376	6.97
907.808	13.77
908.239	15.87
908.671	9.87
909.102	16.07
909.534	12.27
909.965	37.17
910.397	63.77
910.828	237.07
911.259	369.57
911.691	170.27
912.122	80.07
912.553	36.67
912.984	29.47
913.415	15.07
913.847	17.17
914.278	11.07
914.709	10.27
915.14	14.57
915.571	15.47
916.002	10.47
916.433	13.77
916.864	18.97
917.295	8.57
917.726	17.27
918.157	18.47
918.587	25.97
919.018	13.47
919.449	13.67
919.88	15.27
920.311	19.77
920.741	34.97
921.172	130.07
921.603	118.77
922.033	51.27
922.464	38.97
922.895	15.97
923.325	13.17
923.756	7.27
924.186	8.47
924.617	10.97
925.047	15.37
925.478	17.17
925.908	18.07
926.338	6.97
926.769	3.67
927.199	12.27
927.629	11.47
928.06	9.87
928.49	11.67
928.92	14.47
929.35	11.97
929.78	4.07
930.21	5.07
930.641	5.77
931.071	9.07
931.501	7.27
931.931	9.57
932.361	11.07
932.791	2.57
933.221	0.47
933.651	0.27
934.08	11.87
934.51	19.47
934.94	9.47
935.37	6.47
935.8	10.47
936.229	3.77
936.659	11.87
937.089	4.47
937.519	10.87
937.948	24.57
938.378	12.87
938.807	9.37
939.237	3.77
939.666	6.57
940.096	-8.83
940.525	-1.83
940.955	3.17
941.384	7.57
941.814	-2.83
942.243	3.37
942.672	4.47
943.102	-1.63
943.531	0.17
943.96	1.47
944.39	9.37
944.819	1.67
945.248	4.27
945.677	5.57
946.106	2.57
946.535	0.97
946.964	-0.33
947.393	3.47
947.822	1.17
948.251	-9.13
948.68	5.77
949.109	1.97
949.538	3.37
949.967	-1.73
950.396	3.27
950.825	-4.13
951.254	-1.03
951.682	-2.23
952.111	6.77
952.54	5.07
952.969	-7.33
953.397	-2.93
953.826	5.57
954.254	-2.73
954.683	0.77
955.112	-1.93
955.54	3.27
955.969	1.27
956.397	7.17
956.826	-0.23
957.254	5.77
957.682	-0.03
958.111	4.17
958.539	-4.63
958.967	2.37
959.396	-4.13
959.824	3.77
960.252	0.57
960.68	-8.53
961.109	-8.93
961.537	-2.43
961.965	-1.33
962.393	5.27
962.821	0.97
963.249	0.57
963.677	5.77
964.105	1.27
964.533	35.87
964.961	34.17
965.389	15.07
965.817	5.87
966.245	3.77
966.672	2.77
967.1	-11.53
967.528	0.67
967.956	-0.93
968.383	-1.23
968.811	-5.23
969.239	-0.13
969.666	-1.23
970.094	2.77
970.522	2.17
970.949	3.47
971.377	-1.33
971.804	-2.63
972.232	-1.93
972.659	0.17
973.087	-3.43
973.514	-2.33
973.941	-4.33
974.369	-1.43
974.796	-1.23
975.223	-6.83
975.651	-0.13
976.078	5.17
976.505	-5.53
976.932	4.17
977.359	14.47
977.786	12.57
978.214	-5.93
978.641	-3.83
979.068	-4.33
979.495	-7.33
979.922	0.67
980.349	-6.33
980.776	1.67
981.202	4.47
981.629	4.77
982.056	6.47
982.483	0.87
982.91	3.27
983.337	-2.53
983.763	4.07
984.19	6.17
984.617	-7.23
985.043	-4.13
985.47	1.57
985.897	-5.63
986.323	-3.43
986.75	2.67
987.176	-4.83
987.603	-0.93
988.029	0.37
988.456	1.47
988.882	3.27
989.308	-4.33
989.735	1.47
990.161	0.37
990.587	-3.63
991.014	-2.73
991.44	2.07
991.866	-6.83
992.292	-4.83
992.719	-5.53
993.145	2.27
993.571	-3.43
993.997	-2.03
994.423	0.27
994.849	1.07
995.275	0.27
995.701	-0.83
996.127	1.07
996.553	2.17
996.979	-0.53
997.405	-2.43
997.83	-8.73
998.256	-5.23
998.682	-5.83
999.108	-8.13
999.534	-7.03
999.959	-2.43
1000.385	-11.43
1000.811	2.17
1001.236	-7.03
1001.662	-4.83
1002.087	-8.93
1002.513	-1.03
1002.938	-2.73
1003.364	-2.43
1003.789	1.67
1004.215	3.97
1004.64	-1.53
1005.066	2.67
1005.491	-0.13
1005.916	0.67
1006.342	-4.63
1006.767	-5.93
1007.192	8.47
1007.617	-3.43
1008.042	-0.53
1008.468	-9.53
1008.893	1.27
1009.318	-1.83
1009.743	-6.83
1010.168	2.67
1010.593	4.47
1011.018	-1.03
1011.443	-5.63
1011.868	8.97
1012.293	5.87
1012.718	-5.93
1013.143	1.07
1013.567	1.77
1013.992	0.27
1014.417	-16.43
1014.842	3.77
1015.267	-0.83
1015.691	-0.33
1016.116	10.37
1016.541	-1.63
1016.965	3.17
1017.39	6.47
1017.814	2.67
1018.239	-0.83
1018.663	-8.53
1019.088	-6.03
1019.512	-3.63
1019.937	-1.03
1020.361	1.57
1020.785	-5.03
1021.21	-4.93
1021.634	-1.43
1022.058	1.17
1022.483	2.07
1022.907	-4.53
1023.331	-6.13
1023.755	-0.13
1024.179	-0.93
1024.604	-0.83
1025.028	-0.13
1025.452	0.17
1025.876	2.77
1026.3	1.17
1026.724	-11.93
1027.148	-6.33
1027.572	-3.83
1027.996	0.27
1028.42	-0.93
1028.843	-3.43
1029.267	-0.73
1029.691	-1.93
1030.115	-4.53
1030.539	-3.63
1030.962	-4.73
1031.386	-5.03
1031.81	4.17
1032.233	3.97
1032.657	-2.93
1033.08	-0.13
1033.504	2.87
1033.927	-5.13
1034.351	1.47
1034.774	-3.83
1035.198	-0.83
1035.621	-4.23
1036.045	-9.73
1036.468	4.47
1036.891	-10.53
1037.315	-7.53
1037.738	-4.43
1038.161	1.77
1038.584	-4.83
1039.008	-5.83
1039.431	1.17
1039.854	-1.63
1040.277	-8.43
1040.7	-12.73
1041.123	0.57
1041.546	-7.23
1041.969	0.57
1042.392	-6.63
1042.815	-1.43
1043.238	-0.03
1043.661	-0.43
1044.084	-5.13
1044.507	-5.63
1044.93	-1.93
1045.352	-3.83
1045.775	-6.53
1046.198	-3.63
1046.621	0.27
1047.043	-0.03
1047.466	6.57
1047.889	1.57
1048.311	-4.13
1048.734	-0.33
1049.156	1.07
1049.579	-0.83
1050.001	-0.23
1050.424	2.97
1050.846	-5.93
1051.269	1.57
1051.691	-7.63
1052.113	-3.73
1052.536	-1.83
1052.958	-2.53
1053.38	-2.43
1053.802	-10.03
1054.225	6.17
1054.647	-0.93
1055.069	0.97
1055.491	2.37
1055.913	-7.13
1056.335	1.37
1056.757	0.97
1057.179	-5.23
1057.601	-0.13
1058.023	-1.33
1058.445	-1.23
1058.867	0.17
1059.289	-2.93
1059.711	-11.23
1060.133	-3.83
1060.555	-3.03
1060.976	-5.23
1061.398	-5.03
1061.82	-9.23
1062.241	-5.23
1062.663	-4.83
1063.085	-5.63
1063.506	0.97
1063.928	1.67
1064.35	2.17
1064.771	-9.53
1065.193	-2.63
1065.614	-8.23
1066.035	5.87
1066.457	-3.03
1066.878	2.47
1067.3	-1.53
1067.721	-0.43
1068.142	3.77
1068.564	-3.13
1068.985	-1.73
1069.406	0.97
1069.827	-2.23
1070.248	-3.33
1070.67	-5.33
1071.091	0.77
1071.512	5.27
1071.933	-4.43
1072.354	-6.13
1072.775	0.77
1073.196	-8.73
1073.617	-5.63
1074.038	-6.13
1074.459	-2.43
1074.88	-7.13
1075.3	2.97
1075.721	-8.23
1076.142	0.57
1076.563	-0.33
1076.983	-4.33
1077.404	2.57
1077.825	-2.13
1078.246	0.17
1078.666	-9.03
1079.087	-4.03
1079.507	-7.43
1079.928	3.27
1080.348	-0.13
1080.769	-0.83
1081.189	-0.83
1081.61	-2.83
1082.03	-8.83
1082.451	-2.03
1082.871	-9.73
1083.291	-5.63
1083.711	-8.43
1084.132	-8.03
1084.552	-3.43
1084.972	-3.13
1085.392	-3.13
1085.813	-0.93
1086.233	-6.73
1086.653	-3.53
1087.073	6.97
1087.493	-5.53
1087.913	-2.83
1088.333	-6.83
1088.753	-1.73
1089.173	3.77
1089.593	0.77
1090.013	-2.53
1090.433	-5.23
1090.852	-0.03
1091.272	-3.43
1091.692	1.97
1092.112	-2.43
1092.531	-6.13
1092.951	-10.83
1093.371	3.67
1093.79	3.67
1094.21	-2.93
1094.63	-3.43
1095.049	-6.33
1095.469	1.37
1095.888	0.47
1096.308	7.47
1096.727	7.07
1097.146	-5.23
1097.566	1.97
1097.985	-5.53
1098.405	0.37
1098.824	-6.63
1099.243	-5.33
1099.662	-10.03
1100.082	-4.53
1100.501	-0.43
1100.92	-7.23
1101.339	-4.63
1101.758	-1.33
