Data from 20171114-ORNL-Ar_H_NY_Subt18_08-04-12-708.txt Node
Date: Tue Nov 14 08:04:12 EST 2017
User: Ender
Spectrometer: HR+D1039
Trigger mode: 0
Integration Time (sec): 2.730000E-2
Scans to average: 10
Electric dark correction enabled: true
Nonlinearity correction enabled: false
Boxcar width: 0
XAxis mode: Wavelengths
Number of Pixels in Spectrum: 2048
>>>>>Begin Spectral Data<<<<<
187.836	-5.08
188.309	-5.08
188.782	-5.08
189.255	-0.08
189.728	-0.78
190.201	8.82
190.674	2.32
191.147	0.12
191.619	-8.38
192.092	3.72
192.565	6.42
193.038	0.02
193.511	0.62
193.984	-0.58
194.456	-5.48
194.929	-0.78
195.402	-0.38
195.874	-0.58
196.347	2.42
196.82	-3.88
197.292	3.42
197.765	1.52
198.237	-3.48
198.71	1.32
199.182	0.22
199.655	3.22
200.127	1.02
200.6	-5.28
201.072	-3.48
201.544	-4.98
202.017	2.32
202.489	1.42
202.961	-1.78
203.433	-4.58
203.906	-1.08
204.378	-6.98
204.85	-5.18
205.322	-5.38
205.794	-0.98
206.266	-7.08
206.739	-8.08
207.211	3.72
207.683	-7.58
208.155	-7.78
208.627	-4.48
209.099	-1.98
209.57	-0.28
210.042	-3.28
210.514	-2.08
210.986	0.02
211.458	-8.48
211.93	-2.18
212.402	0.62
212.873	1.02
213.345	-6.98
213.817	-6.78
214.288	-5.18
214.76	-4.28
215.232	-7.88
215.703	-1.28
216.175	-3.68
216.646	-5.98
217.118	-5.78
217.589	-1.88
218.061	-3.58
218.532	-3.68
219.004	4.72
219.475	-7.68
219.946	2.62
220.418	-0.88
220.889	8.02
221.36	3.32
221.832	-5.68
222.303	1.02
222.774	6.82
223.245	-3.28
223.717	-9.48
224.188	-1.98
224.659	-10.18
225.13	-4.78
225.601	-5.28
226.072	0.12
226.543	-2.68
227.014	0.02
227.485	2.52
227.956	-3.48
228.427	-4.38
228.898	1.62
229.369	11.62
229.839	-1.68
230.31	-0.98
230.781	4.12
231.252	-3.98
231.722	2.02
232.193	2.82
232.664	8.22
233.135	4.72
233.605	1.72
234.076	-5.68
234.546	2.22
235.017	7.52
235.487	3.82
235.958	-0.38
236.428	-3.88
236.899	3.42
237.369	1.62
237.84	2.22
238.31	8.62
238.78	3.62
239.251	3.02
239.721	4.72
240.191	7.82
240.662	-0.38
241.132	2.42
241.602	-7.18
242.072	6.22
242.542	8.52
243.013	2.52
243.483	3.12
243.953	2.72
244.423	-0.08
244.893	4.82
245.363	5.32
245.833	1.92
246.303	5.52
246.773	8.52
247.243	4.32
247.712	3.12
248.182	9.92
248.652	12.12
249.122	0.92
249.592	13.52
250.061	20.22
250.531	34.32
251.001	18.22
251.471	30.42
251.94	18.62
252.41	8.72
252.879	1.52
253.349	13.82
253.818	17.72
254.288	2.52
254.757	6.62
255.227	-1.18
255.696	5.22
256.166	8.22
256.635	12.42
257.105	10.82
257.574	10.12
258.043	16.32
258.513	13.62
258.982	18.62
259.451	2.12
259.92	16.72
260.389	9.22
260.859	20.52
261.328	8.72
261.797	17.12
262.266	11.12
262.735	11.22
263.204	9.02
263.673	2.32
264.142	9.42
264.611	-0.28
265.08	3.82
265.549	-2.18
266.018	7.72
266.487	-1.48
266.955	0.52
267.424	4.52
267.893	4.12
268.362	3.62
268.83	-0.78
269.299	10.32
269.768	9.72
270.236	12.52
270.705	7.92
271.174	1.32
271.642	7.22
272.111	7.12
272.579	19.02
273.048	19.52
273.516	23.92
273.985	22.72
274.453	26.12
274.922	20.22
275.39	13.22
275.858	3.52
276.327	11.62
276.795	22.72
277.263	10.42
277.731	29.82
278.2	46.32
278.668	54.72
279.136	43.72
279.604	16.82
280.072	12.42
280.54	10.32
281.008	11.02
281.477	14.52
281.945	12.92
282.413	18.92
282.881	16.12
283.348	8.12
283.816	17.92
284.284	14.82
284.752	19.72
285.22	14.22
285.688	14.12
286.156	20.52
286.623	41.82
287.091	46.32
287.559	24.92
288.026	15.62
288.494	11.52
288.962	5.92
289.429	12.02
289.897	16.12
290.364	15.12
290.832	17.02
291.3	18.32
291.767	11.12
292.234	17.62
292.702	17.62
293.169	18.02
293.637	27.32
294.104	21.72
294.571	12.52
295.039	10.72
295.506	10.12
295.973	15.12
296.44	10.12
296.908	16.92
297.375	16.42
297.842	13.02
298.309	14.02
298.776	17.22
299.243	17.72
299.71	12.42
300.177	22.72
300.644	20.72
301.111	29.12
301.578	21.02
302.045	13.42
302.512	20.92
302.979	23.92
303.446	18.72
303.913	19.82
304.379	17.42
304.846	27.52
305.313	21.82
305.78	22.42
306.246	16.52
306.713	27.52
307.18	30.32
307.646	23.92
308.113	26.62
308.579	21.12
309.046	25.82
309.512	27.42
309.979	14.42
310.445	24.12
310.912	26.22
311.378	29.72
311.845	26.62
312.311	30.12
312.777	33.62
313.244	33.32
313.71	37.22
314.176	27.22
314.642	26.82
315.109	30.62
315.575	33.12
316.041	36.72
316.507	32.82
316.973	31.42
317.439	32.42
317.905	26.62
318.371	34.72
318.837	30.82
319.303	30.02
319.769	27.62
320.235	35.42
320.701	33.92
321.167	38.02
321.633	29.42
322.099	34.82
322.564	40.62
323.03	35.62
323.496	34.82
323.962	41.02
324.427	28.32
324.893	43.52
325.359	29.52
325.824	38.42
326.29	34.82
326.755	34.92
327.221	34.12
327.686	38.62
328.152	33.52
328.617	39.02
329.083	40.82
329.548	40.52
330.014	50.62
330.479	32.12
330.944	38.12
331.41	39.22
331.875	43.62
332.34	39.92
332.805	37.72
333.271	43.82
333.736	43.72
334.201	48.22
334.666	50.22
335.131	49.52
335.596	43.02
336.061	45.32
336.526	37.72
336.991	46.82
337.456	54.92
337.921	47.52
338.386	42.42
338.851	35.22
339.316	41.02
339.781	38.82
340.246	38.22
340.711	48.72
341.175	47.72
341.64	38.32
342.105	42.82
342.569	49.72
343.034	57.52
343.499	45.72
343.963	47.22
344.428	59.52
344.893	47.42
345.357	51.72
345.822	50.92
346.286	58.72
346.751	67.22
347.215	55.62
347.679	63.52
348.144	81.92
348.608	69.62
349.073	53.32
349.537	60.62
350.001	66.42
350.465	73.52
350.93	63.72
351.394	74.02
351.858	67.12
352.322	75.42
352.786	75.72
353.25	81.32
353.715	87.92
354.179	84.02
354.643	101.62
355.107	109.12
355.571	96.82
356.035	98.32
356.498	97.32
356.962	98.52
357.426	109.32
357.89	99.72
358.354	76.12
358.818	69.62
359.281	70.82
359.745	67.82
360.209	70.42
360.673	65.22
361.136	76.02
361.6	79.42
362.064	73.72
362.527	76.82
362.991	75.42
363.454	75.72
363.918	67.92
364.381	69.02
364.845	76.12
365.308	79.62
365.772	75.52
366.235	84.52
366.698	78.62
367.162	74.72
367.625	74.92
368.088	79.82
368.552	80.72
369.015	75.82
369.478	89.52
369.941	85.52
370.404	84.12
370.867	89.22
371.331	96.82
371.794	95.52
372.257	90.72
372.72	102.62
373.183	93.62
373.646	99.62
374.109	93.82
374.572	89.92
375.035	90.62
375.497	97.62
375.96	97.42
376.423	91.22
376.886	99.72
377.349	97.82
377.811	92.82
378.274	96.32
378.737	91.72
379.199	102.62
379.662	103.82
380.125	107.52
380.587	100.62
381.05	111.62
381.512	114.22
381.975	117.02
382.437	109.42
382.9	114.82
383.362	119.82
383.825	126.02
384.287	140.42
384.75	128.52
385.212	126.42
385.674	127.82
386.136	126.42
386.599	115.22
387.061	114.52
387.523	117.32
387.985	122.42
388.447	127.12
388.91	125.82
389.372	142.22
389.834	129.62
390.296	128.62
390.758	138.82
391.22	148.02
391.682	180.82
392.144	264.72
392.606	205.62
393.068	149.12
393.529	151.82
393.991	141.92
394.453	131.42
394.915	142.12
395.377	170.62
395.838	188.12
396.3	138.02
396.762	131.12
397.224	123.82
397.685	113.42
398.147	114.92
398.608	123.02
399.07	115.12
399.531	129.12
399.993	132.12
400.454	139.22
400.916	131.32
401.377	132.82
401.839	130.72
402.3	133.42
402.762	148.12
403.223	154.82
403.684	154.02
404.145	149.32
404.607	142.82
405.068	144.02
405.529	155.82
405.99	167.82
406.451	155.82
406.913	156.92
407.374	147.22
407.835	145.72
408.296	152.42
408.757	157.92
409.218	166.22
409.679	160.32
410.14	155.12
410.601	160.62
411.062	159.42
411.522	169.22
411.983	169.72
412.444	156.52
412.905	161.62
413.366	164.32
413.826	178.62
414.287	200.72
414.748	228.92
415.208	222.92
415.669	192.52
416.13	189.92
416.59	180.62
417.051	191.52
417.511	203.72
417.972	217.02
418.432	222.02
418.893	262.62
419.353	228.32
419.814	178.32
420.274	170.92
420.734	161.42
421.195	178.72
421.655	178.22
422.115	178.02
422.576	171.62
423.036	173.42
423.496	187.32
423.956	192.92
424.416	208.52
424.876	232.82
425.336	230.92
425.797	233.32
426.257	225.22
426.717	211.02
427.177	208.62
427.637	201.22
428.097	209.82
428.556	219.62
429.016	239.92
429.476	237.62
429.936	241.82
430.396	241.92
430.856	260.82
431.315	279.92
431.775	306.22
432.235	330.82
432.694	309.12
433.154	311.42
433.614	335.82
434.073	289.42
434.533	251.02
434.993	240.32
435.452	255.72
435.912	254.52
436.371	249.62
436.83	248.62
437.29	233.82
437.749	224.42
438.209	214.12
438.668	238.72
439.127	248.92
439.587	230.82
440.046	224.22
440.505	230.72
440.964	243.92
441.424	274.82
441.883	262.22
442.342	227.52
442.801	200.72
443.26	192.32
443.719	196.02
444.178	190.92
444.637	190.92
445.096	195.62
445.555	206.02
446.014	204.62
446.473	197.12
446.932	212.62
447.391	203.22
447.849	207.52
448.308	193.62
448.767	197.92
449.226	215.72
449.685	216.22
450.143	226.52
450.602	209.12
451.061	204.02
451.519	212.82
451.978	212.82
452.436	211.02
452.895	209.92
453.353	223.42
453.812	214.92
454.27	218.72
454.729	216.32
455.187	217.72
455.646	219.32
456.104	215.02
456.562	233.42
457.021	237.22
457.479	226.42
457.937	243.72
458.395	235.42
458.854	215.12
459.312	229.32
459.77	236.42
460.228	227.02
460.686	217.32
461.144	223.22
461.602	226.02
462.06	219.22
462.518	228.02
462.976	225.92
463.434	236.92
463.892	237.02
464.35	246.92
464.808	261.62
465.266	244.32
465.724	243.02
466.181	247.72
466.639	243.22
467.097	257.92
467.555	269.12
468.012	272.42
468.47	280.22
468.928	296.32
469.385	306.32
469.843	301.32
470.3	308.32
470.758	320.02
471.215	339.32
471.673	353.72
472.13	350.82
472.588	361.92
473.045	326.62
473.503	336.52
473.96	354.02
474.417	363.92
474.875	387.02
475.332	415.12
475.789	406.32
476.246	410.22
476.704	428.22
477.161	445.52
477.618	469.12
478.075	500.42
478.532	536.22
478.989	611.02
479.446	690.22
479.903	682.02
480.36	725.82
480.817	772.92
481.274	855.42
481.731	958.72
482.188	1043.12
482.645	1164.12
483.102	1260.92
483.558	1373.62
484.015	1433.42
484.472	1414.72
484.929	1375.62
485.385	1335.22
485.842	1280.03
486.299	1228.52
486.755	1145.52
487.212	965.72
487.668	829.22
488.125	764.62
488.582	694.92
489.038	682.32
489.494	639.02
489.951	611.42
490.407	595.72
490.864	574.02
491.32	569.92
491.776	569.62
492.233	565.82
492.689	541.72
493.145	537.72
493.602	538.72
494.058	547.92
494.514	547.42
494.97	567.92
495.426	566.62
495.882	557.62
496.338	540.42
496.794	564.02
497.251	553.02
497.707	568.92
498.163	569.72
498.618	562.72
499.074	568.92
499.53	592.62
499.986	592.52
500.442	576.52
500.898	555.42
501.354	555.62
501.809	557.72
502.265	574.32
502.721	583.82
503.177	592.42
503.632	591.92
504.088	600.72
504.543	626.92
504.999	624.52
505.455	583.72
505.91	558.92
506.366	559.82
506.821	560.42
507.277	557.92
507.732	552.82
508.187	554.32
508.643	568.02
509.098	567.72
509.553	583.72
510.009	594.02
510.464	595.82
510.919	612.12
511.375	620.42
511.83	624.52
512.285	635.32
512.74	670.82
513.195	687.92
513.65	680.32
514.105	677.72
514.56	680.12
515.015	702.52
515.47	724.72
515.925	698.12
516.38	700.22
516.835	706.02
517.29	694.12
517.745	688.92
518.2	674.92
518.655	682.52
519.109	659.32
519.564	659.02
520.019	648.62
520.474	638.92
520.928	638.22
521.383	630.92
521.838	625.72
522.292	634.62
522.747	628.72
523.201	623.82
523.656	609.22
524.11	613.92
524.565	616.52
525.019	603.92
525.474	619.92
525.928	616.52
526.382	610.92
526.837	610.82
527.291	617.22
527.745	615.92
528.2	616.82
528.654	603.32
529.108	590.02
529.562	599.92
530.016	595.72
530.47	600.62
530.925	601.92
531.379	617.62
531.833	615.52
532.287	616.32
532.741	616.22
533.195	615.02
533.649	621.92
534.103	628.52
534.556	615.12
535.01	625.22
535.464	617.72
535.918	635.12
536.372	629.42
536.826	636.22
537.279	611.92
537.733	620.42
538.187	621.22
538.64	610.72
539.094	628.82
539.548	635.62
540.001	630.32
540.455	627.72
540.908	638.22
541.362	641.12
541.815	646.82
542.269	657.92
542.722	657.02
543.175	664.82
543.629	675.32
544.082	691.42
544.536	687.42
544.989	680.62
545.442	694.02
545.895	684.32
546.349	690.12
546.802	679.92
547.255	690.62
547.708	692.92
548.161	716.72
548.614	719.02
549.067	712.92
549.52	711.22
549.973	705.82
550.426	698.32
550.879	691.22
551.332	685.42
551.785	697.62
552.238	700.12
552.691	704.42
553.144	718.12
553.596	725.72
554.049	742.82
554.502	775.02
554.955	783.02
555.407	781.62
555.86	768.32
556.313	767.22
556.765	760.72
557.218	765.12
557.67	764.32
558.123	745.32
558.576	752.02
559.028	753.02
559.48	758.32
559.933	750.22
560.385	721.62
560.838	696.32
561.29	672.42
561.742	667.92
562.195	650.72
562.647	656.22
563.099	660.92
563.551	669.72
564.004	677.52
564.456	661.52
564.908	656.82
565.36	636.52
565.812	618.52
566.264	618.32
566.716	613.72
567.168	614.32
567.62	614.52
568.072	600.92
568.524	584.22
568.976	583.02
569.428	567.92
569.88	572.62
570.332	580.22
570.784	575.62
571.235	570.02
571.687	586.62
572.139	593.52
572.59	599.82
573.042	601.72
573.494	596.52
573.945	594.72
574.397	572.52
574.849	587.02
575.3	582.02
575.752	579.92
576.203	576.12
576.655	569.62
577.106	562.02
577.557	555.72
578.009	554.12
578.46	560.12
578.912	551.32
579.363	560.62
579.814	556.62
580.265	553.62
580.717	555.82
581.168	554.52
581.619	566.32
582.07	572.12
582.521	574.82
582.972	561.82
583.423	576.92
583.875	559.52
584.326	588.12
584.777	626.92
585.227	692.72
585.678	761.02
586.129	847.22
586.58	920.62
587.031	992.12
587.482	1133.52
587.933	1302.82
588.384	1121.22
588.834	820.92
589.285	672.62
589.736	654.42
590.186	647.92
590.637	641.02
591.088	629.02
591.538	617.32
591.989	613.12
592.439	600.92
592.89	597.02
593.34	579.32
593.791	582.62
594.241	583.82
594.692	584.42
595.142	585.22
595.593	582.62
596.043	584.92
596.493	591.32
596.943	588.42
597.394	598.42
597.844	602.52
598.294	604.12
598.744	617.62
599.195	642.62
599.645	675.32
600.095	707.72
600.545	749.12
600.995	795.42
601.445	848.12
601.895	909.82
602.345	938.32
602.795	927.32
603.245	881.62
603.695	843.52
604.145	793.82
604.594	751.42
605.044	708.32
605.494	673.42
605.944	620.32
606.393	603.42
606.843	592.22
607.293	597.42
607.743	599.32
608.192	608.22
608.642	619.02
609.091	625.72
609.541	628.62
609.99	622.42
610.44	614.42
610.889	585.82
611.339	573.82
611.788	559.12
612.238	568.22
612.687	583.42
613.136	588.02
613.586	606.02
614.035	598.52
614.484	608.72
614.933	617.62
615.383	606.22
615.832	600.82
616.281	594.22
616.73	562.02
617.179	540.62
617.628	525.32
618.077	515.42
618.526	510.72
618.975	502.22
619.424	502.02
619.873	488.92
620.322	509.82
620.771	491.12
621.22	494.82
621.669	490.22
622.118	477.92
622.567	475.12
623.015	462.82
623.464	466.02
623.913	452.52
624.361	444.32
624.81	446.42
625.259	442.22
625.707	456.32
626.156	446.12
626.604	462.42
627.053	452.12
627.501	449.32
627.95	458.82
628.398	468.92
628.847	464.52
629.295	454.32
629.744	466.52
630.192	460.62
630.64	462.12
631.089	451.62
631.537	466.52
631.985	465.92
632.433	486.92
632.881	478.62
633.33	524.42
633.778	506.82
634.226	451.42
634.674	466.42
635.122	465.62
635.57	475.72
636.018	493.92
636.466	472.22
636.914	440.92
637.362	452.42
637.81	462.02
638.258	466.12
638.705	455.12
639.153	481.22
639.601	489.92
640.049	506.62
640.497	536.12
640.944	559.12
641.392	511.42
641.84	495.12
642.287	468.32
642.735	457.92
643.182	455.32
643.63	459.82
644.078	456.62
644.525	476.12
644.973	476.32
645.42	479.12
645.867	502.72
646.315	502.02
646.762	529.72
647.21	540.52
647.657	568.92
648.104	606.02
648.551	609.62
648.999	648.12
649.446	723.62
649.893	788.52
650.34	903.92
650.787	1081.32
651.234	1329.62
651.682	1746.93
652.129	2370.52
652.576	3415.53
653.023	5055.43
653.47	7048.93
653.917	8892.42
654.363	10484.92
654.81	11826.73
655.257	11236.92
655.704	7287.03
656.151	4259.93
656.598	2755.93
657.044	1933.12
657.491	1487.92
657.938	1185.72
658.385	983.22
658.831	863.72
659.278	767.42
659.724	680.42
660.171	623.22
660.618	575.32
661.064	542.92
661.511	511.22
661.957	508.92
662.404	496.62
662.85	502.22
663.296	479.22
663.743	447.32
664.189	429.22
664.635	419.52
665.082	421.02
665.528	420.92
665.974	414.22
666.42	400.62
666.867	401.82
667.313	382.72
667.759	381.52
668.205	371.02
668.651	382.22
669.097	382.32
669.543	404.52
669.989	390.72
670.435	362.92
670.881	345.02
671.327	347.32
671.773	370.72
672.219	383.72
672.665	422.02
673.11	446.92
673.556	490.02
674.002	526.32
674.448	521.12
674.893	429.82
675.339	374.92
675.785	341.32
676.23	331.12
676.676	307.52
677.122	305.62
677.567	288.52
678.013	278.12
678.458	279.62
678.904	284.32
679.349	274.42
679.794	283.22
680.24	275.92
680.685	267.42
681.131	272.72
681.576	278.12
682.021	277.32
682.466	269.22
682.912	268.02
683.357	270.42
683.802	292.52
684.247	317.92
684.692	351.72
685.137	390.52
685.583	420.92
686.028	431.32
686.473	404.92
686.918	343.12
687.363	323.72
687.807	313.32
688.252	285.02
688.697	274.52
689.142	255.72
689.587	264.72
690.032	252.72
690.477	269.72
690.921	270.42
691.366	296.82
691.811	313.02
692.255	333.42
692.7	364.82
693.145	382.72
693.589	520.82
694.034	853.02
694.478	1187.82
694.923	1375.72
695.367	1836.52
695.812	957.32
696.256	390.82
696.701	288.32
697.145	260.22
697.59	257.12
698.034	253.62
698.478	258.42
698.922	252.22
699.367	257.92
699.811	261.82
700.255	271.42
700.699	301.02
701.143	323.72
701.588	370.22
702.032	407.22
702.476	402.92
702.92	378.62
703.364	380.72
703.808	478.12
704.252	776.52
704.696	1110.22
705.14	1326.22
705.584	1733.02
706.027	848.42
706.471	411.22
706.915	316.22
707.359	273.82
707.803	247.12
708.246	238.32
708.69	247.42
709.134	240.22
709.577	243.52
710.021	243.82
710.465	245.82
710.908	236.32
711.352	231.82
711.795	237.82
712.239	276.12
712.682	302.62
713.126	324.62
713.569	369.82
714.012	287.52
714.456	252.72
714.899	232.82
715.342	217.92
715.786	204.32
716.229	207.42
716.672	201.52
717.115	195.22
717.558	199.32
718.002	202.12
718.445	201.42
718.888	225.72
719.331	227.22
719.774	233.82
720.217	240.22
720.66	221.42
721.103	208.72
721.546	200.02
721.989	188.22
722.432	181.82
722.874	184.22
723.317	171.32
723.76	189.82
724.203	205.22
724.645	241.32
725.088	339.32
725.531	432.12
725.974	513.02
726.416	439.92
726.859	230.62
727.301	188.02
727.744	185.42
728.187	183.12
728.629	195.42
729.071	185.72
729.514	201.22
729.956	217.72
730.399	224.42
730.841	220.52
731.283	205.92
731.726	209.72
732.168	201.22
732.61	203.92
733.053	220.72
733.495	246.82
733.937	271.32
734.379	295.72
734.821	335.12
735.263	417.22
735.705	613.62
736.148	1182.72
736.59	1981.33
737.032	2475.82
737.474	2007.83
737.916	639.32
738.357	331.12
738.799	257.62
739.241	228.22
739.683	222.22
740.125	232.62
740.567	227.12
741.008	250.22
741.45	245.52
741.892	242.62
742.334	274.72
742.775	283.02
743.217	266.62
743.658	213.22
744.1	196.42
744.542	207.02
744.983	245.72
745.425	271.82
745.866	275.02
746.307	223.72
746.749	214.42
747.19	248.02
747.632	336.52
748.073	654.42
748.514	1410.53
748.956	2235.12
749.397	2790.12
749.838	2324.03
750.279	2390.92
750.72	1192.02
751.162	431.62
751.603	249.82
752.044	201.12
752.485	166.32
752.926	161.72
753.367	150.92
753.808	147.62
754.249	148.22
754.69	145.32
755.131	141.42
755.572	134.72
756.013	138.42
756.453	142.52
756.894	145.02
757.335	142.92
757.776	152.62
758.216	157.92
758.657	152.22
759.098	159.42
759.538	169.62
759.979	202.62
760.42	277.22
760.86	525.52
761.301	1339.93
761.741	3366.32
762.182	5312.73
762.622	3747.03
763.063	1049.02
763.503	423.02
763.943	269.12
764.384	267.12
764.824	323.82
765.264	369.62
765.705	245.62
766.145	165.12
766.585	147.52
767.025	140.22
767.465	137.22
767.906	187.22
768.346	260.72
768.786	275.42
769.226	208.32
769.666	240.02
770.106	450.82
770.546	1154.02
770.986	2114.62
771.426	1940.22
771.866	633.42
772.306	251.82
772.745	164.62
773.185	132.02
773.625	132.82
774.065	125.82
774.505	155.32
774.944	225.82
775.384	498.72
775.824	958.12
776.263	962.32
776.703	403.32
777.142	170.52
777.582	121.22
778.021	104.92
778.461	104.32
778.9	119.12
779.34	103.22
779.779	88.22
780.219	83.32
780.658	85.02
781.097	87.82
781.537	93.02
781.976	82.12
782.415	78.62
782.855	79.32
783.294	78.52
783.733	86.82
784.172	90.82
784.611	75.42
785.05	80.72
785.489	89.12
785.928	92.42
786.367	93.42
786.806	89.42
787.245	98.42
787.684	105.92
788.123	118.02
788.562	105.72
789.001	97.52
789.44	99.02
789.879	95.92
790.317	88.72
790.756	102.22
791.195	96.82
791.634	115.52
792.072	151.32
792.511	267.62
792.95	748.32
793.388	1703.22
793.827	1592.83
794.265	537.72
794.704	216.22
795.142	146.72
795.581	120.82
796.019	110.62
796.458	96.92
796.896	94.22
797.334	103.42
797.773	118.52
798.211	170.42
798.649	322.62
799.087	778.92
799.526	1244.52
799.964	1569.83
800.402	1644.82
800.84	598.72
801.278	231.92
801.716	142.42
802.154	120.42
802.592	113.22
803.03	104.82
803.468	98.92
803.906	114.42
804.344	120.72
804.782	109.32
805.22	107.02
805.658	100.22
806.096	112.82
806.533	119.02
806.971	138.62
807.409	166.42
807.847	232.42
808.284	491.32
808.722	1417.52
809.16	2642.43
809.597	2419.73
810.035	4319.93
810.472	4848.82
810.91	1715.42
811.347	629.02
811.785	319.92
812.222	208.42
812.66	155.42
813.097	129.52
813.535	110.82
813.972	98.82
814.409	92.62
814.846	80.42
815.284	84.12
815.721	83.42
816.158	81.32
816.595	92.42
817.032	145.72
817.47	157.72
817.907	133.62
818.344	114.22
818.781	91.72
819.218	78.62
819.655	93.52
820.092	150.72
820.529	171.72
820.966	140.62
821.403	111.12
821.839	83.42
822.276	73.42
822.713	97.22
823.15	117.02
823.587	89.52
824.023	112.92
824.46	220.02
824.897	683.82
825.333	1104.92
825.77	470.72
826.206	178.62
826.643	106.52
827.08	78.02
827.516	57.12
827.953	62.22
828.389	69.72
828.825	57.42
829.262	49.32
829.698	50.02
830.135	50.32
830.571	46.42
831.007	49.52
831.443	49.82
831.88	51.12
832.316	44.52
832.752	48.32
833.188	43.62
833.624	52.42
834.06	52.02
834.497	62.42
834.933	56.22
835.369	68.92
835.805	48.32
836.241	58.52
836.677	62.62
837.112	62.82
837.548	82.72
837.984	106.42
838.42	157.92
838.856	366.92
839.292	1174.52
839.727	1900.72
840.163	864.92
840.599	702.22
841.034	1603.92
841.47	1772.83
841.906	629.12
842.341	261.52
842.777	176.72
843.212	248.02
843.648	253.82
844.083	126.32
844.519	74.42
844.954	56.82
845.39	49.52
845.825	47.42
846.261	47.22
846.696	40.02
847.131	34.22
847.566	45.02
848.002	40.72
848.437	38.72
848.872	45.22
849.307	51.62
849.742	67.42
850.177	137.02
850.613	434.72
851.048	720.42
851.483	305.32
851.918	124.02
852.353	58.22
852.788	48.72
853.223	44.72
853.657	43.72
854.092	41.62
854.527	33.52
854.962	27.52
855.397	33.12
855.832	42.02
856.266	31.52
856.701	30.72
857.136	29.72
857.57	32.62
858.005	40.32
858.44	49.62
858.874	31.02
859.309	38.62
859.743	28.92
860.178	36.82
860.612	32.42
861.047	37.52
861.481	58.32
861.915	55.02
862.35	40.92
862.784	25.02
863.218	27.42
863.653	24.72
864.087	36.52
864.521	44.12
864.955	56.02
865.39	126.22
865.824	142.32
866.258	86.32
866.692	131.32
867.126	148.22
867.56	93.52
867.994	42.02
868.428	26.12
868.862	38.12
869.296	43.42
869.73	51.72
870.164	44.92
870.598	37.42
871.031	26.32
871.465	31.62
871.899	28.92
872.333	20.52
872.766	20.12
873.2	18.72
873.634	21.72
874.067	21.62
874.501	21.92
874.935	23.52
875.368	25.62
875.802	19.92
876.235	17.82
876.669	18.72
877.102	22.42
877.535	23.22
877.969	12.02
878.402	26.02
878.836	13.82
879.269	22.62
879.702	17.82
880.135	21.92
880.569	17.62
881.002	23.32
881.435	18.42
881.868	13.92
882.301	22.72
882.734	11.92
883.167	15.92
883.601	11.62
884.034	16.52
884.467	9.82
884.899	15.82
885.332	14.42
885.765	10.92
886.198	9.52
886.631	14.02
887.064	15.72
887.497	18.22
887.929	15.92
888.362	10.32
888.795	11.42
889.228	14.12
889.66	17.12
890.093	13.82
890.526	12.32
890.958	15.32
891.391	15.32
891.823	16.32
892.256	14.22
892.688	10.42
893.121	17.32
893.553	12.42
893.985	21.22
894.418	20.52
894.85	14.32
895.282	10.92
895.715	12.22
896.147	11.62
896.579	17.72
897.011	10.02
897.444	17.62
897.876	15.52
898.308	18.32
898.74	14.52
899.172	5.62
899.604	21.42
900.036	11.62
900.468	12.02
900.9	13.12
901.332	14.92
901.764	5.52
902.196	14.32
902.628	8.72
903.06	10.32
903.491	25.72
903.923	19.92
904.355	16.72
904.787	18.82
905.218	24.22
905.65	13.02
906.082	13.42
906.513	13.62
906.945	13.42
907.376	14.02
907.808	9.72
908.239	12.32
908.671	15.32
909.102	18.42
909.534	16.82
909.965	41.72
910.397	77.02
910.828	250.82
911.259	398.92
911.691	179.52
912.122	81.62
912.553	39.82
912.984	30.12
913.415	20.42
913.847	17.22
914.278	13.12
914.709	12.42
915.14	8.12
915.571	16.92
916.002	9.62
916.433	20.22
916.864	19.42
917.295	5.52
917.726	19.62
918.157	13.42
918.587	18.02
919.018	20.92
919.449	18.32
919.88	18.22
920.311	24.32
920.741	38.12
921.172	132.32
921.603	121.62
922.033	55.72
922.464	38.72
922.895	19.02
923.325	17.02
923.756	14.52
924.186	8.82
924.617	24.12
925.047	34.42
925.478	45.82
925.908	34.32
926.338	21.52
926.769	10.82
927.199	19.42
927.629	6.72
928.06	14.92
928.49	13.82
928.92	11.32
929.35	15.72
929.78	9.32
930.21	3.92
930.641	8.32
931.071	3.82
931.501	3.32
931.931	6.92
932.361	9.92
932.791	2.42
933.221	3.72
933.651	4.82
934.08	10.52
934.51	31.82
934.94	1.02
935.37	14.02
935.8	3.72
936.229	2.32
936.659	6.62
937.089	-0.58
937.519	6.82
937.948	21.42
938.378	19.22
938.807	4.72
939.237	3.42
939.666	6.52
940.096	-5.78
940.525	-1.18
940.955	0.92
941.384	5.12
941.814	-1.38
942.243	-1.78
942.672	4.32
943.102	-0.48
943.531	0.22
943.96	9.12
944.39	-2.38
944.819	0.72
945.248	5.02
945.677	3.62
946.106	7.02
946.535	3.52
946.964	-4.78
947.393	3.42
947.822	4.52
948.251	-6.08
948.68	1.52
949.109	2.82
949.538	8.02
949.967	5.02
950.396	4.02
950.825	5.72
951.254	-2.78
951.682	-12.68
952.111	4.72
952.54	3.42
952.969	-7.98
953.397	-4.48
953.826	2.32
954.254	-4.38
954.683	5.02
955.112	-4.18
955.54	-0.08
955.969	-3.78
956.397	-0.98
956.826	-0.68
957.254	0.32
957.682	1.52
958.111	6.82
958.539	0.22
958.967	-0.48
959.396	-0.28
959.824	-2.78
960.252	6.22
960.68	-4.18
961.109	0.82
961.537	-2.28
961.965	2.42
962.393	5.62
962.821	-0.78
963.249	-0.78
963.677	0.92
964.105	3.22
964.533	32.32
964.961	37.62
965.389	21.22
965.817	10.32
966.245	-0.38
966.672	1.42
967.1	-9.08
967.528	-0.98
967.956	0.32
968.383	6.12
968.811	2.72
969.239	-4.88
969.666	-2.38
970.094	-1.28
970.522	9.02
970.949	2.52
971.377	-1.68
971.804	0.32
972.232	-3.98
972.659	1.52
973.087	0.92
973.514	-3.48
973.941	-2.88
974.369	4.12
974.796	4.82
975.223	-0.18
975.651	-0.98
976.078	2.72
976.505	-0.58
976.932	4.02
977.359	13.92
977.786	5.82
978.214	-1.58
978.641	-4.88
979.068	-1.68
979.495	-6.98
979.922	-5.58
980.349	-1.78
980.776	-2.08
981.202	2.02
981.629	12.02
982.056	0.22
982.483	-5.58
982.91	4.92
983.337	-5.78
983.763	2.82
984.19	-2.58
984.617	-3.98
985.043	-1.98
985.47	-2.88
985.897	-3.58
986.323	-6.08
986.75	8.72
987.176	0.92
987.603	5.12
988.029	0.72
988.456	-3.88
988.882	2.42
989.308	-8.58
989.735	-8.28
990.161	3.92
990.587	-3.98
991.014	-5.78
991.44	3.92
991.866	-0.48
992.292	-4.58
992.719	-4.78
993.145	4.02
993.571	-5.58
993.997	-1.78
994.423	1.42
994.849	1.72
995.275	2.92
995.701	1.62
996.127	-5.18
996.553	-1.48
996.979	2.12
997.405	-0.08
997.83	-3.98
998.256	-6.98
998.682	-11.28
999.108	-6.48
999.534	-2.38
999.959	-2.98
1000.385	0.72
1000.811	6.62
1001.236	-6.58
1001.662	-7.78
1002.087	-12.78
1002.513	1.32
1002.938	0.62
1003.364	-3.28
1003.789	-4.08
1004.215	4.52
1004.64	-1.88
1005.066	1.22
1005.491	7.62
1005.916	-0.88
1006.342	-4.18
1006.767	-5.08
1007.192	8.82
1007.617	-2.88
1008.042	-6.08
1008.468	-5.28
1008.893	-4.38
1009.318	0.32
1009.743	-0.28
1010.168	4.12
1010.593	2.92
1011.018	-6.08
1011.443	-3.38
1011.868	-2.08
1012.293	2.32
1012.718	-5.38
1013.143	-0.28
1013.567	3.42
1013.992	-2.38
1014.417	-16.08
1014.842	3.62
1015.267	-2.48
1015.691	-3.08
1016.116	4.92
1016.541	1.02
1016.965	8.32
1017.39	1.12
1017.814	0.02
1018.239	-0.48
1018.663	0.32
1019.088	-8.08
1019.512	1.12
1019.937	1.12
1020.361	-2.18
1020.785	-9.68
1021.21	2.92
1021.634	-6.18
1022.058	2.42
1022.483	5.02
1022.907	-4.78
1023.331	-3.98
1023.755	-1.48
1024.179	-1.68
1024.604	-9.58
1025.028	-1.08
1025.452	-0.98
1025.876	1.32
1026.3	2.72
1026.724	-8.28
1027.148	1.32
1027.572	-5.58
1027.996	-4.68
1028.42	0.42
1028.843	-1.58
1029.267	-6.48
1029.691	-0.78
1030.115	-5.18
1030.539	-7.48
1030.962	-6.28
1031.386	-7.68
1031.81	1.92
1032.233	5.02
1032.657	2.02
1033.08	1.02
1033.504	5.22
1033.927	-3.48
1034.351	0.32
1034.774	-4.08
1035.198	-10.88
1035.621	-9.08
1036.045	-4.18
1036.468	4.72
1036.891	-7.18
1037.315	-5.98
1037.738	-3.98
1038.161	4.82
1038.584	-2.88
1039.008	-2.38
1039.431	0.42
1039.854	0.72
1040.277	-4.88
1040.7	-12.98
1041.123	2.62
1041.546	-4.08
1041.969	-0.08
1042.392	-9.78
1042.815	3.32
1043.238	-0.68
1043.661	-1.28
1044.084	-9.88
1044.507	-6.98
1044.93	-0.98
1045.352	-2.08
1045.775	-1.38
1046.198	1.72
1046.621	2.42
1047.043	3.72
1047.466	7.82
1047.889	-0.98
1048.311	-4.88
1048.734	-1.48
1049.156	-3.68
1049.579	2.12
1050.001	-4.38
1050.424	-0.78
1050.846	1.12
1051.269	-3.88
1051.691	-4.18
1052.113	1.12
1052.536	-1.28
1052.958	0.12
1053.38	-3.68
1053.802	-17.38
1054.225	0.22
1054.647	-8.18
1055.069	-2.48
1055.491	4.12
1055.913	-6.18
1056.335	-1.88
1056.757	-6.08
1057.179	-2.78
1057.601	-5.48
1058.023	-5.78
1058.445	-2.88
1058.867	-2.08
1059.289	5.12
1059.711	-3.48
1060.133	-2.18
1060.555	-8.38
1060.976	-7.08
1061.398	-3.78
1061.82	-6.68
1062.241	-0.28
1062.663	-6.38
1063.085	-5.08
1063.506	1.52
1063.928	-0.08
1064.35	-2.08
1064.771	-7.98
1065.193	-2.08
1065.614	-6.18
1066.035	0.12
1066.457	-4.88
1066.878	0.82
1067.3	-2.98
1067.721	-0.58
1068.142	-0.18
1068.564	0.72
1068.985	-5.18
1069.406	-4.28
1069.827	-2.48
1070.248	-2.78
1070.67	-9.38
1071.091	-7.08
1071.512	3.02
1071.933	-5.08
1072.354	-8.88
1072.775	-2.78
1073.196	-5.88
1073.617	-4.88
1074.038	-3.88
1074.459	-0.58
1074.88	-7.88
1075.3	2.22
1075.721	-1.58
1076.142	4.62
1076.563	-5.48
1076.983	-11.18
1077.404	-3.88
1077.825	-3.98
1078.246	3.82
1078.666	-14.68
1079.087	-2.48
1079.507	1.12
1079.928	6.52
1080.348	-0.58
1080.769	-2.98
1081.189	1.92
1081.61	-2.28
1082.03	-7.28
1082.451	-7.58
1082.871	-5.08
1083.291	-5.28
1083.711	-9.48
1084.132	-5.78
1084.552	-0.08
1084.972	-2.08
1085.392	-6.78
1085.813	-3.48
1086.233	-7.68
1086.653	-8.58
1087.073	-1.28
1087.493	-0.88
1087.913	-3.68
1088.333	-2.48
1088.753	-6.88
1089.173	5.72
1089.593	-1.68
1090.013	1.32
1090.433	3.42
1090.852	-6.18
1091.272	1.52
1091.692	2.02
1092.112	-0.38
1092.531	-9.58
1092.951	-9.88
1093.371	0.82
1093.79	4.12
1094.21	-3.58
1094.63	-4.78
1095.049	-0.08
1095.469	0.52
1095.888	-3.48
1096.308	-1.28
1096.727	1.42
1097.146	-5.18
1097.566	4.12
1097.985	-1.58
1098.405	-2.18
1098.824	-4.68
1099.243	-7.68
1099.662	2.62
1100.082	-5.18
1100.501	1.82
1100.92	-6.88
1101.339	-5.28
1101.758	-5.98
