Data from 20171114-ORNL-Ar_H_NY_Subt18_08-03-40-770.txt Node
Date: Tue Nov 14 08:03:40 EST 2017
User: Ender
Spectrometer: HR+D1039
Trigger mode: 0
Integration Time (sec): 2.730000E-2
Scans to average: 10
Electric dark correction enabled: true
Nonlinearity correction enabled: false
Boxcar width: 0
XAxis mode: Wavelengths
Number of Pixels in Spectrum: 2048
>>>>>Begin Spectral Data<<<<<
187.836	0.57
188.309	0.57
188.782	0.57
189.255	1.67
189.728	-2.33
190.201	5.27
190.674	3.37
191.147	3.47
191.619	-5.93
192.092	-1.73
192.565	0.37
193.038	1.47
193.511	-5.03
193.984	3.17
194.456	-1.63
194.929	1.67
195.402	-3.33
195.874	-1.03
196.347	-3.73
196.82	-9.13
197.292	2.57
197.765	-4.43
198.237	-9.43
198.71	-0.43
199.182	0.07
199.655	1.87
200.127	-0.03
200.6	-3.33
201.072	-7.43
201.544	2.07
202.017	-5.53
202.489	-2.73
202.961	-2.43
203.433	-3.33
203.906	-3.83
204.378	-2.63
204.85	-3.63
205.322	-11.63
205.794	-4.63
206.266	-4.03
206.739	-7.33
207.211	3.07
207.683	-12.53
208.155	-1.53
208.627	-9.13
209.099	-7.13
209.57	-8.43
210.042	-7.13
210.514	-3.83
210.986	0.77
211.458	-7.13
211.93	-4.23
212.402	-1.33
212.873	-2.03
213.345	-8.03
213.817	-9.03
214.288	-4.93
214.76	-15.73
215.232	-3.23
215.703	-1.03
216.175	-1.93
216.646	-7.63
217.118	-1.73
217.589	-2.93
218.061	-2.13
218.532	-3.73
219.004	-5.33
219.475	-0.03
219.946	-2.63
220.418	-4.73
220.889	4.37
221.36	2.37
221.832	-5.93
222.303	-8.63
222.774	-1.73
223.245	-10.13
223.717	-7.03
224.188	-4.63
224.659	-5.73
225.13	-5.53
225.601	1.07
226.072	3.07
226.543	4.87
227.014	0.47
227.485	-5.63
227.956	-8.93
228.427	-3.93
228.898	0.17
229.369	-1.13
229.839	-7.73
230.31	-12.03
230.781	0.87
231.252	-7.23
231.722	-4.73
232.193	-4.73
232.664	-7.03
233.135	-3.33
233.605	-8.63
234.076	-4.03
234.546	0.67
235.017	-4.13
235.487	-2.63
235.958	-3.43
236.428	-6.53
236.899	0.87
237.369	0.87
237.84	-6.93
238.31	0.47
238.78	-4.93
239.251	-8.63
239.721	-0.83
240.191	-2.13
240.662	0.67
241.132	-4.83
241.602	1.27
242.072	-5.53
242.542	1.47
243.013	-1.63
243.483	-0.93
243.953	-3.83
244.423	-4.83
244.893	-3.73
245.363	3.07
245.833	-0.43
246.303	-11.03
246.773	0.07
247.243	-6.43
247.712	-3.53
248.182	2.17
248.652	-0.13
249.122	-8.13
249.592	5.97
250.061	1.27
250.531	9.27
251.001	-2.73
251.471	1.67
251.94	6.77
252.41	2.67
252.879	-4.23
253.349	13.77
253.818	4.57
254.288	-5.23
254.757	-4.83
255.227	-0.73
255.696	-7.63
256.166	-0.93
256.635	-2.23
257.105	1.57
257.574	-5.93
258.043	-2.93
258.513	-4.73
258.982	-1.83
259.451	-4.83
259.92	1.47
260.389	0.87
260.859	9.57
261.328	-0.53
261.797	6.67
262.266	-2.93
262.735	3.67
263.204	-1.93
263.673	-4.53
264.142	2.37
264.611	-3.33
265.08	-4.53
265.549	-4.03
266.018	2.87
266.487	-4.83
266.955	-1.63
267.424	-9.53
267.893	4.47
268.362	-8.43
268.83	-3.33
269.299	5.17
269.768	1.77
270.236	-2.03
270.705	-3.83
271.174	-5.53
271.642	0.97
272.111	-0.33
272.579	-4.73
273.048	1.77
273.516	-0.63
273.985	4.37
274.453	9.47
274.922	1.97
275.39	2.37
275.858	-7.43
276.327	2.87
276.795	2.67
277.263	3.37
277.731	13.77
278.2	-0.53
278.668	5.57
279.136	7.17
279.604	-0.83
280.072	4.17
280.54	8.37
281.008	4.37
281.477	10.97
281.945	3.37
282.413	10.47
282.881	3.37
283.348	-5.63
283.816	8.97
284.284	5.47
284.752	12.17
285.22	7.17
285.688	6.07
286.156	6.07
286.623	8.57
287.091	3.27
287.559	11.77
288.026	10.47
288.494	5.37
288.962	-1.33
289.429	-0.13
289.897	10.67
290.364	6.57
290.832	15.77
291.3	13.07
291.767	15.97
292.234	12.27
292.702	2.57
293.169	12.27
293.637	13.87
294.104	10.97
294.571	3.77
295.039	7.97
295.506	9.17
295.973	7.47
296.44	10.37
296.908	9.47
297.375	8.17
297.842	1.87
298.309	13.27
298.776	6.47
299.243	10.17
299.71	2.17
300.177	13.77
300.644	16.07
301.111	16.37
301.578	21.27
302.045	6.37
302.512	18.77
302.979	12.57
303.446	14.87
303.913	14.37
304.379	14.47
304.846	15.97
305.313	14.67
305.78	13.47
306.246	22.07
306.713	20.77
307.18	19.97
307.646	22.07
308.113	18.27
308.579	18.37
309.046	20.97
309.512	20.57
309.979	13.97
310.445	16.77
310.912	26.77
311.378	29.37
311.845	23.77
312.311	24.07
312.777	23.67
313.244	17.47
313.71	33.47
314.176	25.47
314.642	19.27
315.109	25.77
315.575	26.17
316.041	31.07
316.507	16.07
316.973	31.47
317.439	24.77
317.905	29.67
318.371	26.57
318.837	28.27
319.303	28.47
319.769	22.07
320.235	31.47
320.701	28.37
321.167	29.77
321.633	25.27
322.099	30.47
322.564	30.47
323.03	34.47
323.496	29.77
323.962	32.17
324.427	35.07
324.893	37.07
325.359	35.17
325.824	28.77
326.29	30.67
326.755	32.57
327.221	36.27
327.686	39.57
328.152	40.87
328.617	35.27
329.083	40.97
329.548	45.47
330.014	43.17
330.479	33.47
330.944	35.37
331.41	31.37
331.875	37.87
332.34	35.37
332.805	36.17
333.271	39.97
333.736	38.67
334.201	41.77
334.666	46.67
335.131	50.17
335.596	45.77
336.061	45.77
336.526	41.17
336.991	48.27
337.456	47.17
337.921	46.27
338.386	41.77
338.851	47.67
339.316	46.87
339.781	48.07
340.246	54.07
340.711	49.07
341.175	45.67
341.64	43.47
342.105	50.97
342.569	53.97
343.034	51.57
343.499	52.87
343.963	48.97
344.428	61.47
344.893	61.67
345.357	63.27
345.822	59.87
346.286	67.37
346.751	62.87
347.215	62.77
347.679	67.47
348.144	90.87
348.608	77.47
349.073	72.07
349.537	77.07
350.001	76.07
350.465	84.67
350.93	72.97
351.394	84.97
351.858	70.27
352.322	88.77
352.786	80.37
353.25	93.67
353.715	102.17
354.179	90.07
354.643	109.07
355.107	112.77
355.571	96.47
356.035	95.17
356.498	103.57
356.962	104.97
357.426	113.37
357.89	105.97
358.354	87.67
358.818	82.97
359.281	82.07
359.745	80.37
360.209	77.77
360.673	76.77
361.136	84.57
361.6	94.27
362.064	85.77
362.527	87.07
362.991	93.57
363.454	85.87
363.918	83.77
364.381	86.17
364.845	100.97
365.308	97.47
365.772	95.27
366.235	95.07
366.698	91.07
367.162	91.87
367.625	88.87
368.088	98.87
368.552	98.37
369.015	97.37
369.478	97.67
369.941	102.57
370.404	95.47
370.867	106.77
371.331	111.37
371.794	110.27
372.257	101.17
372.72	107.47
373.183	117.37
373.646	94.87
374.109	104.47
374.572	109.07
375.035	109.77
375.497	115.47
375.96	116.57
376.423	112.67
376.886	128.27
377.349	121.57
377.811	114.27
378.274	117.27
378.737	116.97
379.199	118.87
379.662	122.87
380.125	125.27
380.587	122.07
381.05	123.37
381.512	131.97
381.975	137.57
382.437	131.87
382.9	125.47
383.362	132.97
383.825	144.77
384.287	139.27
384.75	139.77
385.212	142.57
385.674	150.37
386.136	149.07
386.599	148.17
387.061	133.27
387.523	140.57
387.985	150.37
388.447	154.77
388.91	140.77
389.372	147.57
389.834	151.47
390.296	141.77
390.758	146.77
391.22	152.07
391.682	159.07
392.144	167.07
392.606	154.67
393.068	158.07
393.529	176.27
393.991	168.37
394.453	156.57
394.915	152.77
395.377	157.27
395.838	157.47
396.3	152.57
396.762	167.77
397.224	162.67
397.685	153.47
398.147	158.17
398.608	155.97
399.07	155.87
399.531	165.87
399.993	161.07
400.454	175.77
400.916	173.17
401.377	173.77
401.839	176.27
402.3	181.17
402.762	194.27
403.223	207.97
403.684	200.77
404.145	194.37
404.607	187.07
405.068	192.87
405.529	198.17
405.99	205.57
406.451	207.17
406.913	198.37
407.374	195.47
407.835	195.87
408.296	197.07
408.757	205.47
409.218	212.97
409.679	209.87
410.14	201.17
410.601	215.27
411.062	207.47
411.522	215.97
411.983	208.27
412.444	206.77
412.905	208.47
413.366	219.97
413.826	227.57
414.287	269.17
414.748	320.77
415.208	298.37
415.669	258.87
416.13	247.27
416.59	249.07
417.051	262.97
417.511	271.87
417.972	295.57
418.432	305.07
418.893	356.77
419.353	318.27
419.814	248.17
420.274	223.27
420.734	224.17
421.195	229.57
421.655	227.47
422.115	232.37
422.576	232.57
423.036	241.97
423.496	249.37
423.956	257.67
424.416	280.17
424.876	313.87
425.336	300.97
425.797	301.97
426.257	299.67
426.717	281.57
427.177	272.07
427.637	255.07
428.097	278.77
428.556	284.77
429.016	305.27
429.476	296.57
429.936	311.77
430.396	315.97
430.856	320.57
431.315	354.87
431.775	387.47
432.235	419.87
432.694	393.97
433.154	400.67
433.614	414.77
434.073	365.27
434.533	315.57
434.993	303.27
435.452	310.67
435.912	316.17
436.371	319.67
436.83	302.57
437.29	286.77
437.749	279.27
438.209	271.17
438.668	291.97
439.127	316.37
439.587	287.37
440.046	277.27
440.505	285.37
440.964	298.47
441.424	336.87
441.883	328.97
442.342	295.77
442.801	266.37
443.26	262.97
443.719	265.27
444.178	256.17
444.637	254.97
445.096	256.57
445.555	260.37
446.014	268.77
446.473	276.67
446.932	276.07
447.391	270.47
447.849	270.67
448.308	259.97
448.767	263.57
449.226	280.07
449.685	278.97
450.143	292.47
450.602	291.97
451.061	262.07
451.519	268.47
451.978	258.47
452.436	261.37
452.895	265.57
453.353	280.57
453.812	279.97
454.27	272.37
454.729	271.47
455.187	271.07
455.646	273.17
456.104	278.07
456.562	290.97
457.021	294.17
457.479	294.97
457.937	301.07
458.395	300.07
458.854	281.47
459.312	291.97
459.77	306.57
460.228	283.77
460.686	276.87
461.144	288.17
461.602	292.47
462.06	279.17
462.518	296.77
462.976	290.97
463.434	299.47
463.892	294.17
464.35	300.77
464.808	325.27
465.266	298.77
465.724	313.57
466.181	314.37
466.639	311.47
467.097	326.27
467.555	337.67
468.012	344.27
468.47	343.07
468.928	365.07
469.385	380.47
469.843	377.77
470.3	386.77
470.758	392.37
471.215	414.07
471.673	432.47
472.13	426.87
472.588	449.47
473.045	410.57
473.503	416.17
473.96	435.57
474.417	442.07
474.875	461.77
475.332	500.57
475.789	497.57
476.246	500.87
476.704	518.97
477.161	539.97
477.618	552.07
478.075	583.17
478.532	631.27
478.989	697.57
479.446	794.07
479.903	772.17
480.36	809.77
480.817	854.77
481.274	936.87
481.731	1013.37
482.188	1102.47
482.645	1224.37
483.102	1318.97
483.558	1410.37
484.015	1462.27
484.472	1458.17
484.929	1413.87
485.385	1368.07
485.842	1341.97
486.299	1315.77
486.755	1247.77
487.212	1092.87
487.668	955.97
488.125	896.27
488.582	811.77
489.038	779.47
489.494	739.77
489.951	718.67
490.407	700.27
490.864	675.27
491.32	679.87
491.776	677.47
492.233	675.17
492.689	650.27
493.145	638.27
493.602	634.57
494.058	646.67
494.514	634.47
494.97	658.57
495.426	665.97
495.882	644.17
496.338	630.37
496.794	635.67
497.251	628.97
497.707	643.77
498.163	649.57
498.618	655.07
499.074	642.17
499.53	668.67
499.986	671.67
500.442	660.77
500.898	647.17
501.354	634.97
501.809	638.97
502.265	642.17
502.721	656.17
503.177	662.87
503.632	663.97
504.088	665.07
504.543	675.77
504.999	696.27
505.455	671.77
505.91	650.27
506.366	658.67
506.821	657.77
507.277	645.27
507.732	656.27
508.187	655.17
508.643	672.87
509.098	657.47
509.553	670.57
510.009	684.47
510.464	698.87
510.919	704.37
511.375	703.57
511.83	707.57
512.285	724.37
512.74	759.27
513.195	770.87
513.65	756.77
514.105	759.57
514.56	761.37
515.015	782.47
515.47	793.67
515.925	777.77
516.38	771.87
516.835	783.87
517.29	774.37
517.745	767.47
518.2	764.37
518.655	740.97
519.109	737.47
519.564	728.77
520.019	722.97
520.474	720.07
520.928	717.57
521.383	714.47
521.838	698.27
522.292	700.87
522.747	694.97
523.201	707.07
523.656	697.97
524.11	694.17
524.565	692.87
525.019	686.07
525.474	698.07
525.928	695.97
526.382	686.47
526.837	680.37
527.291	688.97
527.745	683.57
528.2	676.57
528.654	672.07
529.108	664.57
529.562	668.67
530.016	678.37
530.47	675.07
530.925	671.07
531.379	672.37
531.833	676.97
532.287	677.87
532.741	663.97
533.195	665.37
533.649	671.57
534.103	683.47
534.556	667.47
535.01	672.27
535.464	670.67
535.918	678.17
536.372	668.97
536.826	681.77
537.279	667.97
537.733	684.87
538.187	679.57
538.64	668.67
539.094	684.67
539.548	680.67
540.001	690.87
540.455	686.57
540.908	686.17
541.362	697.47
541.815	708.57
542.269	711.77
542.722	708.57
543.175	722.77
543.629	718.47
544.082	735.77
544.536	748.77
544.989	743.57
545.442	741.27
545.895	743.97
546.349	744.17
546.802	749.37
547.255	747.57
547.708	750.97
548.161	764.97
548.614	761.07
549.067	767.47
549.52	758.57
549.973	746.87
550.426	744.57
550.879	730.77
551.332	739.87
551.785	744.17
552.238	736.77
552.691	761.07
553.144	754.77
553.596	779.47
554.049	776.47
554.502	810.87
554.955	822.67
555.407	813.87
555.86	815.17
556.313	804.57
556.765	790.17
557.218	796.07
557.67	798.07
558.123	778.87
558.576	784.17
559.028	779.67
559.48	787.77
559.933	787.47
560.385	752.27
560.838	728.37
561.29	709.57
561.742	713.37
562.195	702.17
562.647	696.47
563.099	699.97
563.551	701.77
564.004	708.07
564.456	692.97
564.908	680.17
565.36	665.77
565.812	656.47
566.264	637.87
566.716	630.57
567.168	629.67
567.62	639.97
568.072	624.77
568.524	621.37
568.976	617.77
569.428	603.67
569.88	608.97
570.332	603.37
570.784	609.67
571.235	612.97
571.687	600.37
572.139	627.27
572.59	628.67
573.042	630.97
573.494	621.37
573.945	610.77
574.397	601.67
574.849	603.57
575.3	604.57
575.752	599.87
576.203	588.47
576.655	593.57
577.106	570.77
577.557	569.37
578.009	584.37
578.46	570.57
578.912	572.67
579.363	570.87
579.814	574.17
580.265	570.97
580.717	571.37
581.168	576.97
581.619	581.67
582.07	579.17
582.521	585.57
582.972	576.27
583.423	575.17
583.875	572.07
584.326	579.07
584.777	593.17
585.227	613.17
585.678	623.47
586.129	636.77
586.58	661.37
587.031	675.97
587.482	714.77
587.933	736.97
588.384	712.87
588.834	670.77
589.285	649.17
589.736	657.07
590.186	654.87
590.637	653.17
591.088	636.47
591.538	632.97
591.989	615.67
592.439	608.27
592.89	598.47
593.34	589.67
593.791	590.87
594.241	582.47
594.692	590.77
595.142	573.47
595.593	583.87
596.043	590.57
596.493	587.87
596.943	590.97
597.394	597.47
597.844	597.37
598.294	600.87
598.744	625.87
599.195	652.67
599.645	680.57
600.095	697.47
600.545	749.27
600.995	783.67
601.445	830.47
601.895	892.17
602.345	909.47
602.795	906.07
603.245	874.87
603.695	821.17
604.145	789.07
604.594	741.77
605.044	708.07
605.494	656.87
605.944	624.97
606.393	619.57
606.843	604.97
607.293	599.27
607.743	588.87
608.192	595.27
608.642	611.37
609.091	614.77
609.541	599.67
609.99	609.37
610.44	605.27
610.889	589.37
611.339	558.47
611.788	550.57
612.238	565.27
612.687	562.27
613.136	555.87
613.586	570.57
614.035	567.77
614.484	566.37
614.933	573.07
615.383	568.07
615.832	563.57
616.281	558.97
616.73	538.57
617.179	529.57
617.628	518.77
618.077	505.87
618.526	501.47
618.975	488.17
619.424	495.67
619.873	492.97
620.322	496.17
620.771	483.67
621.22	477.77
621.669	483.87
622.118	468.07
622.567	453.97
623.015	454.47
623.464	453.47
623.913	444.27
624.361	435.67
624.81	441.57
625.259	439.77
625.707	438.87
626.156	442.17
626.604	445.97
627.053	445.37
627.501	445.57
627.95	446.67
628.398	455.17
628.847	435.77
629.295	449.27
629.744	451.97
630.192	446.07
630.64	445.07
631.089	429.57
631.537	425.37
631.985	424.37
632.433	421.77
632.881	407.17
633.33	418.67
633.778	402.87
634.226	401.37
634.674	421.57
635.122	420.27
635.57	425.97
636.018	430.47
636.466	429.37
636.914	434.17
637.362	443.27
637.81	442.77
638.258	455.57
638.705	448.07
639.153	468.67
639.601	475.97
640.049	492.97
640.497	523.27
640.944	548.07
641.392	501.67
641.84	475.47
642.287	460.67
642.735	438.67
643.182	434.47
643.63	440.57
644.078	440.37
644.525	452.57
644.973	454.07
645.42	454.87
645.867	472.57
646.315	490.97
646.762	500.37
647.21	521.17
647.657	528.67
648.104	559.37
648.551	583.07
648.999	615.97
649.446	662.87
649.893	710.87
650.34	798.67
650.787	948.27
651.234	1151.97
651.682	1453.37
652.129	1963.97
652.576	2713.77
653.023	3958.77
653.47	5465.67
653.917	6857.77
654.363	8053.07
654.81	9077.97
655.257	8685.97
655.704	5787.17
656.151	3477.27
656.598	2290.97
657.044	1651.47
657.491	1282.17
657.938	1044.07
658.385	873.57
658.831	765.07
659.278	694.97
659.724	616.37
660.171	570.77
660.618	523.67
661.064	495.07
661.511	474.47
661.957	463.17
662.404	454.77
662.85	453.07
663.296	446.07
663.743	414.37
664.189	403.77
664.635	401.87
665.082	402.27
665.528	389.37
665.974	388.97
666.42	381.17
666.867	371.77
667.313	361.77
667.759	346.17
668.205	344.07
668.651	348.67
669.097	343.67
669.543	334.37
669.989	337.77
670.435	345.87
670.881	341.17
671.327	345.27
671.773	355.97
672.219	377.87
672.665	417.77
673.11	440.27
673.556	475.47
674.002	524.67
674.448	503.97
674.893	421.77
675.339	367.87
675.785	334.77
676.23	323.97
676.676	294.47
677.122	289.87
677.567	284.67
678.013	283.07
678.458	266.77
678.904	271.07
679.349	259.17
679.794	265.77
680.24	261.67
680.685	265.27
681.131	263.67
681.576	268.77
682.021	268.67
682.466	259.87
682.912	261.57
683.357	263.37
683.802	271.07
684.247	302.17
684.692	329.87
685.137	369.67
685.583	396.37
686.028	426.37
686.473	396.07
686.918	333.87
687.363	311.77
687.807	300.17
688.252	272.07
688.697	265.17
689.142	258.87
689.587	252.27
690.032	244.27
690.477	252.37
690.921	268.27
691.366	284.07
691.811	295.97
692.255	323.87
692.7	342.97
693.145	374.87
693.589	495.07
694.034	816.37
694.478	1141.27
694.923	1322.47
695.367	1755.57
695.812	934.17
696.256	381.97
696.701	281.87
697.145	260.57
697.59	245.87
698.034	237.67
698.478	237.47
698.922	239.47
699.367	247.37
699.811	249.47
700.255	257.07
700.699	280.77
701.143	300.97
701.588	350.77
702.032	376.37
702.476	381.57
702.92	379.17
703.364	366.87
703.808	461.17
704.252	735.47
704.696	1053.67
705.14	1265.07
705.584	1658.67
706.027	815.57
706.471	395.67
706.915	295.67
707.359	263.17
707.803	244.77
708.246	229.87
708.69	236.37
709.134	234.87
709.577	229.57
710.021	240.27
710.465	222.67
710.908	223.67
711.352	223.77
711.795	229.07
712.239	257.17
712.682	284.37
713.126	306.07
713.569	347.37
714.012	272.27
714.456	223.07
714.899	217.47
715.342	205.07
715.786	188.47
716.229	186.37
716.672	187.17
717.115	187.77
717.558	186.37
718.002	183.87
718.445	198.87
718.888	210.17
719.331	214.17
719.774	225.37
720.217	230.17
720.66	214.07
721.103	205.57
721.546	195.07
721.989	180.67
722.432	161.17
722.874	177.37
723.317	168.47
723.76	175.87
724.203	185.67
724.645	225.37
725.088	315.17
725.531	413.87
725.974	483.87
726.416	414.77
726.859	228.87
727.301	181.47
727.744	175.37
728.187	166.57
728.629	173.47
729.071	177.47
729.514	191.87
729.956	195.37
730.399	204.17
730.841	214.37
731.283	202.47
731.726	200.87
732.168	199.77
732.61	196.57
733.053	212.27
733.495	224.57
733.937	254.07
734.379	293.97
734.821	316.87
735.263	392.77
735.705	592.27
736.148	1103.07
736.59	1860.87
737.032	2361.97
737.474	1948.87
737.916	620.67
738.357	327.57
738.799	244.57
739.241	224.57
739.683	212.07
740.125	219.27
740.567	226.97
741.008	255.97
741.45	250.77
741.892	241.17
742.334	269.97
742.775	293.57
743.217	284.17
743.658	210.17
744.1	190.67
744.542	202.67
744.983	252.07
745.425	292.97
745.866	286.67
746.307	215.57
746.749	207.07
747.19	239.27
747.632	316.77
748.073	603.07
748.514	1312.07
748.956	2116.57
749.397	2650.27
749.838	2210.37
750.279	2296.27
750.72	1175.17
751.162	415.07
751.603	237.17
752.044	185.17
752.485	164.07
752.926	155.77
753.367	157.77
753.808	139.67
754.249	137.57
754.69	138.07
755.131	129.57
755.572	133.37
756.013	133.67
756.453	130.97
756.894	135.17
757.335	140.27
757.776	135.07
758.216	144.07
758.657	146.17
759.098	151.87
759.538	163.17
759.979	192.07
760.42	271.47
760.86	499.67
761.301	1263.47
761.741	3192.07
762.182	5077.17
762.622	3635.87
763.063	1024.67
763.503	407.67
763.943	245.67
764.384	204.17
764.824	195.87
765.264	186.17
765.705	160.67
766.145	133.87
766.585	122.77
767.025	124.77
767.465	119.37
767.906	128.77
768.346	141.97
768.786	157.47
769.226	162.27
769.666	212.07
770.106	413.37
770.546	1068.17
770.986	1987.47
771.426	1853.57
771.866	610.87
772.306	238.67
772.745	150.27
773.185	129.37
773.625	116.97
774.065	108.87
774.505	123.87
774.944	165.77
775.384	296.67
775.824	545.77
776.263	545.97
776.703	244.67
777.142	120.17
777.582	98.57
778.021	87.77
778.461	85.27
778.9	91.37
779.34	98.47
779.779	81.87
780.219	71.37
780.658	81.67
781.097	81.07
781.537	81.67
781.976	72.67
782.415	79.97
782.855	72.57
783.294	74.17
783.733	76.07
784.172	76.57
784.611	71.77
785.05	80.07
785.489	83.37
785.928	89.57
786.367	88.87
786.806	79.77
787.245	90.07
787.684	92.17
788.123	103.77
788.562	101.37
789.001	94.97
789.44	84.27
789.879	87.27
790.317	84.17
790.756	93.47
791.195	97.27
791.634	105.77
792.072	147.87
792.511	256.87
792.95	689.57
793.388	1578.17
793.827	1520.97
794.265	513.07
794.704	205.97
795.142	136.17
795.581	118.37
796.019	100.47
796.458	89.17
796.896	88.37
797.334	88.87
797.773	108.57
798.211	155.17
798.649	301.67
799.087	725.17
799.526	1176.37
799.964	1489.37
800.402	1569.57
800.84	591.87
801.278	224.67
801.716	140.27
802.154	115.37
802.592	108.97
803.03	99.67
803.468	91.07
803.906	103.67
804.344	109.37
804.782	105.57
805.22	102.27
805.658	90.87
806.096	109.97
806.533	116.17
806.971	128.17
807.409	159.17
807.847	233.77
808.284	467.17
808.722	1347.27
809.16	2519.17
809.597	2326.87
810.035	4109.47
810.472	4730.57
810.91	1697.37
811.347	624.97
811.785	315.67
812.222	195.67
812.66	142.97
813.097	123.97
813.535	108.87
813.972	94.27
814.409	96.07
814.846	78.27
815.284	85.57
815.721	76.27
816.158	80.97
816.595	76.27
817.032	121.87
817.47	159.47
817.907	115.47
818.344	80.27
818.781	77.37
819.218	71.57
819.655	101.67
820.092	168.77
820.529	204.07
820.966	151.97
821.403	100.07
821.839	80.47
822.276	76.67
822.713	98.87
823.15	109.67
823.587	94.37
824.023	115.17
824.46	209.07
824.897	643.57
825.333	1038.27
825.77	450.87
826.206	171.17
826.643	97.27
827.08	80.97
827.516	57.97
827.953	57.17
828.389	62.87
828.825	45.47
829.262	48.37
829.698	40.77
830.135	48.77
830.571	43.17
831.007	42.37
831.443	49.07
831.88	41.87
832.316	42.27
832.752	41.67
833.188	48.77
833.624	44.77
834.06	51.17
834.497	52.17
834.933	57.67
835.369	53.07
835.805	45.27
836.241	54.87
836.677	54.77
837.112	64.77
837.548	68.27
837.984	102.97
838.42	144.37
838.856	345.47
839.292	1108.37
839.727	1820.87
840.163	840.77
840.599	677.67
841.034	1524.67
841.47	1712.07
841.906	616.17
842.341	248.67
842.777	152.77
843.212	166.97
843.648	166.77
844.083	88.87
844.519	67.27
844.954	51.27
845.39	42.27
845.825	39.97
846.261	38.47
846.696	37.27
847.131	32.17
847.566	42.97
848.002	40.27
848.437	36.27
848.872	42.67
849.307	42.57
849.742	64.37
850.177	122.17
850.613	398.77
851.048	672.57
851.483	296.97
851.918	110.07
852.353	58.07
852.788	41.57
853.223	34.07
853.657	37.97
854.092	35.17
854.527	37.17
854.962	24.17
855.397	36.07
855.832	39.17
856.266	32.87
856.701	28.67
857.136	27.07
857.57	28.17
858.005	42.47
858.44	48.77
858.874	32.37
859.309	36.97
859.743	26.27
860.178	32.47
860.612	28.17
861.047	40.17
861.481	58.27
861.915	61.97
862.35	43.37
862.784	27.67
863.218	38.47
863.653	26.57
864.087	38.17
864.521	42.77
864.955	50.27
865.39	105.17
865.824	138.67
866.258	97.27
866.692	158.77
867.126	188.47
867.56	105.17
867.994	50.67
868.428	33.77
868.862	39.77
869.296	47.97
869.73	54.07
870.164	47.77
870.598	34.37
871.031	41.17
871.465	23.17
871.899	27.67
872.333	14.47
872.766	15.97
873.2	13.67
873.634	20.67
874.067	21.27
874.501	18.07
874.935	27.87
875.368	21.27
875.802	24.87
876.235	17.07
876.669	18.97
877.102	16.47
877.535	21.77
877.969	19.17
878.402	18.57
878.836	9.37
879.269	16.27
879.702	16.37
880.135	14.17
880.569	14.27
881.002	19.47
881.435	15.47
881.868	13.47
882.301	19.07
882.734	9.47
883.167	13.67
883.601	13.37
884.034	16.27
884.467	6.87
884.899	17.67
885.332	13.17
885.765	8.37
886.198	3.67
886.631	8.77
887.064	12.37
887.497	16.37
887.929	15.47
888.362	9.57
888.795	7.77
889.228	12.27
889.66	15.27
890.093	10.37
890.526	14.47
890.958	14.87
891.391	13.47
891.823	16.67
892.256	15.47
892.688	15.47
893.121	5.47
893.553	12.37
893.985	16.37
894.418	13.47
894.85	5.87
895.282	10.97
895.715	13.77
896.147	12.47
896.579	17.17
897.011	3.77
897.444	14.97
897.876	8.77
898.308	12.17
898.74	7.27
899.172	7.37
899.604	20.07
900.036	20.07
900.468	5.07
900.9	11.37
901.332	10.77
901.764	7.67
902.196	10.37
902.628	14.47
903.06	12.07
903.491	27.07
903.923	17.27
904.355	21.97
904.787	17.47
905.218	17.47
905.65	11.77
906.082	5.77
906.513	11.57
906.945	8.77
907.376	4.87
907.808	16.67
908.239	12.87
908.671	14.37
909.102	15.67
909.534	21.77
909.965	39.97
910.397	69.67
910.828	239.07
911.259	380.67
911.691	170.77
912.122	71.07
912.553	40.57
912.984	31.97
913.415	17.77
913.847	18.37
914.278	5.77
914.709	4.07
915.14	10.57
915.571	16.27
916.002	5.87
916.433	12.87
916.864	14.77
917.295	11.77
917.726	12.17
918.157	13.67
918.587	17.97
919.018	10.87
919.449	20.47
919.88	14.17
920.311	24.37
920.741	32.47
921.172	118.37
921.603	116.07
922.033	51.37
922.464	35.67
922.895	17.97
923.325	16.57
923.756	8.27
924.186	12.87
924.617	13.97
925.047	13.77
925.478	15.77
925.908	13.47
926.338	10.37
926.769	10.67
927.199	18.27
927.629	0.77
928.06	8.57
928.49	1.57
928.92	13.57
929.35	6.87
929.78	6.77
930.21	7.77
930.641	2.27
931.071	8.87
931.501	2.07
931.931	8.27
932.361	8.67
932.791	-1.03
933.221	3.37
933.651	-0.73
934.08	13.17
934.51	25.37
934.94	1.77
935.37	4.97
935.8	7.07
936.229	4.17
936.659	13.37
937.089	-1.93
937.519	12.47
937.948	18.17
938.378	10.07
938.807	1.67
939.237	-0.23
939.666	7.27
940.096	-9.73
940.525	0.67
940.955	-6.43
941.384	7.17
941.814	-9.03
942.243	-4.43
942.672	-2.23
943.102	-3.43
943.531	1.77
943.96	4.97
944.39	0.47
944.819	2.87
945.248	2.97
945.677	-0.43
946.106	6.47
946.535	1.67
946.964	-3.33
947.393	5.27
947.822	1.47
948.251	-4.63
948.68	-1.03
949.109	6.77
949.538	3.37
949.967	-3.83
950.396	2.77
950.825	2.97
951.254	-0.83
951.682	-12.93
952.111	9.87
952.54	8.47
952.969	-3.43
953.397	-10.13
953.826	0.17
954.254	-9.93
954.683	-4.53
955.112	-4.73
955.54	3.77
955.969	2.27
956.397	-0.93
956.826	-0.33
957.254	5.17
957.682	0.67
958.111	6.87
958.539	-0.03
958.967	-1.33
959.396	0.87
959.824	0.37
960.252	7.37
960.68	-7.53
961.109	-9.73
961.537	-5.43
961.965	-0.73
962.393	-1.03
962.821	-3.63
963.249	-3.83
963.677	2.87
964.105	-4.13
964.533	36.37
964.961	27.67
965.389	14.07
965.817	6.67
966.245	-3.73
966.672	-0.63
967.1	-4.63
967.528	3.57
967.956	-2.13
968.383	7.87
968.811	0.07
969.239	0.07
969.666	-6.43
970.094	0.07
970.522	-2.23
970.949	-1.73
971.377	-1.93
971.804	-4.43
972.232	0.87
972.659	1.77
973.087	-1.53
973.514	-3.93
973.941	-8.73
974.369	4.47
974.796	-1.43
975.223	1.27
975.651	-0.43
976.078	8.87
976.505	-0.83
976.932	5.17
977.359	10.17
977.786	13.47
978.214	-5.23
978.641	-3.13
979.068	-8.13
979.495	-4.63
979.922	-4.13
980.349	-11.53
980.776	9.07
981.202	-1.23
981.629	4.27
982.056	-2.33
982.483	-3.53
982.91	7.17
983.337	-9.93
983.763	-1.13
984.19	-7.33
984.617	-3.73
985.043	-8.13
985.47	-3.53
985.897	0.67
986.323	-2.83
986.75	4.27
987.176	3.77
987.603	-1.63
988.029	-2.83
988.456	-4.13
988.882	-4.83
989.308	-0.33
989.735	-3.53
990.161	-1.23
990.587	-4.43
991.014	-5.33
991.44	5.77
991.866	-1.33
992.292	-8.03
992.719	-5.93
993.145	3.47
993.571	-11.23
993.997	-2.33
994.423	-1.03
994.849	-4.43
995.275	2.17
995.701	-2.53
996.127	-11.13
996.553	-0.13
996.979	1.97
997.405	-7.23
997.83	-6.13
998.256	-8.03
998.682	-10.63
999.108	-9.43
999.534	-0.23
999.959	-3.73
1000.385	-3.73
1000.811	1.27
1001.236	-5.93
1001.662	-9.53
1002.087	-11.63
1002.513	-2.43
1002.938	-1.83
1003.364	-0.83
1003.789	-2.93
1004.215	1.07
1004.64	-1.23
1005.066	0.07
1005.491	-0.93
1005.916	-4.13
1006.342	-1.73
1006.767	-8.53
1007.192	4.27
1007.617	-1.33
1008.042	1.17
1008.468	-1.63
1008.893	-3.03
1009.318	1.67
1009.743	2.07
1010.168	4.57
1010.593	0.97
1011.018	-7.93
1011.443	-2.93
1011.868	1.17
1012.293	-4.03
1012.718	-0.93
1013.143	-2.73
1013.567	-5.03
1013.992	-0.93
1014.417	-12.33
1014.842	2.57
1015.267	-7.33
1015.691	-8.53
1016.116	1.27
1016.541	-2.43
1016.965	3.87
1017.39	3.07
1017.814	-3.93
1018.239	-5.23
1018.663	-8.73
1019.088	-7.33
1019.512	-2.73
1019.937	1.87
1020.361	-7.33
1020.785	-3.53
1021.21	-5.53
1021.634	3.37
1022.058	0.57
1022.483	7.87
1022.907	-4.03
1023.331	-0.83
1023.755	-4.53
1024.179	0.17
1024.604	-9.43
1025.028	-7.73
1025.452	-5.03
1025.876	-5.83
1026.3	-1.33
1026.724	-8.73
1027.148	-1.03
1027.572	-8.13
1027.996	-7.33
1028.42	-0.73
1028.843	-4.23
1029.267	1.07
1029.691	0.57
1030.115	-6.93
1030.539	-6.03
1030.962	-3.73
1031.386	-11.83
1031.81	-0.23
1032.233	-3.63
1032.657	-0.93
1033.08	4.07
1033.504	-4.83
1033.927	0.87
1034.351	-4.33
1034.774	-4.93
1035.198	-3.23
1035.621	-3.63
1036.045	-3.83
1036.468	1.17
1036.891	-10.13
1037.315	-5.33
1037.738	-4.13
1038.161	-2.83
1038.584	-6.43
1039.008	-5.73
1039.431	-2.73
1039.854	3.87
1040.277	-11.53
1040.7	-7.93
1041.123	-1.73
1041.546	-9.53
1041.969	-9.23
1042.392	-6.53
1042.815	3.07
1043.238	0.27
1043.661	0.37
1044.084	-6.83
1044.507	-8.43
1044.93	-2.53
1045.352	-5.83
1045.775	-2.93
1046.198	0.77
1046.621	-4.63
1047.043	-2.63
1047.466	7.47
1047.889	-3.13
1048.311	-4.33
1048.734	-3.03
1049.156	-0.63
1049.579	-4.73
1050.001	-3.53
1050.424	1.47
1050.846	-0.73
1051.269	-1.73
1051.691	-11.93
1052.113	-4.03
1052.536	-3.33
1052.958	-1.93
1053.38	-0.63
1053.802	-7.83
1054.225	3.87
1054.647	-9.03
1055.069	-7.63
1055.491	3.67
1055.913	-10.63
1056.335	-2.63
1056.757	-13.93
1057.179	-5.73
1057.601	-8.53
1058.023	-6.63
1058.445	-4.33
1058.867	4.27
1059.289	-6.73
1059.711	-8.13
1060.133	-4.33
1060.555	-3.13
1060.976	-5.83
1061.398	-1.93
1061.82	-6.53
1062.241	-8.03
1062.663	-9.73
1063.085	-0.93
1063.506	0.87
1063.928	1.97
1064.35	0.57
1064.771	-15.83
1065.193	-6.23
1065.614	-6.73
1066.035	-1.13
1066.457	4.07
1066.878	-0.63
1067.3	-1.73
1067.721	-7.13
1068.142	-5.53
1068.564	-4.93
1068.985	0.87
1069.406	-6.43
1069.827	-5.73
1070.248	0.97
1070.67	-4.23
1071.091	-5.83
1071.512	-3.03
1071.933	-4.33
1072.354	-6.63
1072.775	-9.83
1073.196	-7.23
1073.617	2.67
1074.038	-8.83
1074.459	-3.43
1074.88	-6.73
1075.3	-2.93
1075.721	-12.13
1076.142	-4.23
1076.563	0.77
1076.983	-11.43
1077.404	-9.13
1077.825	-13.33
1078.246	-6.43
1078.666	-8.63
1079.087	-6.33
1079.507	-5.53
1079.928	0.17
1080.348	-2.93
1080.769	-5.83
1081.189	-5.03
1081.61	-9.13
1082.03	-7.23
1082.451	-9.93
1082.871	-5.43
1083.291	-4.93
1083.711	-7.73
1084.132	-5.63
1084.552	-3.33
1084.972	-5.83
1085.392	-9.93
1085.813	-1.03
1086.233	-9.03
1086.653	-6.63
1087.073	0.47
1087.493	-7.53
1087.913	-6.13
1088.333	-9.23
1088.753	0.57
1089.173	-2.83
1089.593	-5.53
1090.013	-0.53
1090.433	-1.53
1090.852	-2.33
1091.272	-0.73
1091.692	-1.53
1092.112	-6.83
1092.531	-4.53
1092.951	-13.03
1093.371	-7.63
1093.79	1.27
1094.21	-6.13
1094.63	-2.73
1095.049	-0.63
1095.469	-7.83
1095.888	-4.93
1096.308	5.87
1096.727	-0.23
1097.146	-5.03
1097.566	-2.23
1097.985	-3.23
1098.405	-1.53
1098.824	-8.53
1099.243	-9.03
1099.662	-11.63
1100.082	-6.93
1100.501	-1.03
1100.92	-3.13
1101.339	-10.53
1101.758	-5.43
