Data from 20171114-ORNL-Ar_H_NY_Subt18_08-04-16-530.txt Node
Date: Tue Nov 14 08:04:16 EST 2017
User: Ender
Spectrometer: HR+D1039
Trigger mode: 0
Integration Time (sec): 2.730000E-2
Scans to average: 10
Electric dark correction enabled: true
Nonlinearity correction enabled: false
Boxcar width: 0
XAxis mode: Wavelengths
Number of Pixels in Spectrum: 2048
>>>>>Begin Spectral Data<<<<<
187.836	-5.27
188.309	-5.27
188.782	-5.27
189.255	-0.47
189.728	-2.97
190.201	1.23
190.674	3.33
191.147	7.33
191.619	-3.67
192.092	-2.57
192.565	3.63
193.038	-0.37
193.511	-3.37
193.984	3.43
194.456	-1.87
194.929	0.43
195.402	-1.37
195.874	2.53
196.347	-0.57
196.82	-8.37
197.292	7.43
197.765	0.43
198.237	-7.87
198.71	1.73
199.182	0.13
199.655	2.03
200.127	-0.57
200.6	0.33
201.072	-2.97
201.544	-3.47
202.017	-5.17
202.489	4.43
202.961	-0.17
203.433	-1.67
203.906	-5.57
204.378	-7.27
204.85	-2.77
205.322	-5.87
205.794	-5.47
206.266	-2.17
206.739	-6.37
207.211	-1.37
207.683	-10.77
208.155	-9.57
208.627	-9.27
209.099	-8.87
209.57	-7.37
210.042	-7.27
210.514	-7.37
210.986	2.53
211.458	-7.17
211.93	-0.97
212.402	2.13
212.873	-6.17
213.345	-10.57
213.817	-13.07
214.288	3.53
214.76	-7.27
215.232	-7.47
215.703	-4.97
216.175	1.13
216.646	0.23
217.118	-3.17
217.589	-6.17
218.061	-1.87
218.532	-8.77
219.004	-3.97
219.475	-3.77
219.946	-3.77
220.418	-8.27
220.889	6.13
221.36	-3.17
221.832	-1.17
222.303	-7.37
222.774	1.23
223.245	-7.57
223.717	-3.07
224.188	-5.67
224.659	-0.67
225.13	0.13
225.601	-1.47
226.072	1.13
226.543	2.33
227.014	2.33
227.485	1.33
227.956	-7.67
228.427	-3.17
228.898	2.23
229.369	0.73
229.839	-0.77
230.31	-8.77
230.781	8.33
231.252	5.03
231.722	-3.87
232.193	-0.47
232.664	3.33
233.135	0.03
233.605	3.23
234.076	-0.57
234.546	4.43
235.017	-1.07
235.487	3.83
235.958	0.73
236.428	0.03
236.899	7.43
237.369	1.43
237.84	-1.77
238.31	11.23
238.78	1.53
239.251	6.93
239.721	6.03
240.191	5.73
240.662	-0.67
241.132	-1.67
241.602	-3.17
242.072	3.83
242.542	8.23
243.013	1.73
243.483	8.83
243.953	5.03
244.423	1.13
244.893	-2.07
245.363	2.63
245.833	6.23
246.303	-4.97
246.773	5.93
247.243	-1.47
247.712	4.03
248.182	9.63
248.652	6.83
249.122	-1.67
249.592	16.03
250.061	25.13
250.531	29.73
251.001	17.33
251.471	23.13
251.94	23.73
252.41	7.53
252.879	3.53
253.349	12.43
253.818	11.43
254.288	13.73
254.757	10.03
255.227	3.53
255.696	5.23
256.166	10.03
256.635	10.03
257.105	8.73
257.574	11.73
258.043	15.93
258.513	16.33
258.982	20.93
259.451	14.93
259.92	11.33
260.389	11.13
260.859	18.43
261.328	15.03
261.797	18.73
262.266	9.43
262.735	11.93
263.204	12.73
263.673	2.53
264.142	6.63
264.611	-3.57
265.08	4.73
265.549	1.23
266.018	10.53
266.487	0.63
266.955	1.23
267.424	3.03
267.893	8.43
268.362	5.53
268.83	5.33
269.299	13.83
269.768	7.53
270.236	9.23
270.705	4.13
271.174	3.63
271.642	9.23
272.111	6.13
272.579	18.53
273.048	24.93
273.516	24.73
273.985	28.73
274.453	17.03
274.922	24.33
275.39	15.73
275.858	5.93
276.327	12.53
276.795	18.83
277.263	12.53
277.731	31.53
278.2	48.53
278.668	58.13
279.136	53.03
279.604	19.03
280.072	16.83
280.54	16.73
281.008	7.43
281.477	19.53
281.945	12.43
282.413	14.43
282.881	14.43
283.348	10.33
283.816	20.73
284.284	13.73
284.752	17.13
285.22	11.83
285.688	16.93
286.156	15.13
286.623	42.93
287.091	55.83
287.559	26.63
288.026	18.63
288.494	20.53
288.962	9.53
289.429	9.43
289.897	14.63
290.364	15.93
290.832	17.73
291.3	14.13
291.767	17.83
292.234	14.93
292.702	10.93
293.169	20.93
293.637	21.83
294.104	18.33
294.571	9.23
295.039	20.03
295.506	10.43
295.973	21.83
296.44	20.13
296.908	19.13
297.375	22.73
297.842	23.43
298.309	17.13
298.776	13.83
299.243	21.43
299.71	9.83
300.177	18.53
300.644	17.63
301.111	18.93
301.578	22.83
302.045	16.13
302.512	25.23
302.979	24.63
303.446	22.13
303.913	20.23
304.379	19.13
304.846	28.03
305.313	19.13
305.78	23.03
306.246	25.53
306.713	30.53
307.18	17.43
307.646	26.83
308.113	26.13
308.579	27.93
309.046	27.83
309.512	27.13
309.979	19.73
310.445	29.63
310.912	30.63
311.378	27.53
311.845	27.83
312.311	29.13
312.777	31.73
313.244	31.93
313.71	37.33
314.176	31.13
314.642	29.63
315.109	26.23
315.575	34.93
316.041	32.63
316.507	33.23
316.973	34.03
317.439	31.73
317.905	32.53
318.371	35.03
318.837	29.53
319.303	28.63
319.769	35.13
320.235	28.93
320.701	37.23
321.167	39.23
321.633	33.53
322.099	36.53
322.564	42.13
323.03	38.43
323.496	36.13
323.962	41.23
324.427	38.63
324.893	39.83
325.359	32.83
325.824	28.43
326.29	40.13
326.755	32.43
327.221	35.53
327.686	41.13
328.152	41.53
328.617	39.43
329.083	36.63
329.548	42.73
330.014	40.53
330.479	38.13
330.944	39.73
331.41	38.03
331.875	44.33
332.34	37.03
332.805	37.73
333.271	44.03
333.736	43.23
334.201	45.73
334.666	47.63
335.131	54.83
335.596	48.43
336.061	48.03
336.526	32.63
336.991	45.13
337.456	52.53
337.921	48.93
338.386	39.93
338.851	44.03
339.316	40.93
339.781	45.53
340.246	49.03
340.711	38.33
341.175	46.63
341.64	45.53
342.105	43.03
342.569	56.53
343.034	46.53
343.499	45.53
343.963	41.63
344.428	57.03
344.893	59.43
345.357	57.23
345.822	52.73
346.286	58.73
346.751	58.93
347.215	64.23
347.679	65.43
348.144	82.33
348.608	76.93
349.073	65.13
349.537	60.93
350.001	69.33
350.465	74.13
350.93	69.03
351.394	67.43
351.858	59.73
352.322	76.43
352.786	75.83
353.25	86.23
353.715	91.53
354.179	87.33
354.643	106.13
355.107	105.33
355.571	97.53
356.035	93.53
356.498	106.73
356.962	111.43
357.426	115.83
357.89	102.83
358.354	80.13
358.818	77.63
359.281	74.93
359.745	76.83
360.209	63.93
360.673	71.53
361.136	75.83
361.6	82.03
362.064	75.43
362.527	79.03
362.991	81.23
363.454	72.03
363.918	72.03
364.381	70.03
364.845	76.43
365.308	76.43
365.772	76.43
366.235	81.53
366.698	75.53
367.162	79.63
367.625	80.73
368.088	78.33
368.552	84.73
369.015	81.63
369.478	85.53
369.941	90.63
370.404	81.63
370.867	95.33
371.331	87.23
371.794	102.33
372.257	104.23
372.72	103.43
373.183	103.13
373.646	94.03
374.109	90.43
374.572	97.83
375.035	92.43
375.497	98.03
375.96	94.63
376.423	89.43
376.886	105.13
377.349	102.33
377.811	93.83
378.274	91.63
378.737	96.43
379.199	102.43
379.662	103.13
380.125	109.13
380.587	104.43
381.05	114.43
381.512	115.23
381.975	121.73
382.437	117.23
382.9	117.03
383.362	116.63
383.825	122.83
384.287	130.23
384.75	128.23
385.212	128.03
385.674	119.03
386.136	123.33
386.599	113.53
387.061	115.43
387.523	110.63
387.985	124.93
388.447	130.03
388.91	129.43
389.372	139.43
389.834	141.63
390.296	130.43
390.758	138.83
391.22	151.13
391.682	187.23
392.144	262.93
392.606	201.23
393.068	147.33
393.529	148.73
393.991	143.83
394.453	132.53
394.915	134.33
395.377	168.63
395.838	190.23
396.3	137.73
396.762	127.63
397.224	121.03
397.685	117.73
398.147	115.73
398.608	113.33
399.07	116.73
399.531	115.73
399.993	128.03
400.454	138.43
400.916	133.23
401.377	129.83
401.839	138.13
402.3	131.63
402.762	150.73
403.223	161.53
403.684	158.53
404.145	144.43
404.607	142.73
405.068	152.33
405.529	150.93
405.99	170.83
406.451	153.93
406.913	155.23
407.374	141.53
407.835	141.23
408.296	154.23
408.757	151.43
409.218	160.53
409.679	153.63
410.14	163.13
410.601	156.33
411.062	169.43
411.522	166.13
411.983	168.23
412.444	156.23
412.905	166.33
413.366	165.53
413.826	170.93
414.287	191.53
414.748	239.13
415.208	224.33
415.669	186.63
416.13	188.23
416.59	181.33
417.051	190.63
417.511	196.33
417.972	214.13
418.432	223.43
418.893	261.13
419.353	223.23
419.814	182.13
420.274	165.83
420.734	162.03
421.195	175.53
421.655	181.93
422.115	166.83
422.576	168.63
423.036	179.13
423.496	191.03
423.956	185.73
424.416	202.03
424.876	238.23
425.336	234.83
425.797	228.93
426.257	225.33
426.717	207.93
427.177	201.73
427.637	201.93
428.097	207.13
428.556	218.93
429.016	244.23
429.476	238.23
429.936	246.53
430.396	244.43
430.856	256.93
431.315	285.53
431.775	311.23
432.235	333.03
432.694	300.43
433.154	316.03
433.614	331.83
434.073	288.93
434.533	250.43
434.993	237.83
435.452	250.23
435.912	264.03
436.371	248.13
436.83	248.53
437.29	237.53
437.749	211.33
438.209	211.83
438.668	233.63
439.127	246.23
439.587	233.73
440.046	219.33
440.505	229.23
440.964	242.93
441.424	276.33
441.883	260.93
442.342	218.83
442.801	199.03
443.26	200.03
443.719	199.53
444.178	192.73
444.637	181.23
445.096	190.63
445.555	199.63
446.014	200.33
446.473	204.43
446.932	201.93
447.391	200.13
447.849	198.23
448.308	197.23
448.767	194.43
449.226	213.23
449.685	209.63
450.143	221.83
450.602	208.53
451.061	196.03
451.519	208.83
451.978	205.13
452.436	206.73
452.895	212.33
453.353	216.03
453.812	206.83
454.27	212.03
454.729	213.83
455.187	215.73
455.646	216.73
456.104	216.13
456.562	231.33
457.021	236.13
457.479	227.83
457.937	239.53
458.395	232.53
458.854	216.03
459.312	222.53
459.77	230.33
460.228	222.33
460.686	211.63
461.144	229.43
461.602	212.53
462.06	220.23
462.518	224.03
462.976	225.93
463.434	228.43
463.892	236.43
464.35	246.23
464.808	255.03
465.266	237.33
465.724	241.73
466.181	252.93
466.639	242.73
467.097	249.73
467.555	265.43
468.012	272.73
468.47	277.03
468.928	297.93
469.385	305.13
469.843	308.43
470.3	308.33
470.758	317.13
471.215	330.53
471.673	351.53
472.13	348.03
472.588	357.23
473.045	330.93
473.503	331.33
473.96	350.53
474.417	364.83
474.875	381.03
475.332	418.03
475.789	404.13
476.246	413.33
476.704	420.93
477.161	455.73
477.618	458.13
478.075	491.33
478.532	535.53
478.989	603.33
479.446	687.83
479.903	677.03
480.36	719.23
480.817	763.03
481.274	866.53
481.731	973.23
482.188	1051.93
482.645	1173.63
483.102	1261.83
483.558	1385.43
484.015	1439.13
484.472	1429.23
484.929	1377.43
485.385	1337.93
485.842	1293.93
486.299	1240.93
486.755	1145.73
487.212	968.63
487.668	825.93
488.125	757.53
488.582	699.33
489.038	667.73
489.494	634.33
489.951	614.53
490.407	596.33
490.864	567.63
491.32	571.93
491.776	562.93
492.233	573.43
492.689	532.43
493.145	537.43
493.602	533.13
494.058	542.93
494.514	545.13
494.97	562.53
495.426	564.33
495.882	549.03
496.338	545.33
496.794	556.73
497.251	537.43
497.707	564.63
498.163	565.73
498.618	568.13
499.074	577.13
499.53	602.53
499.986	596.53
500.442	575.13
500.898	555.43
501.354	546.63
501.809	575.83
502.265	579.73
502.721	590.23
503.177	595.03
503.632	586.53
504.088	597.13
504.543	627.73
504.999	626.83
505.455	582.33
505.91	561.03
506.366	561.23
506.821	558.93
507.277	551.33
507.732	554.63
508.187	542.63
508.643	564.33
509.098	562.23
509.553	578.53
510.009	588.73
510.464	598.43
510.919	612.13
511.375	614.73
511.83	625.73
512.285	641.73
512.74	681.13
513.195	693.23
513.65	679.23
514.105	684.63
514.56	690.43
515.015	696.53
515.47	711.53
515.925	702.43
516.38	707.53
516.835	713.13
517.29	703.53
517.745	694.93
518.2	682.63
518.655	658.93
519.109	657.33
519.564	658.43
520.019	660.13
520.474	649.33
520.928	645.13
521.383	635.23
521.838	631.43
522.292	625.73
522.747	624.23
523.201	623.13
523.656	615.63
524.11	623.23
524.565	604.53
525.019	606.93
525.474	614.93
525.928	613.93
526.382	608.63
526.837	613.13
527.291	625.03
527.745	614.93
528.2	614.03
528.654	612.53
529.108	607.73
529.562	604.23
530.016	607.73
530.47	600.23
530.925	611.53
531.379	600.73
531.833	621.03
532.287	615.93
532.741	612.63
533.195	626.83
533.649	625.03
534.103	637.53
534.556	616.03
535.01	621.73
535.464	623.13
535.918	628.13
536.372	624.93
536.826	626.13
537.279	624.33
537.733	626.03
538.187	624.53
538.64	625.13
539.094	627.23
539.548	642.63
540.001	623.83
540.455	633.03
540.908	643.83
541.362	643.63
541.815	649.53
542.269	662.53
542.722	656.53
543.175	661.83
543.629	673.83
544.082	691.63
544.536	686.13
544.989	689.33
545.442	692.03
545.895	686.73
546.349	682.23
546.802	698.43
547.255	687.23
547.708	704.83
548.161	708.33
548.614	718.83
549.067	719.23
549.52	717.83
549.973	704.03
550.426	711.83
550.879	686.23
551.332	689.23
551.785	706.63
552.238	712.53
552.691	713.63
553.144	725.63
553.596	733.53
554.049	745.83
554.502	775.93
554.955	783.63
555.407	788.13
555.86	788.73
556.313	779.53
556.765	756.53
557.218	771.43
557.67	765.93
558.123	762.63
558.576	762.03
559.028	753.03
559.48	758.13
559.933	746.93
560.385	717.43
560.838	696.03
561.29	677.83
561.742	673.03
562.195	663.03
562.647	658.43
563.099	660.63
563.551	657.23
564.004	681.83
564.456	665.93
564.908	653.63
565.36	642.33
565.812	630.13
566.264	621.63
566.716	625.13
567.168	607.93
567.62	623.93
568.072	612.23
568.524	592.53
568.976	596.43
569.428	580.33
569.88	576.63
570.332	577.53
570.784	575.43
571.235	579.03
571.687	589.83
572.139	596.53
572.59	605.33
573.042	602.63
573.494	611.83
573.945	605.13
574.397	589.43
574.849	582.13
575.3	589.43
575.752	582.03
576.203	576.43
576.655	589.33
577.106	575.93
577.557	571.53
578.009	565.43
578.46	565.53
578.912	559.53
579.363	560.63
579.814	572.03
580.265	561.73
580.717	563.03
581.168	570.33
581.619	583.13
582.07	568.93
582.521	575.53
582.972	571.13
583.423	568.63
583.875	586.13
584.326	588.23
584.777	638.03
585.227	700.23
585.678	779.33
586.129	859.03
586.58	943.33
587.031	1014.63
587.482	1169.73
587.933	1342.63
588.384	1158.53
588.834	845.23
589.285	677.83
589.736	655.63
590.186	659.23
590.637	647.83
591.088	629.23
591.538	616.03
591.989	607.53
592.439	608.03
592.89	605.13
593.34	600.93
593.791	593.63
594.241	580.13
594.692	594.93
595.142	592.03
595.593	584.33
596.043	599.63
596.493	596.83
596.943	604.83
597.394	604.63
597.844	597.13
598.294	608.83
598.744	624.93
599.195	647.13
599.645	684.53
600.095	702.83
600.545	764.83
600.995	807.33
601.445	856.23
601.895	910.73
602.345	954.83
602.795	925.93
603.245	887.03
603.695	846.93
604.145	794.43
604.594	769.23
605.044	711.43
605.494	662.33
605.944	629.73
606.393	616.23
606.843	607.03
607.293	611.83
607.743	598.63
608.192	611.83
608.642	627.43
609.091	643.23
609.541	638.03
609.99	629.93
610.44	619.13
610.889	585.73
611.339	573.83
611.788	563.43
612.238	579.43
612.687	599.83
613.136	596.13
613.586	611.43
614.035	613.93
614.484	624.23
614.933	628.03
615.383	620.03
615.832	613.53
616.281	599.13
616.73	562.53
617.179	543.43
617.628	536.83
618.077	520.33
618.526	513.33
618.975	505.53
619.424	511.23
619.873	509.33
620.322	510.43
620.771	498.83
621.22	499.63
621.669	491.23
622.118	481.13
622.567	471.23
623.015	462.03
623.464	466.23
623.913	462.33
624.361	448.03
624.81	453.43
625.259	455.43
625.707	455.33
626.156	460.83
626.604	466.43
627.053	461.53
627.501	464.83
627.95	462.63
628.398	476.13
628.847	462.83
629.295	475.13
629.744	470.43
630.192	470.23
630.64	461.23
631.089	463.53
631.537	466.23
631.985	474.93
632.433	479.23
632.881	489.63
633.33	527.23
633.778	516.13
634.226	461.03
634.674	467.33
635.122	468.63
635.57	491.03
636.018	505.53
636.466	469.23
636.914	451.13
637.362	460.13
637.81	466.23
638.258	484.03
638.705	471.13
639.153	498.23
639.601	489.63
640.049	516.13
640.497	544.43
640.944	560.63
641.392	515.73
641.84	495.93
642.287	474.03
642.735	455.73
643.182	464.13
643.63	461.33
644.078	463.03
644.525	476.03
644.973	484.13
645.42	489.33
645.867	493.83
646.315	521.73
646.762	529.23
647.21	552.43
647.657	566.83
648.104	608.53
648.551	625.83
648.999	682.63
649.446	729.03
649.893	800.13
650.34	928.83
650.787	1088.63
651.234	1376.53
651.682	1773.63
652.129	2445.03
652.576	3491.13
653.023	5206.43
653.47	7223.73
653.917	9143.13
654.363	10751.83
654.81	12134.33
655.257	11559.03
655.704	7460.03
656.151	4355.43
656.598	2794.33
657.044	1985.53
657.491	1522.73
657.938	1226.43
658.385	1004.63
658.831	870.33
659.278	786.43
659.724	687.93
660.171	648.13
660.618	583.83
661.064	550.33
661.511	521.63
661.957	510.83
662.404	501.43
662.85	511.13
663.296	493.03
663.743	444.13
664.189	429.23
664.635	430.23
665.082	418.13
665.528	418.73
665.974	421.63
666.42	410.73
666.867	395.13
667.313	386.23
667.759	378.43
668.205	384.43
668.651	399.63
669.097	390.23
669.543	411.83
669.989	386.13
670.435	360.93
670.881	351.53
671.327	361.13
671.773	373.93
672.219	387.53
672.665	433.03
673.11	466.73
673.556	500.93
674.002	538.73
674.448	518.53
674.893	444.63
675.339	387.23
675.785	352.83
676.23	334.73
676.676	308.63
677.122	305.03
677.567	292.33
678.013	295.03
678.458	285.23
678.904	288.93
679.349	266.83
679.794	281.23
680.24	274.03
680.685	278.03
681.131	269.33
681.576	276.73
682.021	279.53
682.466	277.73
682.912	272.73
683.357	274.03
683.802	301.93
684.247	321.03
684.692	352.03
685.137	393.43
685.583	439.93
686.028	448.73
686.473	410.63
686.918	345.73
687.363	334.43
687.807	311.93
688.252	290.33
688.697	280.13
689.142	262.23
689.587	257.93
690.032	251.13
690.477	271.43
690.921	270.73
691.366	296.93
691.811	316.03
692.255	341.03
692.7	365.93
693.145	397.73
693.589	519.83
694.034	866.83
694.478	1198.93
694.923	1388.73
695.367	1850.73
695.812	966.53
696.256	396.83
696.701	295.53
697.145	273.63
697.59	251.63
698.034	258.83
698.478	255.33
698.922	253.03
699.367	264.33
699.811	266.23
700.255	275.13
700.699	296.93
701.143	331.83
701.588	375.33
702.032	417.03
702.476	409.43
702.92	382.13
703.364	383.03
703.808	484.63
704.252	793.23
704.696	1137.73
705.14	1343.23
705.584	1741.43
706.027	856.53
706.471	410.43
706.915	309.93
707.359	279.03
707.803	249.33
708.246	240.43
708.69	250.23
709.134	247.53
709.577	249.53
710.021	250.93
710.465	245.43
710.908	233.53
711.352	233.63
711.795	243.03
712.239	271.13
712.682	293.43
713.126	321.43
713.569	366.13
714.012	296.93
714.456	254.63
714.899	240.03
715.342	215.23
715.786	203.93
716.229	208.13
716.672	205.93
717.115	199.53
717.558	198.83
718.002	202.13
718.445	203.33
718.888	228.23
719.331	229.13
719.774	247.53
720.217	248.03
720.66	224.63
721.103	207.23
721.546	200.83
721.989	201.53
722.432	184.13
722.874	185.13
723.317	179.33
723.76	189.03
724.203	204.63
724.645	238.73
725.088	342.83
725.531	449.23
725.974	517.03
726.416	437.23
726.859	238.43
727.301	189.63
727.744	191.63
728.187	182.83
728.629	188.63
729.071	196.73
729.514	197.13
729.956	212.33
730.399	218.33
730.841	222.03
731.283	207.73
731.726	211.93
732.168	196.53
732.61	205.43
733.053	219.53
733.495	244.43
733.937	267.13
734.379	311.63
734.821	344.23
735.263	416.43
735.705	626.53
736.148	1193.33
736.59	2023.43
737.032	2496.43
737.474	2018.33
737.916	646.63
738.357	332.03
738.799	249.23
739.241	234.03
739.683	219.93
740.125	228.13
740.567	233.93
741.008	255.53
741.45	243.53
741.892	247.13
742.334	274.73
742.775	289.33
743.217	275.13
743.658	216.33
744.1	203.83
744.542	206.63
744.983	243.23
745.425	278.13
745.866	275.23
746.307	224.23
746.749	221.93
747.19	251.03
747.632	340.43
748.073	661.43
748.514	1424.63
748.956	2264.13
749.397	2825.83
749.838	2337.53
750.279	2424.03
750.72	1209.83
751.162	432.83
751.603	249.63
752.044	205.23
752.485	176.93
752.926	172.53
753.367	161.23
753.808	157.73
754.249	154.53
754.69	149.83
755.131	137.03
755.572	143.93
756.013	139.33
756.453	137.23
756.894	146.13
757.335	149.43
757.776	155.23
758.216	150.53
758.657	160.63
759.098	155.23
759.538	181.23
759.979	212.23
760.42	284.73
760.86	534.23
761.301	1373.63
761.741	3427.53
762.182	5363.23
762.622	3763.23
763.063	1060.93
763.503	430.93
763.943	277.93
764.384	274.93
764.824	335.23
765.264	381.23
765.705	258.83
766.145	170.53
766.585	152.73
767.025	143.33
767.465	147.63
767.906	192.63
768.346	260.73
768.786	289.63
769.226	211.03
769.666	245.93
770.106	453.03
770.546	1183.63
770.986	2128.53
771.426	1939.23
771.866	632.63
772.306	259.13
772.745	162.43
773.185	134.33
773.625	136.03
774.065	129.13
774.505	152.73
774.944	235.73
775.384	531.73
775.824	1011.73
776.263	1013.83
776.703	418.83
777.142	180.13
777.582	125.73
778.021	114.23
778.461	110.63
778.9	111.13
779.34	109.43
779.779	97.83
780.219	82.53
780.658	88.23
781.097	88.23
781.537	85.43
781.976	88.83
782.415	84.73
782.855	81.33
783.294	80.13
783.733	78.63
784.172	86.23
784.611	82.73
785.05	84.93
785.489	80.53
785.928	97.93
786.367	92.33
786.806	83.13
787.245	98.63
787.684	102.73
788.123	123.43
788.562	108.13
789.001	107.13
789.44	99.83
789.879	87.13
790.317	95.33
790.756	105.83
791.195	98.93
791.634	120.23
792.072	159.53
792.511	274.53
792.95	765.23
793.388	1715.33
793.827	1611.43
794.265	545.53
794.704	217.13
795.142	140.33
795.581	118.73
796.019	112.73
796.458	102.53
796.896	90.63
797.334	101.93
797.773	119.93
798.211	167.93
798.649	332.73
799.087	793.03
799.526	1260.83
799.964	1592.33
800.402	1666.73
800.84	612.23
801.278	234.03
801.716	149.33
802.154	125.23
802.592	107.43
803.03	105.33
803.468	102.73
803.906	111.03
804.344	122.83
804.782	110.93
805.22	105.33
805.658	106.33
806.096	111.93
806.533	119.33
806.971	133.13
807.409	169.63
807.847	239.93
808.284	489.63
808.722	1443.93
809.16	2677.23
809.597	2459.23
810.035	4360.13
810.472	4903.43
810.91	1724.03
811.347	643.73
811.785	324.73
812.222	204.53
812.66	155.03
813.097	130.73
813.535	113.23
813.972	107.33
814.409	95.83
814.846	86.23
815.284	90.33
815.721	79.03
816.158	85.23
816.595	90.53
817.032	142.93
817.47	163.33
817.907	137.33
818.344	118.93
818.781	94.13
819.218	77.03
819.655	95.63
820.092	153.53
820.529	167.03
820.966	151.93
821.403	107.83
821.839	90.33
822.276	80.53
822.713	94.53
823.15	108.83
823.587	95.43
824.023	111.63
824.46	226.83
824.897	696.03
825.333	1109.93
825.77	473.83
826.206	176.73
826.643	107.63
827.08	81.93
827.516	62.83
827.953	57.13
828.389	67.23
828.825	61.43
829.262	53.93
829.698	50.73
830.135	60.53
830.571	53.63
831.007	47.33
831.443	47.53
831.88	46.63
832.316	50.63
832.752	45.53
833.188	52.13
833.624	51.03
834.06	49.83
834.497	49.23
834.933	58.23
835.369	59.33
835.805	54.53
836.241	61.63
836.677	63.43
837.112	71.53
837.548	79.03
837.984	106.93
838.42	153.23
838.856	373.33
839.292	1194.13
839.727	1918.03
840.163	884.03
840.599	711.33
841.034	1633.93
841.47	1786.23
841.906	651.43
842.341	262.83
842.777	181.63
843.212	251.53
843.648	262.23
844.083	124.33
844.519	78.13
844.954	57.83
845.39	47.63
845.825	46.63
846.261	47.03
846.696	44.53
847.131	38.73
847.566	41.43
848.002	40.93
848.437	40.83
848.872	47.93
849.307	48.53
849.742	68.63
850.177	130.93
850.613	429.43
851.048	713.73
851.483	310.63
851.918	124.83
852.353	67.83
852.788	51.73
853.223	44.83
853.657	46.93
854.092	42.63
854.527	33.83
854.962	34.13
855.397	32.43
855.832	39.43
856.266	25.03
856.701	33.13
857.136	34.13
857.57	31.73
858.005	40.63
858.44	48.33
858.874	27.43
859.309	43.53
859.743	32.83
860.178	41.13
860.612	32.63
861.047	43.23
861.481	57.83
861.915	53.93
862.35	42.63
862.784	21.73
863.218	35.33
863.653	24.33
864.087	32.23
864.521	47.03
864.955	51.73
865.39	126.53
865.824	145.33
866.258	93.43
866.692	131.83
867.126	141.53
867.56	91.53
867.994	40.23
868.428	26.63
868.862	28.83
869.296	44.63
869.73	50.13
870.164	40.83
870.598	42.23
871.031	29.33
871.465	26.73
871.899	27.23
872.333	19.83
872.766	20.03
873.2	22.13
873.634	21.33
874.067	26.53
874.501	20.03
874.935	26.13
875.368	21.73
875.802	17.63
876.235	20.63
876.669	24.63
877.102	16.43
877.535	29.13
877.969	17.13
878.402	15.93
878.836	13.53
879.269	18.53
879.702	22.13
880.135	17.13
880.569	21.33
881.002	24.73
881.435	16.43
881.868	18.03
882.301	19.43
882.734	14.43
883.167	12.93
883.601	16.13
884.034	18.03
884.467	11.43
884.899	16.23
885.332	14.43
885.765	16.93
886.198	16.13
886.631	13.63
887.064	16.93
887.497	18.63
887.929	22.23
888.362	10.73
888.795	11.33
889.228	16.93
889.66	12.53
890.093	9.93
890.526	17.13
890.958	11.73
891.391	9.03
891.823	22.33
892.256	9.43
892.688	11.23
893.121	10.43
893.553	6.73
893.985	17.13
894.418	18.43
894.85	9.53
895.282	12.33
895.715	10.83
896.147	12.23
896.579	14.33
897.011	8.73
897.444	17.03
897.876	13.03
898.308	12.33
898.74	14.93
899.172	8.83
899.604	20.13
900.036	15.43
900.468	9.53
900.9	13.93
901.332	10.23
901.764	11.83
902.196	7.83
902.628	15.83
903.06	15.93
903.491	29.83
903.923	20.93
904.355	19.03
904.787	23.33
905.218	21.03
905.65	19.43
906.082	13.03
906.513	7.63
906.945	13.33
907.376	9.83
907.808	13.23
908.239	18.83
908.671	12.83
909.102	21.43
909.534	22.03
909.965	39.23
910.397	79.53
910.828	254.93
911.259	402.03
911.691	174.03
912.122	90.73
912.553	39.13
912.984	31.03
913.415	22.53
913.847	22.63
914.278	13.03
914.709	13.93
915.14	12.13
915.571	16.13
916.002	9.83
916.433	21.23
916.864	17.53
917.295	10.93
917.726	16.13
918.157	15.63
918.587	25.63
919.018	13.93
919.449	19.73
919.88	20.33
920.311	30.53
920.741	45.43
921.172	128.03
921.603	129.13
922.033	52.03
922.464	38.83
922.895	22.83
923.325	22.63
923.756	10.23
924.186	20.13
924.617	20.13
925.047	35.13
925.478	46.13
925.908	41.83
926.338	17.13
926.769	14.23
927.199	18.13
927.629	5.33
928.06	13.63
928.49	10.73
928.92	6.33
929.35	10.03
929.78	11.13
930.21	7.83
930.641	12.73
931.071	7.23
931.501	6.83
931.931	7.73
932.361	9.63
932.791	4.53
933.221	7.43
933.651	4.73
934.08	13.23
934.51	24.63
934.94	9.63
935.37	9.83
935.8	8.63
936.229	7.13
936.659	1.93
937.089	5.33
937.519	11.83
937.948	25.23
938.378	19.73
938.807	4.63
939.237	-1.87
939.666	4.03
940.096	-1.27
940.525	2.03
940.955	5.23
941.384	10.33
941.814	-3.47
942.243	2.83
942.672	2.03
943.102	-2.27
943.531	-0.17
943.96	9.43
944.39	2.73
944.819	1.13
945.248	4.23
945.677	-0.57
946.106	6.63
946.535	3.73
946.964	0.83
947.393	1.83
947.822	7.73
948.251	0.13
948.68	1.23
949.109	9.23
949.538	3.43
949.967	2.63
950.396	5.03
950.825	-1.27
951.254	0.53
951.682	-3.37
952.111	4.63
952.54	5.53
952.969	-3.07
953.397	-3.67
953.826	2.03
954.254	-2.07
954.683	-4.17
955.112	-5.27
955.54	-0.47
955.969	0.53
956.397	1.63
956.826	-2.47
957.254	7.73
957.682	1.13
958.111	5.63
958.539	-3.27
958.967	3.83
959.396	0.63
959.824	1.43
960.252	4.53
960.68	-3.57
961.109	-0.37
961.537	-7.27
961.965	-2.07
962.393	4.73
962.821	-5.27
963.249	7.23
963.677	10.13
964.105	3.23
964.533	33.33
964.961	36.93
965.389	13.43
965.817	3.93
966.245	-0.07
966.672	5.23
967.1	-4.87
967.528	0.33
967.956	-0.47
968.383	-0.17
968.811	1.63
969.239	-0.87
969.666	-4.17
970.094	4.33
970.522	2.73
970.949	1.03
971.377	-5.87
971.804	-4.27
972.232	-1.47
972.659	-1.97
973.087	0.83
973.514	0.43
973.941	-4.47
974.369	5.83
974.796	-2.97
975.223	0.93
975.651	-0.27
976.078	3.53
976.505	-1.47
976.932	0.43
977.359	10.43
977.786	11.13
978.214	0.53
978.641	-5.37
979.068	-4.87
979.495	-3.97
979.922	2.93
980.349	-1.77
980.776	2.53
981.202	-1.67
981.629	6.33
982.056	6.03
982.483	-4.27
982.91	8.03
983.337	-0.77
983.763	5.03
984.19	-5.17
984.617	-6.67
985.043	-5.57
985.47	0.33
985.897	-5.07
986.323	-4.27
986.75	5.03
987.176	1.63
987.603	3.83
988.029	3.03
988.456	-6.17
988.882	0.53
989.308	-6.47
989.735	-1.57
990.161	1.13
990.587	-3.47
991.014	4.53
991.44	8.73
991.866	-1.47
992.292	-2.17
992.719	0.53
993.145	5.33
993.571	-7.47
993.997	-2.27
994.423	-1.77
994.849	-3.67
995.275	2.63
995.701	0.93
996.127	4.23
996.553	6.63
996.979	-5.67
997.405	-3.97
997.83	1.63
998.256	-2.07
998.682	-8.77
999.108	-4.77
999.534	-3.37
999.959	-5.57
1000.385	-3.07
1000.811	1.93
1001.236	-8.37
1001.662	-6.17
1002.087	-3.37
1002.513	4.43
1002.938	0.63
1003.364	1.23
1003.789	-0.87
1004.215	4.13
1004.64	4.33
1005.066	2.93
1005.491	-4.07
1005.916	0.13
1006.342	-0.77
1006.767	-7.07
1007.192	1.63
1007.617	-7.07
1008.042	-2.47
1008.468	-4.77
1008.893	-5.47
1009.318	-0.87
1009.743	-6.17
1010.168	-1.77
1010.593	1.33
1011.018	-7.87
1011.443	0.13
1011.868	4.83
1012.293	-2.97
1012.718	-2.47
1013.143	-3.57
1013.567	2.83
1013.992	2.23
1014.417	-7.87
1014.842	-1.07
1015.267	-6.57
1015.691	-1.97
1016.116	4.63
1016.541	-5.17
1016.965	2.13
1017.39	2.23
1017.814	2.73
1018.239	-0.47
1018.663	-1.27
1019.088	-6.97
1019.512	-3.77
1019.937	1.33
1020.361	-2.67
1020.785	-7.67
1021.21	-2.47
1021.634	-3.67
1022.058	3.33
1022.483	-3.37
1022.907	-6.57
1023.331	-6.77
1023.755	-1.67
1024.179	0.53
1024.604	0.43
1025.028	-5.17
1025.452	-2.37
1025.876	-0.17
1026.3	0.93
1026.724	-10.97
1027.148	-7.27
1027.572	-13.07
1027.996	-0.57
1028.42	-2.77
1028.843	-4.47
1029.267	-2.27
1029.691	1.53
1030.115	-6.77
1030.539	-2.97
1030.962	-0.17
1031.386	-5.47
1031.81	-2.97
1032.233	1.53
1032.657	1.23
1033.08	-5.47
1033.504	-2.17
1033.927	-1.97
1034.351	4.43
1034.774	-0.97
1035.198	1.73
1035.621	0.13
1036.045	-5.97
1036.468	-4.07
1036.891	-7.97
1037.315	-11.07
1037.738	-6.07
1038.161	3.43
1038.584	-5.67
1039.008	-5.67
1039.431	-3.47
1039.854	3.53
1040.277	-8.17
1040.7	-8.07
1041.123	0.13
1041.546	-4.77
1041.969	1.43
1042.392	-2.87
1042.815	3.83
1043.238	3.23
1043.661	5.53
1044.084	-5.07
1044.507	-5.77
1044.93	-6.97
1045.352	-3.17
1045.775	-0.87
1046.198	-2.77
1046.621	-1.27
1047.043	0.33
1047.466	6.23
1047.889	-5.17
1048.311	-4.47
1048.734	-4.67
1049.156	-2.97
1049.579	-3.97
1050.001	-0.47
1050.424	-0.87
1050.846	-1.07
1051.269	-3.17
1051.691	0.93
1052.113	-5.57
1052.536	0.63
1052.958	-0.67
1053.38	-7.37
1053.802	-9.77
1054.225	3.03
1054.647	-7.17
1055.069	-5.17
1055.491	-2.27
1055.913	-10.27
1056.335	-3.47
1056.757	-5.57
1057.179	-10.47
1057.601	-4.57
1058.023	1.93
1058.445	-6.27
1058.867	-1.07
1059.289	-4.27
1059.711	-2.47
1060.133	-4.27
1060.555	-2.67
1060.976	0.83
1061.398	-0.97
1061.82	-5.17
1062.241	-8.17
1062.663	-11.17
1063.085	-0.37
1063.506	-0.87
1063.928	-2.37
1064.35	-0.37
1064.771	-10.17
1065.193	-2.87
1065.614	-7.67
1066.035	-0.97
1066.457	-3.17
1066.878	-3.67
1067.3	-2.57
1067.721	1.03
1068.142	-4.97
1068.564	-5.17
1068.985	-1.77
1069.406	-1.57
1069.827	-4.17
1070.248	-1.47
1070.67	-4.87
1071.091	-3.37
1071.512	-7.57
1071.933	-5.37
1072.354	-5.07
1072.775	-5.77
1073.196	-8.07
1073.617	-4.77
1074.038	-5.47
1074.459	-7.77
1074.88	-9.57
1075.3	0.63
1075.721	-4.27
1076.142	-1.17
1076.563	-6.97
1076.983	-14.67
1077.404	-9.87
1077.825	-11.77
1078.246	-0.77
1078.666	-4.77
1079.087	-4.77
1079.507	-5.87
1079.928	2.03
1080.348	-0.27
1080.769	0.23
1081.189	-1.77
1081.61	-5.27
1082.03	-9.47
1082.451	-7.17
1082.871	0.43
1083.291	-6.07
1083.711	-6.97
1084.132	-4.77
1084.552	-4.77
1084.972	-0.67
1085.392	-7.37
1085.813	-8.17
1086.233	-5.57
1086.653	2.43
1087.073	-2.97
1087.493	-5.37
1087.913	-5.27
1088.333	-3.67
1088.753	-0.67
1089.173	0.73
1089.593	0.33
1090.013	3.43
1090.433	6.03
1090.852	-2.47
1091.272	-0.27
1091.692	-1.47
1092.112	-1.27
1092.531	-9.97
1092.951	-12.77
1093.371	-5.87
1093.79	6.03
1094.21	-5.37
1094.63	-2.67
1095.049	-7.17
1095.469	2.03
1095.888	0.43
1096.308	3.43
1096.727	6.03
1097.146	-4.57
1097.566	-1.57
1097.985	-3.27
1098.405	-0.87
1098.824	-7.97
1099.243	-5.47
1099.662	-6.87
1100.082	-5.77
1100.501	-2.77
1100.92	-3.57
1101.339	-5.67
1101.758	-7.37
