Data from 20171114-ORNL-Ar_H_NY_Subt18_08-03-37-767.txt Node
Date: Tue Nov 14 08:03:37 EST 2017
User: Ender
Spectrometer: HR+D1039
Trigger mode: 0
Integration Time (sec): 2.730000E-2
Scans to average: 10
Electric dark correction enabled: true
Nonlinearity correction enabled: false
Boxcar width: 0
XAxis mode: Wavelengths
Number of Pixels in Spectrum: 2048
>>>>>Begin Spectral Data<<<<<
187.836	-4.64
188.309	-4.64
188.782	-4.64
189.255	0.16
189.728	1.36
190.201	5.66
190.674	-2.34
191.147	1.96
191.619	-6.74
192.092	7.06
192.565	0.96
193.038	-0.44
193.511	0.96
193.984	-1.24
194.456	-4.04
194.929	5.16
195.402	-3.24
195.874	-0.64
196.347	-1.84
196.82	-4.44
197.292	1.86
197.765	0.06
198.237	-3.84
198.71	5.46
199.182	-4.04
199.655	1.56
200.127	-0.54
200.6	-2.14
201.072	-4.84
201.544	-5.14
202.017	-3.94
202.489	2.86
202.961	-0.54
203.433	-3.04
203.906	-7.54
204.378	-8.64
204.85	-9.04
205.322	-12.14
205.794	0.86
206.266	-6.24
206.739	-13.34
207.211	3.06
207.683	-6.04
208.155	-7.94
208.627	-3.84
209.099	-2.14
209.57	-7.34
210.042	-3.64
210.514	-9.04
210.986	-2.94
211.458	-13.14
211.93	-3.94
212.402	1.66
212.873	-8.54
213.345	-6.74
213.817	-8.04
214.288	-2.04
214.76	-10.74
215.232	-1.94
215.703	4.86
216.175	0.26
216.646	-6.04
217.118	-4.14
217.589	-1.24
218.061	-5.74
218.532	-2.24
219.004	-0.74
219.475	-3.24
219.946	-4.24
220.418	-1.34
220.889	1.26
221.36	0.86
221.832	-2.64
222.303	-6.24
222.774	-0.84
223.245	-11.24
223.717	-6.24
224.188	-5.24
224.659	-8.74
225.13	-12.14
225.601	-3.34
226.072	1.06
226.543	-0.24
227.014	-3.34
227.485	-11.14
227.956	-7.24
228.427	-7.44
228.898	0.66
229.369	-1.24
229.839	-8.44
230.31	-13.84
230.781	3.36
231.252	-2.24
231.722	-2.04
232.193	-7.04
232.664	-5.14
233.135	-4.24
233.605	1.46
234.076	-9.84
234.546	-1.94
235.017	-1.64
235.487	-2.94
235.958	-2.64
236.428	-10.04
236.899	-2.44
237.369	-0.04
237.84	-10.04
238.31	-0.34
238.78	-5.14
239.251	-6.74
239.721	-2.94
240.191	-1.44
240.662	-5.14
241.132	-4.34
241.602	-10.14
242.072	-4.64
242.542	0.56
243.013	-3.54
243.483	5.46
243.953	2.16
244.423	1.46
244.893	-9.74
245.363	-0.34
245.833	-0.44
246.303	-8.94
246.773	3.56
247.243	-3.84
247.712	-2.04
248.182	-2.84
248.652	-2.14
249.122	-8.24
249.592	-5.54
250.061	-2.84
250.531	3.96
251.001	-4.04
251.471	1.06
251.94	9.46
252.41	4.06
252.879	-7.84
253.349	6.76
253.818	0.46
254.288	-3.34
254.757	0.26
255.227	-4.44
255.696	-4.54
256.166	8.46
256.635	6.56
257.105	4.86
257.574	-4.14
258.043	-0.94
258.513	-3.14
258.982	0.56
259.451	-4.14
259.92	-4.24
260.389	0.86
260.859	6.26
261.328	-0.54
261.797	-3.34
262.266	-5.84
262.735	5.06
263.204	1.66
263.673	-5.04
264.142	3.06
264.611	-8.24
265.08	-6.34
265.549	-5.34
266.018	0.46
266.487	-0.74
266.955	-4.94
267.424	-4.94
267.893	2.56
268.362	-3.34
268.83	-2.14
269.299	6.36
269.768	4.56
270.236	0.06
270.705	-5.94
271.174	-1.64
271.642	0.76
272.111	3.56
272.579	2.56
273.048	4.06
273.516	8.66
273.985	3.96
274.453	-0.14
274.922	9.16
275.39	4.36
275.858	-4.84
276.327	4.56
276.795	7.46
277.263	3.16
277.731	8.26
278.2	8.66
278.668	3.56
279.136	4.96
279.604	-1.04
280.072	5.16
280.54	5.16
281.008	2.56
281.477	6.56
281.945	-2.24
282.413	6.66
282.881	3.26
283.348	-2.84
283.816	3.56
284.284	2.46
284.752	14.26
285.22	6.66
285.688	6.36
286.156	4.26
286.623	7.06
287.091	3.16
287.559	9.86
288.026	9.46
288.494	7.56
288.962	-0.04
289.429	-1.54
289.897	4.26
290.364	8.16
290.832	10.46
291.3	9.06
291.767	3.46
292.234	5.26
292.702	0.16
293.169	1.46
293.637	12.16
294.104	10.16
294.571	-0.84
295.039	2.16
295.506	7.56
295.973	11.36
296.44	8.16
296.908	6.66
297.375	3.96
297.842	12.86
298.309	10.16
298.776	4.96
299.243	9.96
299.71	4.36
300.177	15.36
300.644	13.06
301.111	14.66
301.578	10.36
302.045	6.36
302.512	17.56
302.979	14.06
303.446	11.76
303.913	13.36
304.379	13.06
304.846	23.06
305.313	16.46
305.78	7.56
306.246	14.26
306.713	20.86
307.18	17.66
307.646	9.76
308.113	13.76
308.579	10.06
309.046	12.66
309.512	19.06
309.979	12.26
310.445	20.26
310.912	24.16
311.378	19.76
311.845	20.26
312.311	24.36
312.777	20.46
313.244	24.66
313.71	26.96
314.176	23.16
314.642	17.46
315.109	16.36
315.575	26.36
316.041	32.06
316.507	20.76
316.973	26.66
317.439	22.96
317.905	25.26
318.371	21.86
318.837	23.56
319.303	20.46
319.769	21.96
320.235	22.66
320.701	22.36
321.167	28.06
321.633	23.46
322.099	27.66
322.564	36.26
323.03	30.46
323.496	25.46
323.962	28.66
324.427	26.56
324.893	29.76
325.359	31.86
325.824	29.06
326.29	34.46
326.755	26.16
327.221	35.86
327.686	33.56
328.152	36.86
328.617	36.86
329.083	34.36
329.548	37.46
330.014	40.06
330.479	26.56
330.944	37.06
331.41	34.76
331.875	31.96
332.34	33.96
332.805	34.66
333.271	29.46
333.736	29.86
334.201	42.56
334.666	39.56
335.131	35.96
335.596	34.96
336.061	38.96
336.526	33.26
336.991	39.76
337.456	49.66
337.921	43.56
338.386	36.76
338.851	36.86
339.316	39.36
339.781	37.96
340.246	45.26
340.711	40.16
341.175	52.06
341.64	38.76
342.105	48.96
342.569	42.46
343.034	48.66
343.499	51.56
343.963	44.96
344.428	53.86
344.893	56.86
345.357	47.76
345.822	55.16
346.286	56.86
346.751	59.36
347.215	54.56
347.679	53.26
348.144	78.46
348.608	60.96
349.073	61.76
349.537	62.66
350.001	66.26
350.465	74.26
350.93	69.86
351.394	69.56
351.858	65.76
352.322	69.16
352.786	73.96
353.25	78.46
353.715	87.06
354.179	82.96
354.643	96.16
355.107	97.26
355.571	79.06
356.035	83.16
356.498	89.26
356.962	88.06
357.426	102.26
357.89	93.46
358.354	80.86
358.818	77.76
359.281	68.16
359.745	70.26
360.209	67.76
360.673	72.06
361.136	73.56
361.6	76.46
362.064	74.66
362.527	76.96
362.991	76.16
363.454	69.36
363.918	70.26
364.381	71.26
364.845	78.06
365.308	76.56
365.772	87.76
366.235	81.66
366.698	71.16
367.162	76.46
367.625	77.96
368.088	82.86
368.552	85.76
369.015	80.86
369.478	95.76
369.941	92.66
370.404	86.96
370.867	91.36
371.331	100.26
371.794	97.06
372.257	93.96
372.72	99.16
373.183	95.46
373.646	95.46
374.109	96.46
374.572	98.16
375.035	98.66
375.497	101.96
375.96	102.86
376.423	101.26
376.886	108.46
377.349	99.66
377.811	90.86
378.274	103.16
378.737	101.86
379.199	114.16
379.662	101.66
380.125	107.16
380.587	107.86
381.05	100.06
381.512	113.86
381.975	119.16
382.437	118.16
382.9	110.06
383.362	120.16
383.825	123.76
384.287	127.36
384.75	120.06
385.212	126.86
385.674	130.66
386.136	129.66
386.599	123.76
387.061	127.56
387.523	126.46
387.985	126.46
388.447	134.76
388.91	123.06
389.372	125.46
389.834	124.36
390.296	122.76
390.758	130.96
391.22	136.46
391.682	147.96
392.144	147.46
392.606	147.96
393.068	141.06
393.529	148.56
393.991	147.16
394.453	130.06
394.915	136.36
395.377	139.16
395.838	141.96
396.3	139.36
396.762	137.46
397.224	135.06
397.685	134.56
398.147	136.96
398.608	140.36
399.07	139.06
399.531	146.66
399.993	149.96
400.454	159.06
400.916	154.06
401.377	160.46
401.839	155.76
402.3	161.36
402.762	174.56
403.223	179.56
403.684	178.16
404.145	174.66
404.607	165.06
405.068	165.46
405.529	167.46
405.99	180.76
406.451	174.86
406.913	172.36
407.374	166.66
407.835	166.76
408.296	176.66
408.757	172.66
409.218	189.76
409.679	179.96
410.14	178.56
410.601	178.86
411.062	180.86
411.522	190.46
411.983	178.46
412.444	191.16
412.905	195.26
413.366	205.16
413.826	214.96
414.287	247.76
414.748	304.36
415.208	276.46
415.669	235.86
416.13	226.96
416.59	234.06
417.051	243.26
417.511	251.86
417.972	283.36
418.432	297.16
418.893	346.66
419.353	300.96
419.814	232.96
420.274	205.56
420.734	203.56
421.195	212.26
421.655	212.16
422.115	212.26
422.576	215.76
423.036	218.36
423.496	227.26
423.956	238.66
424.416	252.66
424.876	291.86
425.336	270.36
425.797	274.86
426.257	264.46
426.717	254.26
427.177	238.96
427.637	219.86
428.097	225.96
428.556	230.26
429.016	265.96
429.476	239.86
429.936	254.56
430.396	246.06
430.856	263.56
431.315	282.96
431.775	301.36
432.235	334.56
432.694	309.96
433.154	318.86
433.614	331.66
434.073	301.06
434.533	257.46
434.993	244.96
435.452	261.36
435.912	263.46
436.371	262.06
436.83	257.66
437.29	253.86
437.749	244.06
438.209	245.66
438.668	261.76
439.127	276.16
439.587	259.96
440.046	250.46
440.505	265.76
440.964	267.86
441.424	313.46
441.883	297.76
442.342	268.86
442.801	246.46
443.26	247.46
443.719	248.36
444.178	234.56
444.637	229.56
445.096	245.06
445.555	243.66
446.014	244.06
446.473	248.36
446.932	254.36
447.391	253.36
447.849	251.86
448.308	246.56
448.767	241.76
449.226	257.26
449.685	261.16
450.143	271.06
450.602	261.26
451.061	246.36
451.519	251.26
451.978	245.76
452.436	245.96
452.895	253.26
453.353	261.46
453.812	258.96
454.27	252.96
454.729	255.56
455.187	254.86
455.646	253.46
456.104	259.76
456.562	277.96
457.021	274.06
457.479	268.36
457.937	289.16
458.395	277.56
458.854	268.86
459.312	272.16
459.77	285.46
460.228	269.46
460.686	264.76
461.144	268.26
461.602	269.16
462.06	263.46
462.518	276.66
462.976	277.36
463.434	272.96
463.892	283.96
464.35	282.06
464.808	300.86
465.266	280.16
465.724	290.76
466.181	294.86
466.639	285.06
467.097	303.06
467.555	308.46
468.012	310.86
468.47	317.56
468.928	335.66
469.385	343.16
469.843	349.16
470.3	346.86
470.758	362.36
471.215	375.36
471.673	396.16
472.13	393.16
472.588	412.46
473.045	377.76
473.503	380.36
473.96	401.36
474.417	392.06
474.875	423.36
475.332	444.86
475.789	434.86
476.246	440.96
476.704	448.96
477.161	458.26
477.618	470.06
478.075	483.86
478.532	513.86
478.989	553.06
479.446	609.26
479.903	567.26
480.36	574.46
480.817	581.86
481.274	612.26
481.731	642.56
482.188	657.76
482.645	711.36
483.102	745.06
483.558	792.96
484.015	814.76
484.472	799.46
484.929	786.66
485.385	782.46
485.842	782.26
486.299	779.76
486.755	802.06
487.212	726.46
487.668	648.56
488.125	638.26
488.582	601.36
489.038	594.96
489.494	583.46
489.951	578.36
490.407	571.96
490.864	572.36
491.32	570.06
491.776	585.56
492.233	586.36
492.689	563.96
493.145	559.56
493.602	559.16
494.058	576.66
494.514	580.26
494.97	587.46
495.426	598.06
495.882	579.26
496.338	575.66
496.794	583.16
497.251	577.56
497.707	587.96
498.163	584.06
498.618	594.36
499.074	596.46
499.53	605.06
499.986	614.76
500.442	598.46
500.898	587.76
501.354	593.56
501.809	594.86
502.265	586.16
502.721	597.16
503.177	610.96
503.632	613.56
504.088	614.36
504.543	640.46
504.999	644.86
505.455	616.16
505.91	611.66
506.366	616.26
506.821	616.56
507.277	606.46
507.732	608.06
508.187	605.66
508.643	617.06
509.098	619.96
509.553	628.86
510.009	640.46
510.464	641.56
510.919	660.46
511.375	654.36
511.83	665.36
512.285	672.06
512.74	699.46
513.195	720.86
513.65	718.16
514.105	713.86
514.56	722.96
515.015	727.16
515.47	721.16
515.925	724.26
516.38	718.36
516.835	730.16
517.29	719.36
517.745	722.06
518.2	716.66
518.655	697.96
519.109	686.26
519.564	683.36
520.019	676.66
520.474	660.46
520.928	675.16
521.383	664.66
521.838	656.86
522.292	654.86
522.747	656.06
523.201	656.26
523.656	653.26
524.11	654.96
524.565	645.46
525.019	636.06
525.474	632.86
525.928	640.26
526.382	637.96
526.837	639.66
527.291	641.46
527.745	630.86
528.2	636.26
528.654	633.66
529.108	625.06
529.562	619.76
530.016	616.46
530.47	619.26
530.925	628.76
531.379	622.86
531.833	631.06
532.287	624.16
532.741	624.76
533.195	614.06
533.649	636.86
534.103	634.66
534.556	622.16
535.01	614.46
535.464	614.06
535.918	631.96
536.372	634.36
536.826	628.76
537.279	614.46
537.733	625.66
538.187	628.06
538.64	622.16
539.094	632.36
539.548	631.36
540.001	639.06
540.455	644.76
540.908	638.46
541.362	641.26
541.815	656.66
542.269	664.76
542.722	666.06
543.175	672.96
543.629	673.56
544.082	692.46
544.536	685.86
544.989	685.16
545.442	695.46
545.895	695.36
546.349	699.76
546.802	698.16
547.255	699.06
547.708	696.56
548.161	717.66
548.614	703.16
549.067	719.06
549.52	707.16
549.973	701.16
550.426	688.96
550.879	685.76
551.332	692.46
551.785	685.46
552.238	690.66
552.691	704.66
553.144	712.96
553.596	716.86
554.049	733.16
554.502	754.86
554.955	770.46
555.407	760.26
555.86	759.86
556.313	747.56
556.765	736.96
557.218	737.66
557.67	729.06
558.123	726.56
558.576	731.66
559.028	736.26
559.48	747.06
559.933	727.16
560.385	707.56
560.838	686.86
561.29	660.96
561.742	663.26
562.195	651.76
562.647	638.76
563.099	651.16
563.551	656.26
564.004	659.46
564.456	646.76
564.908	634.36
565.36	612.36
565.812	598.06
566.264	597.06
566.716	592.86
567.168	572.56
567.62	582.56
568.072	570.66
568.524	574.86
568.976	567.76
569.428	555.96
569.88	558.36
570.332	556.26
570.784	561.76
571.235	560.56
571.687	569.26
572.139	571.66
572.59	577.16
573.042	583.16
573.494	569.76
573.945	569.06
574.397	548.86
574.849	558.96
575.3	556.36
575.752	547.86
576.203	538.76
576.655	553.06
577.106	543.16
577.557	528.56
578.009	532.66
578.46	535.96
578.912	531.66
579.363	522.26
579.814	526.66
580.265	526.66
580.717	534.66
581.168	527.66
581.619	525.06
582.07	537.56
582.521	531.86
582.972	531.56
583.423	528.86
583.875	518.16
584.326	530.16
584.777	546.26
585.227	559.06
585.678	573.56
586.129	578.56
586.58	593.26
587.031	601.56
587.482	633.76
587.933	652.56
588.384	635.16
588.834	614.66
589.285	595.26
589.736	610.36
590.186	603.16
590.637	611.96
591.088	587.36
591.538	580.36
591.989	579.96
592.439	561.56
592.89	554.76
593.34	550.66
593.791	543.86
594.241	535.76
594.692	537.56
595.142	534.66
595.593	528.86
596.043	536.76
596.493	531.36
596.943	542.96
597.394	550.36
597.844	548.16
598.294	563.96
598.744	575.96
599.195	595.76
599.645	622.46
600.095	653.06
600.545	687.16
600.995	728.16
601.445	762.36
601.895	822.26
602.345	865.16
602.795	853.66
603.245	815.46
603.695	767.56
604.145	724.36
604.594	700.06
605.044	654.56
605.494	604.46
605.944	571.56
606.393	558.36
606.843	539.96
607.293	551.06
607.743	537.56
608.192	546.96
608.642	550.96
609.091	563.16
609.541	560.16
609.99	565.86
610.44	560.66
610.889	524.66
611.339	525.36
611.788	510.16
612.238	511.56
612.687	522.16
613.136	521.16
613.586	530.46
614.035	520.06
614.484	529.16
614.933	525.86
615.383	513.56
615.832	514.76
616.281	513.46
616.73	493.16
617.179	486.46
617.628	479.06
618.077	467.46
618.526	464.56
618.975	455.66
619.424	456.16
619.873	444.36
620.322	447.36
620.771	447.06
621.22	441.46
621.669	430.06
622.118	420.16
622.567	421.46
623.015	408.56
623.464	419.16
623.913	407.76
624.361	398.16
624.81	395.96
625.259	394.56
625.707	396.16
626.156	408.86
626.604	406.96
627.053	406.96
627.501	405.96
627.95	405.56
628.398	411.76
628.847	406.76
629.295	399.96
629.744	400.86
630.192	404.46
630.64	394.56
631.089	384.16
631.537	382.06
631.985	375.06
632.433	372.66
632.881	362.66
633.33	373.16
633.778	364.76
634.226	374.36
634.674	370.76
635.122	381.16
635.57	381.66
636.018	392.76
636.466	387.26
636.914	382.96
637.362	392.66
637.81	394.66
638.258	410.96
638.705	399.66
639.153	420.96
639.601	422.66
640.049	436.16
640.497	459.46
640.944	481.06
641.392	446.86
641.84	417.96
642.287	389.36
642.735	370.46
643.182	373.56
643.63	365.46
644.078	354.96
644.525	360.76
644.973	361.46
645.42	371.26
645.867	367.56
646.315	386.96
646.762	378.86
647.21	391.26
647.657	397.26
648.104	400.86
648.551	394.76
648.999	401.06
649.446	419.96
649.893	414.06
650.34	445.46
650.787	486.76
651.234	555.56
651.682	649.96
652.129	791.36
652.576	1012.06
653.023	1385.16
653.47	1808.06
653.917	2208.36
654.363	2582.76
654.81	2879.16
655.257	2759.06
655.704	1926.76
656.151	1239.86
656.598	880.26
657.044	683.36
657.491	576.46
657.938	507.36
658.385	464.86
658.831	441.96
659.278	427.06
659.724	386.86
660.171	377.26
660.618	348.16
661.064	355.46
661.511	358.16
661.957	350.86
662.404	350.66
662.85	364.76
663.296	353.96
663.743	332.36
664.189	329.76
664.635	319.46
665.082	331.16
665.528	327.86
665.974	319.36
666.42	321.96
666.867	317.96
667.313	300.16
667.759	301.16
668.205	280.76
668.651	288.06
669.097	288.46
669.543	274.46
669.989	288.36
670.435	293.46
670.881	294.86
671.327	298.96
671.773	308.26
672.219	319.06
672.665	360.26
673.11	387.66
673.556	432.46
674.002	468.06
674.448	459.96
674.893	379.16
675.339	330.26
675.785	304.16
676.23	284.06
676.676	266.56
677.122	258.56
677.567	253.16
678.013	248.26
678.458	248.96
678.904	247.06
679.349	235.46
679.794	243.96
680.24	237.26
680.685	233.66
681.131	228.76
681.576	245.26
682.021	242.36
682.466	229.66
682.912	229.16
683.357	240.46
683.802	258.56
684.247	275.96
684.692	302.26
685.137	341.16
685.583	370.86
686.028	392.06
686.473	368.46
686.918	311.46
687.363	289.76
687.807	267.86
688.252	249.96
688.697	243.16
689.142	229.16
689.587	223.06
690.032	222.06
690.477	231.66
690.921	241.26
691.366	259.26
691.811	267.06
692.255	301.96
692.7	318.16
693.145	345.06
693.589	462.76
694.034	756.66
694.478	1070.66
694.923	1258.76
695.367	1672.96
695.812	879.86
696.256	356.76
696.701	252.46
697.145	229.16
697.59	220.26
698.034	213.06
698.478	219.56
698.922	221.66
699.367	213.56
699.811	231.86
700.255	232.26
700.699	259.16
701.143	281.16
701.588	320.36
702.032	350.56
702.476	359.86
702.92	340.16
703.364	336.76
703.808	428.16
704.252	700.76
704.696	1018.56
705.14	1217.46
705.584	1577.56
706.027	787.16
706.471	363.36
706.915	277.96
707.359	238.96
707.803	221.66
708.246	210.36
708.69	218.86
709.134	207.96
709.577	206.96
710.021	215.26
710.465	203.36
710.908	202.96
711.352	199.86
711.795	214.96
712.239	238.96
712.682	260.36
713.126	287.26
713.569	315.36
714.012	253.96
714.456	211.06
714.899	197.96
715.342	182.96
715.786	170.96
716.229	174.46
716.672	180.26
717.115	171.56
717.558	162.36
718.002	163.76
718.445	174.96
718.888	195.26
719.331	199.46
719.774	206.16
720.217	207.76
720.66	190.86
721.103	183.36
721.546	176.46
721.989	165.06
722.432	151.46
722.874	162.66
723.317	146.86
723.76	156.86
724.203	169.56
724.645	205.36
725.088	289.06
725.531	388.16
725.974	460.86
726.416	385.36
726.859	212.46
727.301	163.06
727.744	164.86
728.187	153.56
728.629	160.56
729.071	161.66
729.514	172.06
729.956	183.26
730.399	197.46
730.841	187.96
731.283	184.66
731.726	179.46
732.168	172.06
732.61	176.96
733.053	194.76
733.495	209.76
733.937	235.86
734.379	275.06
734.821	292.86
735.263	364.56
735.705	554.36
736.148	1042.36
736.59	1793.46
737.032	2245.16
737.474	1854.36
737.916	593.26
738.357	298.46
738.799	228.36
739.241	206.16
739.683	194.26
740.125	204.56
740.567	206.76
741.008	227.36
741.45	227.96
741.892	222.66
742.334	252.46
742.775	268.66
743.217	261.06
743.658	192.46
744.1	178.86
744.542	186.06
744.983	234.76
745.425	272.16
745.866	266.26
746.307	206.96
746.749	193.26
747.19	219.46
747.632	310.16
748.073	574.86
748.514	1252.06
748.956	2019.46
749.397	2548.76
749.838	2122.76
750.279	2195.76
750.72	1123.06
751.162	397.66
751.603	228.46
752.044	172.36
752.485	150.16
752.926	142.26
753.367	137.76
753.808	133.46
754.249	126.46
754.69	127.16
755.131	126.96
755.572	121.06
756.013	122.06
756.453	123.56
756.894	123.96
757.335	123.06
757.776	125.86
758.216	126.06
758.657	132.36
759.098	133.76
759.538	148.36
759.979	180.46
760.42	252.66
760.86	461.26
761.301	1198.16
761.741	3024.16
762.182	4799.26
762.622	3442.46
763.063	970.26
763.503	384.26
763.943	223.46
764.384	186.96
764.824	162.56
765.264	154.96
765.705	140.16
766.145	115.06
766.585	116.66
767.025	111.66
767.465	108.26
767.906	112.36
768.346	131.66
768.786	132.26
769.226	142.56
769.666	197.76
770.106	392.96
770.546	1009.86
770.986	1891.86
771.426	1770.56
771.866	574.86
772.306	229.86
772.745	138.56
773.185	112.36
773.625	108.46
774.065	100.46
774.505	111.86
774.944	147.66
775.384	268.16
775.824	489.66
776.263	502.16
776.703	223.56
777.142	116.16
777.582	91.66
778.021	81.96
778.461	82.56
778.9	82.06
779.34	82.46
779.779	71.86
780.219	65.16
780.658	62.06
781.097	73.36
781.537	66.86
781.976	64.26
782.415	69.06
782.855	63.26
783.294	63.26
783.733	71.56
784.172	75.96
784.611	62.46
785.05	72.26
785.489	72.56
785.928	80.56
786.367	84.26
786.806	74.36
787.245	88.26
787.684	87.96
788.123	95.36
788.562	87.96
789.001	83.46
789.44	77.56
789.879	78.76
790.317	72.86
790.756	87.96
791.195	84.16
791.634	99.26
792.072	132.66
792.511	238.36
792.95	654.16
793.388	1509.66
793.827	1450.66
794.265	485.76
794.704	197.76
795.142	127.36
795.581	107.36
796.019	96.26
796.458	87.46
796.896	82.06
797.334	93.86
797.773	97.16
798.211	145.96
798.649	284.66
799.087	694.36
799.526	1119.76
799.964	1430.46
800.402	1518.86
800.84	562.06
801.278	215.46
801.716	136.86
802.154	109.76
802.592	94.96
803.03	101.36
803.468	83.26
803.906	96.06
804.344	100.96
804.782	97.36
805.22	88.86
805.658	91.36
806.096	103.16
806.533	110.96
806.971	117.66
807.409	145.56
807.847	212.26
808.284	442.86
808.722	1267.96
809.16	2407.46
809.597	2194.06
810.035	3855.76
810.472	4453.06
810.91	1605.76
811.347	589.06
811.785	300.46
812.222	186.06
812.66	144.86
813.097	117.86
813.535	100.16
813.972	93.36
814.409	83.36
814.846	67.26
815.284	76.96
815.721	65.36
816.158	70.76
816.595	75.96
817.032	117.76
817.47	145.36
817.907	106.96
818.344	69.16
818.781	65.56
819.218	63.16
819.655	91.46
820.092	151.66
820.529	190.16
820.966	145.46
821.403	95.36
821.839	71.56
822.276	72.46
822.713	89.46
823.15	101.26
823.587	90.46
824.023	102.96
824.46	193.06
824.897	607.86
825.333	988.66
825.77	434.16
826.206	162.26
826.643	96.16
827.08	70.36
827.516	58.96
827.953	54.06
828.389	52.26
828.825	46.86
829.262	43.06
829.698	37.96
830.135	46.96
830.571	42.16
831.007	40.46
831.443	41.06
831.88	35.56
832.316	35.66
832.752	44.26
833.188	43.26
833.624	37.96
834.06	42.56
834.497	44.66
834.933	44.86
835.369	49.86
835.805	42.56
836.241	52.76
836.677	47.16
837.112	57.76
837.548	67.66
837.984	95.76
838.42	137.56
838.856	326.16
839.292	1053.86
839.727	1707.56
840.163	790.06
840.599	633.86
841.034	1428.16
841.47	1623.46
841.906	581.46
842.341	237.76
842.777	139.26
843.212	155.46
843.648	150.06
844.083	78.66
844.519	57.76
844.954	51.66
845.39	35.86
845.825	38.06
846.261	37.36
846.696	35.56
847.131	32.96
847.566	43.66
848.002	33.46
848.437	29.56
848.872	36.96
849.307	34.76
849.742	56.86
850.177	111.66
850.613	381.76
851.048	639.76
851.483	280.66
851.918	107.46
852.353	58.16
852.788	32.36
853.223	33.76
853.657	35.86
854.092	33.36
854.527	22.76
854.962	27.46
855.397	28.76
855.832	35.46
856.266	24.16
856.701	22.46
857.136	20.16
857.57	26.36
858.005	37.26
858.44	50.36
858.874	31.76
859.309	36.36
859.743	19.36
860.178	28.56
860.612	28.56
861.047	38.46
861.481	52.26
861.915	55.86
862.35	34.86
862.784	21.96
863.218	33.66
863.653	19.96
864.087	29.06
864.521	39.66
864.955	44.36
865.39	103.56
865.824	129.36
866.258	86.16
866.692	141.96
867.126	166.66
867.56	89.56
867.994	43.76
868.428	22.96
868.862	33.26
869.296	43.96
869.73	46.06
870.164	43.46
870.598	31.86
871.031	23.56
871.465	24.56
871.899	23.46
872.333	16.06
872.766	15.96
873.2	13.76
873.634	15.46
874.067	16.16
874.501	12.96
874.935	24.36
875.368	20.36
875.802	19.16
876.235	11.36
876.669	11.46
877.102	13.56
877.535	9.76
877.969	16.26
878.402	15.36
878.836	10.96
879.269	17.86
879.702	16.66
880.135	10.06
880.569	11.16
881.002	18.76
881.435	10.86
881.868	8.66
882.301	15.66
882.734	11.56
883.167	11.76
883.601	15.76
884.034	13.16
884.467	8.06
884.899	9.96
885.332	13.66
885.765	4.66
886.198	8.66
886.631	13.16
887.064	6.26
887.497	13.26
887.929	15.96
888.362	6.56
888.795	5.76
889.228	9.56
889.66	14.26
890.093	8.86
890.526	10.36
890.958	9.06
891.391	8.86
891.823	14.96
892.256	6.06
892.688	10.16
893.121	13.46
893.553	10.06
893.985	19.16
894.418	17.46
894.85	9.96
895.282	8.96
895.715	5.36
896.147	9.16
896.579	8.46
897.011	5.46
897.444	8.56
897.876	5.86
898.308	9.86
898.74	12.56
899.172	4.96
899.604	14.76
900.036	15.96
900.468	11.06
900.9	8.26
901.332	7.96
901.764	4.36
902.196	8.06
902.628	10.76
903.06	12.66
903.491	19.36
903.923	14.06
904.355	10.46
904.787	18.46
905.218	16.46
905.65	11.76
906.082	5.36
906.513	3.56
906.945	12.56
907.376	6.46
907.808	10.66
908.239	12.76
908.671	12.26
909.102	9.66
909.534	10.96
909.965	30.66
910.397	60.06
910.828	228.96
911.259	362.26
911.691	164.46
912.122	75.56
912.553	32.26
912.984	17.06
913.415	13.86
913.847	17.36
914.278	7.26
914.709	8.76
915.14	9.26
915.571	9.66
916.002	10.16
916.433	17.16
916.864	8.86
917.295	5.46
917.726	14.46
918.157	11.76
918.587	25.16
919.018	18.26
919.449	19.86
919.88	12.66
920.311	21.26
920.741	28.16
921.172	113.96
921.603	110.86
922.033	47.76
922.464	30.36
922.895	11.76
923.325	10.76
923.756	12.36
924.186	13.86
924.617	8.86
925.047	15.46
925.478	15.06
925.908	13.66
926.338	4.46
926.769	9.16
927.199	11.46
927.629	4.56
928.06	7.76
928.49	6.56
928.92	7.06
929.35	5.36
929.78	6.86
930.21	0.36
930.641	5.06
931.071	6.16
931.501	-2.84
931.931	2.46
932.361	7.26
932.791	0.66
933.221	-2.64
933.651	2.66
934.08	1.36
934.51	24.16
934.94	3.26
935.37	8.26
935.8	8.36
936.229	4.56
936.659	1.96
937.089	2.86
937.519	12.86
937.948	22.26
938.378	9.56
938.807	-0.84
939.237	3.96
939.666	6.86
940.096	-6.94
940.525	4.66
940.955	-1.04
941.384	2.16
941.814	-7.34
942.243	-4.64
942.672	4.26
943.102	-6.94
943.531	-5.74
943.96	-2.44
944.39	4.56
944.819	-1.34
945.248	0.96
945.677	0.76
946.106	2.46
946.535	4.86
946.964	-2.24
947.393	-0.14
947.822	-6.14
948.251	-13.84
948.68	-3.94
949.109	3.26
949.538	-1.54
949.967	-2.04
950.396	0.06
950.825	-1.64
951.254	0.96
951.682	-11.04
952.111	-0.04
952.54	4.16
952.969	-3.34
953.397	-6.24
953.826	-3.54
954.254	-8.74
954.683	-1.24
955.112	-0.64
955.54	-9.44
955.969	-0.14
956.397	-3.14
956.826	-0.44
957.254	2.06
957.682	0.46
958.111	3.36
958.539	-2.94
958.967	0.46
959.396	-5.44
959.824	-1.14
960.252	0.96
960.68	-13.04
961.109	-5.94
961.537	-5.44
961.965	-2.84
962.393	-5.44
962.821	-9.14
963.249	-2.14
963.677	-1.84
964.105	-2.34
964.533	30.46
964.961	25.46
965.389	13.96
965.817	7.46
966.245	1.76
966.672	2.96
967.1	-9.54
967.528	0.66
967.956	-6.44
968.383	-1.94
968.811	-3.34
969.239	-3.34
969.666	-8.84
970.094	-4.64
970.522	-1.24
970.949	-5.64
971.377	-8.64
971.804	-3.54
972.232	-2.34
972.659	-2.74
973.087	-7.94
973.514	-6.24
973.941	-9.54
974.369	1.96
974.796	-1.04
975.223	-1.54
975.651	-2.14
976.078	4.66
976.505	-2.64
976.932	3.86
977.359	5.16
977.786	5.76
978.214	-1.74
978.641	-8.44
979.068	-6.14
979.495	-5.84
979.922	-2.54
980.349	-4.34
980.776	2.36
981.202	-0.64
981.629	2.16
982.056	0.26
982.483	-3.84
982.91	-0.14
983.337	-9.14
983.763	-1.04
984.19	-3.74
984.617	-1.94
985.043	-10.54
985.47	-6.54
985.897	-7.34
986.323	-7.64
986.75	5.76
987.176	-2.74
987.603	0.56
988.029	-2.04
988.456	-3.34
988.882	-1.94
989.308	-8.04
989.735	-5.04
990.161	-2.84
990.587	-4.24
991.014	-1.44
991.44	4.06
991.866	-3.74
992.292	-3.34
992.719	-5.44
993.145	-0.14
993.571	-8.44
993.997	-6.74
994.423	-2.24
994.849	-7.44
995.275	0.76
995.701	-1.24
996.127	-1.24
996.553	3.46
996.979	-5.14
997.405	-3.24
997.83	-5.24
998.256	-3.54
998.682	-12.34
999.108	-10.64
999.534	-2.34
999.959	-7.24
1000.385	-8.14
1000.811	-2.84
1001.236	-7.14
1001.662	-5.44
1002.087	-11.24
1002.513	0.66
1002.938	-1.24
1003.364	-10.44
1003.789	-7.54
1004.215	-0.84
1004.64	-3.44
1005.066	-1.74
1005.491	-2.24
1005.916	-2.14
1006.342	-6.64
1006.767	-10.04
1007.192	0.16
1007.617	-5.04
1008.042	-10.24
1008.468	-6.44
1008.893	-4.54
1009.318	-3.94
1009.743	-1.54
1010.168	4.56
1010.593	1.26
1011.018	-7.44
1011.443	-2.84
1011.868	5.76
1012.293	-1.04
1012.718	-6.94
1013.143	1.06
1013.567	3.86
1013.992	-3.64
1014.417	-8.34
1014.842	7.26
1015.267	-3.74
1015.691	-7.14
1016.116	2.76
1016.541	-4.14
1016.965	3.16
1017.39	-3.54
1017.814	-3.24
1018.239	-3.84
1018.663	-10.54
1019.088	-15.14
1019.512	-1.14
1019.937	-0.44
1020.361	-4.74
1020.785	-9.04
1021.21	-1.34
1021.634	2.86
1022.058	-3.24
1022.483	4.16
1022.907	0.76
1023.331	0.66
1023.755	-3.44
1024.179	-2.64
1024.604	-3.74
1025.028	-9.94
1025.452	-7.34
1025.876	-1.24
1026.3	-1.34
1026.724	-11.24
1027.148	-7.24
1027.572	-8.64
1027.996	-6.64
1028.42	-4.74
1028.843	-5.14
1029.267	-6.34
1029.691	0.16
1030.115	-1.24
1030.539	-3.74
1030.962	-3.04
1031.386	-4.24
1031.81	-2.44
1032.233	2.26
1032.657	-4.64
1033.08	4.86
1033.504	-2.94
1033.927	-4.54
1034.351	-1.44
1034.774	-4.84
1035.198	2.16
1035.621	-3.54
1036.045	-3.04
1036.468	2.96
1036.891	-13.24
1037.315	-16.24
1037.738	-9.74
1038.161	-1.84
1038.584	-5.54
1039.008	-0.14
1039.431	-3.44
1039.854	-4.34
1040.277	-9.34
1040.7	-10.44
1041.123	-2.64
1041.546	-7.74
1041.969	-3.74
1042.392	-6.04
1042.815	1.96
1043.238	2.86
1043.661	1.66
1044.084	-11.94
1044.507	-1.94
1044.93	-6.64
1045.352	-7.94
1045.775	-10.04
1046.198	-5.94
1046.621	-5.64
1047.043	1.16
1047.466	6.36
1047.889	1.26
1048.311	-5.84
1048.734	0.16
1049.156	0.56
1049.579	-7.54
1050.001	-5.14
1050.424	-0.64
1050.846	-2.34
1051.269	-4.94
1051.691	-4.24
1052.113	-7.04
1052.536	2.26
1052.958	-2.94
1053.38	-4.94
1053.802	-9.44
1054.225	2.56
1054.647	-14.64
1055.069	-4.84
1055.491	1.36
1055.913	-6.94
1056.335	-2.14
1056.757	-6.24
1057.179	-6.74
1057.601	-1.44
1058.023	-2.94
1058.445	-6.64
1058.867	-10.14
1059.289	-7.24
1059.711	-4.34
1060.133	2.36
1060.555	-2.04
1060.976	-10.44
1061.398	-7.64
1061.82	-8.74
1062.241	-9.14
1062.663	-9.24
1063.085	-5.34
1063.506	-0.04
1063.928	-5.14
1064.35	2.46
1064.771	-12.84
1065.193	-2.84
1065.614	-6.74
1066.035	1.06
1066.457	-0.44
1066.878	-4.44
1067.3	-7.94
1067.721	-5.14
1068.142	-9.44
1068.564	-4.54
1068.985	-3.84
1069.406	-3.84
1069.827	-3.64
1070.248	-1.64
1070.67	2.46
1071.091	-7.14
1071.512	-8.34
1071.933	-9.84
1072.354	-5.54
1072.775	-6.34
1073.196	-8.84
1073.617	-7.24
1074.038	-7.44
1074.459	-4.04
1074.88	-4.64
1075.3	-5.04
1075.721	-10.34
1076.142	2.16
1076.563	-4.24
1076.983	-13.44
1077.404	-10.24
1077.825	-12.24
1078.246	-4.54
1078.666	-12.84
1079.087	-6.34
1079.507	-1.74
1079.928	-8.84
1080.348	-2.64
1080.769	-6.14
1081.189	4.96
1081.61	3.76
1082.03	-3.24
1082.451	-15.04
1082.871	-7.34
1083.291	-4.54
1083.711	-4.54
1084.132	-4.04
1084.552	-3.24
1084.972	-5.44
1085.392	-12.74
1085.813	-9.54
1086.233	-5.84
1086.653	-5.44
1087.073	-2.24
1087.493	-7.14
1087.913	-6.94
1088.333	-7.34
1088.753	-2.44
1089.173	2.76
1089.593	-7.34
1090.013	-1.94
1090.433	-2.04
1090.852	-6.84
1091.272	-2.34
1091.692	1.06
1092.112	-9.14
1092.531	-7.94
1092.951	-11.64
1093.371	-0.34
1093.79	-1.24
1094.21	-5.54
1094.63	-6.74
1095.049	0.86
1095.469	-0.84
1095.888	-0.54
1096.308	-1.44
1096.727	3.66
1097.146	-8.84
1097.566	0.16
1097.985	-7.54
1098.405	-1.54
1098.824	-7.34
1099.243	-3.14
1099.662	-9.64
1100.082	-5.14
1100.501	-2.54
1100.92	-5.64
1101.339	-3.74
1101.758	-5.44
