Data from 20171114-ORNL-Ar_H_NY_Subt18_08-04-07-522.txt Node
Date: Tue Nov 14 08:04:07 EST 2017
User: Ender
Spectrometer: HR+D1039
Trigger mode: 0
Integration Time (sec): 2.730000E-2
Scans to average: 10
Electric dark correction enabled: true
Nonlinearity correction enabled: false
Boxcar width: 0
XAxis mode: Wavelengths
Number of Pixels in Spectrum: 2048
>>>>>Begin Spectral Data<<<<<
187.836	-7.03
188.309	-7.03
188.782	-7.03
189.255	-1.83
189.728	-3.83
190.201	4.67
190.674	1.67
191.147	1.17
191.619	-3.93
192.092	-2.03
192.565	3.27
193.038	-0.63
193.511	1.27
193.984	4.37
194.456	5.67
194.929	-1.33
195.402	-3.53
195.874	1.97
196.347	1.47
196.82	-2.93
197.292	6.87
197.765	2.77
198.237	-6.53
198.71	3.67
199.182	6.37
199.655	5.77
200.127	2.27
200.6	1.17
201.072	-7.43
201.544	-4.53
202.017	-0.23
202.489	1.17
202.961	-3.03
203.433	-1.73
203.906	-3.13
204.378	-5.53
204.85	-3.43
205.322	-9.23
205.794	-3.43
206.266	-1.83
206.739	-6.73
207.211	1.47
207.683	-9.83
208.155	-4.73
208.627	-6.63
209.099	-3.23
209.57	-6.53
210.042	-3.53
210.514	-1.43
210.986	0.67
211.458	-14.03
211.93	-8.23
212.402	3.97
212.873	-10.23
213.345	-5.63
213.817	-8.03
214.288	-6.03
214.76	-7.93
215.232	-4.03
215.703	-1.53
216.175	-4.73
216.646	-3.93
217.118	-3.23
217.589	-4.63
218.061	-1.63
218.532	-2.23
219.004	0.77
219.475	-4.13
219.946	-2.73
220.418	-7.93
220.889	8.07
221.36	4.57
221.832	1.87
222.303	-12.93
222.774	-5.43
223.245	-9.03
223.717	-9.73
224.188	-1.03
224.659	-5.53
225.13	-7.13
225.601	-5.63
226.072	-0.13
226.543	-3.23
227.014	-1.03
227.485	-1.53
227.956	-10.53
228.427	-5.23
228.898	-0.53
229.369	-3.93
229.839	2.17
230.31	-2.13
230.781	0.57
231.252	-0.83
231.722	-1.63
232.193	-4.53
232.664	1.77
233.135	1.37
233.605	2.97
234.076	-5.23
234.546	-2.13
235.017	1.37
235.487	-1.63
235.958	-6.93
236.428	-2.33
236.899	2.57
237.369	3.97
237.84	-5.63
238.31	2.07
238.78	3.67
239.251	-0.23
239.721	-1.93
240.191	1.07
240.662	-4.43
241.132	-1.93
241.602	-1.53
242.072	-1.23
242.542	4.87
243.013	-0.03
243.483	2.97
243.953	0.17
244.423	0.67
244.893	-8.83
245.363	-4.43
245.833	2.37
246.303	-3.03
246.773	3.17
247.243	3.77
247.712	3.67
248.182	11.57
248.652	6.87
249.122	-5.23
249.592	7.37
250.061	16.07
250.531	26.07
251.001	15.97
251.471	16.47
251.94	13.57
252.41	5.67
252.879	-0.93
253.349	16.37
253.818	9.07
254.288	4.47
254.757	-0.43
255.227	0.07
255.696	2.37
256.166	9.57
256.635	2.87
257.105	5.27
257.574	3.77
258.043	5.97
258.513	8.47
258.982	14.47
259.451	4.47
259.92	8.67
260.389	6.47
260.859	11.87
261.328	8.67
261.797	13.17
262.266	9.17
262.735	6.27
263.204	2.27
263.673	-6.23
264.142	3.77
264.611	-2.03
265.08	5.57
265.549	0.17
266.018	4.87
266.487	-5.03
266.955	-3.93
267.424	-3.63
267.893	10.27
268.362	-3.03
268.83	0.87
269.299	9.37
269.768	6.37
270.236	3.87
270.705	1.07
271.174	3.97
271.642	7.27
272.111	8.97
272.579	15.67
273.048	14.47
273.516	19.97
273.985	20.67
274.453	17.57
274.922	18.37
275.39	9.77
275.858	-4.03
276.327	4.77
276.795	18.57
277.263	9.77
277.731	18.37
278.2	40.77
278.668	34.97
279.136	35.87
279.604	13.97
280.072	9.27
280.54	13.87
281.008	11.17
281.477	12.97
281.945	8.57
282.413	13.77
282.881	17.07
283.348	5.17
283.816	11.67
284.284	9.37
284.752	13.07
285.22	4.87
285.688	7.17
286.156	15.57
286.623	33.27
287.091	40.07
287.559	20.17
288.026	11.77
288.494	15.97
288.962	-2.73
289.429	3.87
289.897	10.87
290.364	8.87
290.832	11.47
291.3	3.17
291.767	15.77
292.234	13.37
292.702	8.87
293.169	13.97
293.637	22.17
294.104	8.87
294.571	1.77
295.039	8.57
295.506	10.17
295.973	21.27
296.44	11.07
296.908	13.07
297.375	10.17
297.842	14.57
298.309	15.17
298.776	10.97
299.243	15.37
299.71	6.17
300.177	16.17
300.644	19.17
301.111	15.47
301.578	14.87
302.045	7.67
302.512	19.77
302.979	23.07
303.446	16.27
303.913	10.87
304.379	11.67
304.846	20.47
305.313	17.97
305.78	15.77
306.246	19.47
306.713	20.97
307.18	21.07
307.646	18.37
308.113	23.07
308.579	13.57
309.046	21.67
309.512	22.87
309.979	9.47
310.445	19.87
310.912	23.87
311.378	29.67
311.845	31.27
312.311	22.77
312.777	27.97
313.244	27.27
313.71	32.27
314.176	22.37
314.642	22.37
315.109	17.77
315.575	32.47
316.041	28.57
316.507	22.17
316.973	26.17
317.439	27.97
317.905	32.67
318.371	28.07
318.837	24.87
319.303	24.47
319.769	24.57
320.235	30.57
320.701	28.67
321.167	30.07
321.633	26.67
322.099	26.57
322.564	37.57
323.03	33.87
323.496	28.27
323.962	37.07
324.427	29.47
324.893	36.87
325.359	28.47
325.824	29.27
326.29	31.17
326.755	21.37
327.221	28.57
327.686	25.77
328.152	35.67
328.617	31.37
329.083	37.67
329.548	41.37
330.014	33.27
330.479	30.07
330.944	38.17
331.41	35.57
331.875	37.37
332.34	32.47
332.805	30.47
333.271	33.27
333.736	33.17
334.201	41.57
334.666	45.37
335.131	48.27
335.596	40.77
336.061	41.97
336.526	36.27
336.991	36.57
337.456	47.47
337.921	39.17
338.386	37.27
338.851	32.67
339.316	36.17
339.781	36.57
340.246	44.07
340.711	42.67
341.175	36.87
341.64	33.47
342.105	43.97
342.569	44.17
343.034	47.17
343.499	46.07
343.963	43.77
344.428	53.57
344.893	48.77
345.357	47.67
345.822	48.77
346.286	54.97
346.751	56.27
347.215	54.97
347.679	56.27
348.144	70.17
348.608	68.17
349.073	56.17
349.537	59.77
350.001	70.67
350.465	76.87
350.93	60.47
351.394	63.07
351.858	58.47
352.322	70.17
352.786	66.57
353.25	78.27
353.715	88.77
354.179	74.47
354.643	91.97
355.107	96.27
355.571	87.27
356.035	81.67
356.498	94.27
356.962	94.77
357.426	100.97
357.89	85.57
358.354	71.77
358.818	67.17
359.281	68.37
359.745	68.37
360.209	70.87
360.673	61.37
361.136	64.47
361.6	74.57
362.064	71.37
362.527	70.37
362.991	78.17
363.454	66.77
363.918	63.07
364.381	58.67
364.845	74.07
365.308	74.07
365.772	72.57
366.235	73.57
366.698	69.77
367.162	72.47
367.625	75.37
368.088	78.17
368.552	71.37
369.015	68.67
369.478	84.57
369.941	83.77
370.404	78.47
370.867	90.57
371.331	86.57
371.794	99.07
372.257	98.27
372.72	100.47
373.183	92.27
373.646	87.07
374.109	89.87
374.572	93.57
375.035	90.77
375.497	94.07
375.96	93.47
376.423	85.17
376.886	86.17
377.349	95.97
377.811	85.87
378.274	87.97
378.737	88.77
379.199	105.67
379.662	92.97
380.125	100.57
380.587	100.57
381.05	100.87
381.512	108.37
381.975	110.37
382.437	102.27
382.9	104.07
383.362	108.07
383.825	119.27
384.287	125.57
384.75	119.37
385.212	124.17
385.674	124.27
386.136	114.47
386.599	104.87
387.061	110.37
387.523	109.07
387.985	117.57
388.447	128.47
388.91	123.27
389.372	129.47
389.834	133.07
390.296	122.57
390.758	138.57
391.22	143.87
391.682	175.87
392.144	246.37
392.606	198.67
393.068	141.67
393.529	141.77
393.991	133.77
394.453	127.37
394.915	135.87
395.377	174.37
395.838	179.87
396.3	132.47
396.762	126.57
397.224	112.47
397.685	119.87
398.147	110.47
398.608	110.37
399.07	111.07
399.531	114.07
399.993	119.57
400.454	136.27
400.916	125.27
401.377	125.17
401.839	127.97
402.3	127.27
402.762	143.87
403.223	157.97
403.684	151.07
404.145	142.37
404.607	139.37
405.068	141.47
405.529	150.17
405.99	159.67
406.451	151.47
406.913	153.37
407.374	148.77
407.835	142.27
408.296	148.17
408.757	148.17
409.218	157.67
409.679	151.07
410.14	158.17
410.601	160.57
411.062	164.77
411.522	168.87
411.983	166.77
412.444	152.47
412.905	161.47
413.366	164.07
413.826	167.37
414.287	190.57
414.748	237.97
415.208	224.57
415.669	189.57
416.13	179.17
416.59	177.77
417.051	190.57
417.511	194.97
417.972	214.97
418.432	225.17
418.893	261.87
419.353	227.67
419.814	174.57
420.274	165.97
420.734	166.17
421.195	178.57
421.655	166.97
422.115	173.07
422.576	171.87
423.036	176.87
423.496	177.77
423.956	192.17
424.416	206.47
424.876	239.57
425.336	227.77
425.797	224.47
426.257	224.67
426.717	211.97
427.177	202.27
427.637	200.77
428.097	208.47
428.556	212.97
429.016	239.67
429.476	230.87
429.936	237.47
430.396	239.57
430.856	257.27
431.315	276.47
431.775	301.87
432.235	331.37
432.694	308.17
433.154	307.37
433.614	330.17
434.073	286.57
434.533	250.77
434.993	238.67
435.452	242.57
435.912	249.17
436.371	246.97
436.83	244.38
437.29	227.37
437.749	212.87
438.209	215.27
438.668	241.57
439.127	245.07
439.587	223.77
440.046	214.27
440.505	227.67
440.964	224.57
441.424	261.17
441.883	255.57
442.342	223.27
442.801	194.47
443.26	189.57
443.719	197.47
444.178	194.47
444.637	193.07
445.096	195.17
445.555	193.47
446.014	198.07
446.473	197.97
446.932	200.87
447.391	197.67
447.849	202.87
448.308	192.77
448.767	191.27
449.226	208.27
449.685	204.57
450.143	220.87
450.602	207.17
451.061	203.47
451.519	211.97
451.978	205.27
452.436	204.47
452.895	203.77
453.353	221.97
453.812	204.47
454.27	211.47
454.729	216.38
455.187	209.27
455.646	213.57
456.104	214.67
456.562	222.97
457.021	233.17
457.479	226.27
457.937	236.27
458.395	232.57
458.854	207.57
459.312	214.57
459.77	227.77
460.228	212.87
460.686	212.07
461.144	220.77
461.602	213.57
462.06	213.27
462.518	229.97
462.976	221.77
463.434	228.67
463.892	232.17
464.35	233.27
464.808	246.07
465.266	240.27
465.724	234.17
466.181	241.17
466.639	240.07
467.097	261.57
467.555	267.37
468.012	261.57
468.47	271.87
468.928	283.27
469.385	296.77
469.843	298.47
470.3	301.88
470.758	305.17
471.215	327.97
471.673	341.87
472.13	348.17
472.588	354.97
473.045	318.07
473.503	327.97
473.96	343.67
474.417	346.17
474.875	376.37
475.332	408.77
475.789	396.67
476.246	404.27
476.704	419.87
477.161	442.07
477.618	444.77
478.075	480.07
478.532	526.77
478.989	584.97
479.446	675.38
479.903	657.77
480.36	708.57
480.817	747.87
481.274	846.97
481.731	928.87
482.188	1008.17
482.645	1141.47
483.102	1229.47
483.558	1351.27
484.015	1403.37
484.472	1386.97
484.929	1339.37
485.385	1291.57
485.842	1248.78
486.299	1195.97
486.755	1113.57
487.212	947.47
487.668	812.37
488.125	749.17
488.582	689.88
489.038	657.97
489.494	623.67
489.951	603.47
490.407	585.17
490.864	570.97
491.32	561.27
491.776	558.27
492.233	557.57
492.689	527.77
493.145	527.57
493.602	525.37
494.058	540.47
494.514	518.77
494.97	552.97
495.426	546.67
495.882	534.67
496.338	527.97
496.794	547.77
497.251	535.37
497.707	547.27
498.163	545.27
498.618	554.77
499.074	554.57
499.53	577.87
499.986	567.47
500.442	556.57
500.898	542.67
501.354	532.37
501.809	548.17
502.265	548.97
502.721	564.47
503.177	569.17
503.632	574.67
504.088	582.07
504.543	609.07
504.999	602.77
505.455	560.97
505.91	549.57
506.366	551.17
506.821	548.47
507.277	539.97
507.732	539.57
508.187	548.57
508.643	551.27
509.098	552.07
509.553	565.97
510.009	575.67
510.464	573.67
510.919	577.67
511.375	594.57
511.83	605.17
512.285	625.47
512.74	646.17
513.195	660.47
513.65	662.57
514.105	661.97
514.56	662.47
515.015	675.27
515.47	704.87
515.925	679.77
516.38	687.77
516.835	688.97
517.29	683.97
517.745	672.38
518.2	663.47
518.655	647.47
519.109	634.88
519.564	626.87
520.019	627.77
520.474	623.17
520.928	619.87
521.383	616.77
521.838	611.07
522.292	610.17
522.747	609.97
523.201	617.87
523.656	594.97
524.11	586.88
524.565	588.27
525.019	590.27
525.474	594.17
525.928	599.38
526.382	590.77
526.837	596.27
527.291	597.07
527.745	597.47
528.2	597.17
528.654	590.27
529.108	587.37
529.562	589.87
530.016	587.97
530.47	590.57
530.925	587.47
531.379	595.17
531.833	605.97
532.287	596.87
532.741	598.27
533.195	606.37
533.649	604.77
534.103	616.57
534.556	607.27
535.01	602.17
535.464	599.67
535.918	613.27
536.372	618.17
536.826	608.07
537.279	588.57
537.733	593.37
538.187	599.37
538.64	603.07
539.094	608.37
539.548	623.37
540.001	612.57
540.455	614.27
540.908	622.77
541.362	617.47
541.815	632.17
542.269	646.57
542.722	641.17
543.175	652.17
543.629	646.37
544.082	662.27
544.536	665.17
544.989	659.47
545.442	671.57
545.895	667.07
546.349	668.38
546.802	661.97
547.255	668.57
547.708	668.77
548.161	688.37
548.614	696.47
549.067	701.67
549.52	691.67
549.973	675.97
550.426	663.87
550.879	665.87
551.332	674.67
551.785	670.27
552.238	677.07
552.691	684.17
553.144	686.87
553.596	696.17
554.049	711.37
554.502	744.97
554.955	770.67
555.407	760.47
555.86	755.17
556.313	729.97
556.765	719.87
557.218	731.97
557.67	736.87
558.123	731.67
558.576	728.57
559.028	734.77
559.48	730.17
559.933	722.07
560.385	703.07
560.838	677.97
561.29	642.57
561.742	653.97
562.195	640.07
562.647	629.07
563.099	648.07
563.551	645.47
564.004	653.87
564.456	640.97
564.908	620.47
565.36	618.97
565.812	605.87
566.264	601.27
566.716	594.38
567.168	580.87
567.62	599.97
568.072	576.77
568.524	569.38
568.976	561.67
569.428	560.17
569.88	551.97
570.332	553.88
570.784	563.57
571.235	555.87
571.687	562.07
572.139	577.37
572.59	582.67
573.042	578.97
573.494	587.47
573.945	576.57
574.397	557.37
574.849	568.17
575.3	558.87
575.752	557.77
576.203	542.57
576.655	558.07
577.106	546.67
577.557	539.38
578.009	544.07
578.46	548.97
578.912	534.87
579.363	532.07
579.814	537.47
580.265	535.27
580.717	527.37
581.168	538.37
581.619	549.07
582.07	553.47
582.521	536.77
582.972	536.97
583.423	545.57
583.875	549.27
584.326	568.87
584.777	600.17
585.227	651.37
585.678	735.87
586.129	800.07
586.58	865.07
587.031	936.47
587.482	1068.37
587.933	1224.47
588.384	1049.97
588.834	779.17
589.285	650.47
589.736	632.97
590.186	633.97
590.637	618.17
591.088	605.77
591.538	589.67
591.989	589.77
592.439	576.97
592.89	580.07
593.34	570.37
593.791	570.77
594.241	561.07
594.692	572.07
595.142	556.87
595.593	558.37
596.043	559.97
596.493	574.47
596.943	569.77
597.394	564.37
597.844	567.57
598.294	576.38
598.744	597.77
599.195	621.47
599.645	654.27
600.095	674.47
600.545	728.37
600.995	768.87
601.445	813.97
601.895	866.27
602.345	903.67
602.795	885.37
603.245	847.87
603.695	809.97
604.145	762.17
604.594	723.97
605.044	673.47
605.494	636.87
605.944	587.37
606.393	587.17
606.843	577.97
607.293	571.57
607.743	569.37
608.192	580.07
608.642	590.37
609.091	600.07
609.541	602.77
609.99	606.27
610.44	599.97
610.889	568.57
611.339	552.87
611.788	534.97
612.238	549.87
612.687	563.77
613.136	570.57
613.586	577.97
614.035	570.47
614.484	583.47
614.933	586.27
615.383	582.87
615.832	576.07
616.281	557.38
616.73	532.37
617.179	513.77
617.628	509.57
618.077	489.47
618.526	484.27
618.975	481.47
619.424	478.47
619.873	481.27
620.322	480.57
620.771	470.67
621.22	464.57
621.669	461.88
622.118	464.37
622.567	448.67
623.015	441.77
623.464	443.87
623.913	443.17
624.361	427.87
624.81	422.67
625.259	423.38
625.707	434.67
626.156	423.77
626.604	437.87
627.053	439.97
627.501	432.87
627.95	437.27
628.398	449.57
628.847	447.27
629.295	440.17
629.744	447.67
630.192	443.17
630.64	436.87
631.089	434.67
631.537	435.07
631.985	444.47
632.433	452.17
632.881	458.17
633.33	492.87
633.778	473.67
634.226	426.88
634.674	436.07
635.122	440.77
635.57	452.77
636.018	475.07
636.466	445.97
636.914	428.97
637.362	438.97
637.81	444.07
638.258	445.27
638.705	445.77
639.153	461.97
639.601	465.57
640.049	490.17
640.497	517.27
640.944	540.07
641.392	489.97
641.84	466.77
642.287	446.67
642.735	438.67
643.182	440.38
643.63	441.27
644.078	438.17
644.525	454.97
644.973	449.27
645.42	458.57
645.867	472.77
646.315	486.38
646.762	506.38
647.21	527.17
647.657	542.37
648.104	569.87
648.551	586.67
648.999	639.17
649.446	690.87
649.893	760.57
650.34	869.27
650.787	1037.07
651.234	1284.67
651.682	1672.78
652.129	2270.97
652.576	3250.88
653.023	4829.88
653.47	6707.77
653.917	8441.07
654.363	9984.08
654.81	11272.17
655.257	10698.98
655.704	6972.48
656.151	4053.47
656.598	2614.88
657.044	1853.27
657.491	1426.47
657.938	1130.57
658.385	954.27
658.831	816.17
659.278	734.87
659.724	653.77
660.171	605.47
660.618	544.77
661.064	522.67
661.511	495.57
661.957	481.27
662.404	469.57
662.85	474.67
663.296	465.87
663.743	433.07
664.189	405.27
664.635	400.67
665.082	398.77
665.528	391.17
665.974	386.47
666.42	384.27
666.867	380.67
667.313	370.27
667.759	357.67
668.205	355.87
668.651	365.27
669.097	367.87
669.543	373.47
669.989	363.17
670.435	337.38
670.881	332.38
671.327	335.17
671.773	353.67
672.219	369.57
672.665	411.37
673.11	439.37
673.556	472.37
674.002	510.57
674.448	500.27
674.893	414.87
675.339	364.07
675.785	333.67
676.23	315.57
676.676	294.97
677.122	284.87
677.567	282.87
678.013	273.17
678.458	274.27
678.904	277.27
679.349	255.07
679.794	264.87
680.24	262.87
680.685	256.47
681.131	255.67
681.576	256.57
682.021	271.57
682.466	256.77
682.912	260.47
683.357	256.97
683.802	273.38
684.247	299.97
684.692	335.87
685.137	370.47
685.583	398.57
686.028	429.87
686.473	394.57
686.918	339.67
687.363	320.17
687.807	288.07
688.252	273.97
688.697	267.57
689.142	253.27
689.587	244.57
690.032	242.87
690.477	252.67
690.921	264.87
691.366	291.17
691.811	295.37
692.255	324.37
692.7	344.17
693.145	360.38
693.589	501.47
694.034	814.47
694.478	1146.17
694.923	1327.57
695.367	1761.67
695.812	910.77
696.256	372.97
696.701	271.77
697.145	255.57
697.59	238.47
698.034	238.47
698.478	242.47
698.922	242.47
699.367	246.47
699.811	246.57
700.255	262.47
700.699	284.67
701.143	314.27
701.588	352.07
702.032	380.87
702.476	375.27
702.92	371.07
703.364	367.77
703.808	466.97
704.252	737.37
704.696	1066.67
705.14	1282.18
705.584	1664.67
706.027	819.27
706.471	396.67
706.915	297.67
707.359	259.27
707.803	233.77
708.246	229.47
708.69	234.67
709.134	232.87
709.577	231.07
710.021	236.87
710.465	229.77
710.908	222.67
711.352	216.07
711.795	238.37
712.239	257.17
712.682	276.77
713.126	303.97
713.569	351.07
714.012	279.97
714.456	241.67
714.899	223.07
715.342	201.17
715.786	196.17
716.229	190.37
716.672	186.97
717.115	182.97
717.558	188.57
718.002	182.27
718.445	187.47
718.888	208.77
719.331	215.17
719.774	231.87
720.217	231.67
720.66	215.87
721.103	195.37
721.546	188.67
721.989	187.07
722.432	169.77
722.874	174.27
723.317	169.97
723.76	175.97
724.203	194.67
724.645	232.17
725.088	318.57
725.531	422.87
725.974	482.87
726.416	416.77
726.859	223.67
727.301	188.97
727.744	176.27
728.187	176.37
728.629	173.07
729.071	175.47
729.514	186.57
729.956	203.77
730.399	210.67
730.841	213.87
731.283	202.38
731.726	196.57
732.168	197.27
732.61	190.17
733.053	211.17
733.495	229.38
733.937	257.27
734.379	293.87
734.821	326.77
735.263	394.17
735.705	592.17
736.148	1127.97
736.59	1910.47
737.032	2358.47
737.474	1932.38
737.916	611.47
738.357	316.87
738.799	238.07
739.241	218.47
739.683	209.97
740.125	218.87
740.567	219.67
741.008	243.07
741.45	237.87
741.892	233.77
742.334	263.67
742.775	271.47
743.217	262.37
743.658	200.57
744.1	184.97
744.542	195.77
744.983	234.17
745.425	263.77
745.866	258.87
746.307	211.07
746.749	208.07
747.19	238.88
747.632	321.27
748.073	611.87
748.514	1334.38
748.956	2135.17
749.397	2680.67
749.838	2233.18
750.279	2305.28
750.72	1157.17
751.162	404.87
751.603	236.57
752.044	187.27
752.485	159.47
752.926	149.07
753.367	148.57
753.808	148.77
754.249	140.77
754.69	138.27
755.131	134.17
755.572	133.07
756.013	130.97
756.453	130.17
756.894	133.27
757.335	138.97
757.776	141.27
758.216	141.37
758.657	146.77
759.098	143.57
759.538	164.87
759.979	196.47
760.42	276.97
760.86	502.77
761.301	1304.78
761.741	3260.88
762.182	5100.27
762.622	3589.28
763.063	1006.67
763.503	413.17
763.943	262.27
764.384	251.07
764.824	306.27
765.264	335.37
765.705	225.97
766.145	159.87
766.585	137.17
767.025	130.97
767.465	130.17
767.906	180.87
768.346	236.37
768.786	255.47
769.226	189.97
769.666	229.17
770.106	433.27
770.546	1109.17
770.986	2025.28
771.426	1861.17
771.866	603.27
772.306	248.67
772.745	156.67
773.185	127.97
773.625	120.27
774.065	121.37
774.505	149.27
774.944	215.77
775.384	472.37
775.824	904.88
776.263	915.87
776.703	382.07
777.142	165.47
777.582	119.47
778.021	102.57
778.461	105.37
778.9	106.37
779.34	100.37
779.779	92.77
780.219	76.57
780.658	76.27
781.097	82.07
781.537	83.77
781.976	77.67
782.415	75.77
782.855	75.87
783.294	80.07
783.733	78.07
784.172	82.47
784.611	75.57
785.05	81.07
785.489	83.77
785.928	93.57
786.367	92.57
786.806	87.77
787.245	98.67
787.684	102.67
788.123	109.37
788.562	102.47
789.001	93.77
789.44	90.37
789.879	86.17
790.317	83.37
790.756	96.37
791.195	92.77
791.634	102.97
792.072	147.77
792.511	260.67
792.95	718.37
793.388	1626.47
793.827	1541.77
794.265	510.17
794.704	206.97
795.142	137.87
795.581	118.57
796.019	103.57
796.458	95.77
796.896	89.67
797.334	94.37
797.773	119.67
798.211	162.97
798.649	307.57
799.087	751.07
799.526	1205.17
799.964	1503.37
800.402	1589.97
800.84	572.27
801.278	220.27
801.716	142.17
802.154	115.97
802.592	107.07
803.03	101.67
803.468	96.07
803.906	107.37
804.344	106.77
804.782	110.47
805.22	97.87
805.658	92.97
806.096	108.27
806.533	116.07
806.971	129.87
807.409	158.27
807.847	222.67
808.284	468.47
808.722	1387.38
809.16	2551.48
809.597	2346.48
810.035	4163.38
810.472	4691.48
810.91	1660.07
811.347	601.88
811.785	308.38
812.222	193.07
812.66	146.87
813.097	122.67
813.535	107.47
813.972	92.97
814.409	89.17
814.846	77.97
815.284	90.57
815.721	69.77
816.158	72.77
816.595	84.77
817.032	135.57
817.47	150.07
817.907	132.97
818.344	112.57
818.781	92.17
819.218	73.77
819.655	94.87
820.092	146.27
820.529	174.57
820.966	131.87
821.403	98.67
821.839	85.67
822.276	83.37
822.713	90.27
823.15	99.47
823.587	83.77
824.023	107.77
824.46	209.67
824.897	663.47
825.333	1063.88
825.77	442.57
826.206	169.17
826.643	103.17
827.08	74.47
827.516	64.07
827.953	58.37
828.389	64.67
828.825	49.17
829.262	48.87
829.698	48.67
830.135	50.87
830.571	54.87
831.007	51.57
831.443	47.57
831.88	53.07
832.316	47.47
832.752	47.57
833.188	45.57
833.624	43.57
834.06	48.07
834.497	54.77
834.933	55.97
835.369	56.07
835.805	47.77
836.241	52.17
836.677	61.07
837.112	67.17
837.548	78.67
837.984	106.07
838.42	139.77
838.856	352.67
839.292	1122.57
839.727	1829.67
840.163	838.07
840.599	687.77
841.034	1554.47
841.47	1713.17
841.906	606.77
842.341	256.67
842.777	169.07
843.212	234.77
843.648	243.57
844.083	110.77
844.519	65.57
844.954	57.07
845.39	45.57
845.825	40.27
846.261	47.47
846.696	41.17
847.131	41.47
847.566	44.07
848.002	44.97
848.437	40.47
848.872	46.87
849.307	51.67
849.742	56.07
850.177	123.97
850.613	413.27
851.048	687.77
851.483	298.57
851.918	115.67
852.353	62.47
852.788	45.97
853.223	37.47
853.657	37.27
854.092	32.77
854.527	35.27
854.962	26.87
855.397	34.47
855.832	30.97
856.266	31.97
856.701	32.67
857.136	24.57
857.57	30.77
858.005	43.87
858.44	46.37
858.874	32.37
859.309	38.47
859.743	26.87
860.178	38.17
860.612	28.97
861.047	38.07
861.481	51.87
861.915	59.57
862.35	35.87
862.784	24.57
863.218	32.17
863.653	26.57
864.087	34.87
864.521	43.27
864.955	52.67
865.39	115.57
865.824	130.77
866.258	84.37
866.692	127.47
867.126	140.57
867.56	86.17
867.994	39.37
868.428	29.87
868.862	30.67
869.296	44.27
869.73	46.17
870.164	45.97
870.598	31.07
871.031	27.87
871.465	24.47
871.899	24.67
872.333	15.47
872.766	20.07
873.2	13.47
873.634	21.97
874.067	18.47
874.501	19.27
874.935	30.17
875.368	22.67
875.802	21.47
876.235	12.27
876.669	18.77
877.102	11.57
877.535	25.07
877.969	12.77
878.402	17.17
878.836	11.47
879.269	17.47
879.702	17.77
880.135	16.17
880.569	15.17
881.002	18.87
881.435	18.97
881.868	9.87
882.301	16.57
882.734	11.57
883.167	20.77
883.601	11.57
884.034	13.07
884.467	5.57
884.899	15.07
885.332	12.07
885.765	10.27
886.198	15.47
886.631	20.47
887.064	14.37
887.497	20.47
887.929	19.87
888.362	15.47
888.795	8.47
889.228	14.37
889.66	17.67
890.093	13.57
890.526	9.87
890.958	11.97
891.391	11.37
891.823	14.37
892.256	8.87
892.688	10.77
893.121	8.17
893.553	9.47
893.985	22.67
894.418	18.97
894.85	14.87
895.282	17.17
895.715	15.07
896.147	16.87
896.579	12.37
897.011	4.17
897.444	11.87
897.876	12.17
898.308	14.07
898.74	16.47
899.172	15.77
899.604	17.37
900.036	17.07
900.468	10.07
900.9	15.47
901.332	11.17
901.764	6.97
902.196	12.77
902.628	12.07
903.06	9.67
903.491	19.07
903.923	18.47
904.355	16.07
904.787	17.57
905.218	13.77
905.65	14.47
906.082	11.97
906.513	6.57
906.945	9.87
907.376	6.07
907.808	18.47
908.239	16.87
908.671	16.87
909.102	18.77
909.534	16.27
909.965	35.77
910.397	68.87
910.828	244.67
911.259	385.97
911.691	169.27
912.122	83.77
912.553	42.57
912.984	23.97
913.415	20.57
913.847	24.67
914.278	11.77
914.709	9.67
915.14	12.87
915.571	13.67
916.002	10.27
916.433	16.77
916.864	12.17
917.295	10.87
917.726	19.07
918.157	9.57
918.587	25.57
919.018	22.97
919.449	16.97
919.88	19.07
920.311	28.67
920.741	35.37
921.172	127.07
921.603	121.17
922.033	50.37
922.464	32.17
922.895	16.57
923.325	10.87
923.756	11.67
924.186	9.97
924.617	17.27
925.047	26.77
925.478	40.37
925.908	30.47
926.338	23.47
926.769	10.77
927.199	16.67
927.629	3.87
928.06	16.17
928.49	8.07
928.92	17.47
929.35	11.57
929.78	7.17
930.21	7.67
930.641	6.07
931.071	4.37
931.501	2.07
931.931	7.77
932.361	10.17
932.791	0.17
933.221	6.57
933.651	7.37
934.08	13.37
934.51	28.47
934.94	12.87
935.37	2.87
935.8	5.87
936.229	5.87
936.659	8.47
937.089	4.77
937.519	5.47
937.948	16.37
938.378	12.27
938.807	3.57
939.237	0.97
939.666	7.77
940.096	-1.93
940.525	-1.33
940.955	3.47
941.384	3.07
941.814	-9.13
942.243	-2.23
942.672	3.57
943.102	-4.53
943.531	7.67
943.96	-3.53
944.39	2.27
944.819	3.87
945.248	5.37
945.677	4.77
946.106	6.77
946.535	2.97
946.964	-3.93
947.393	3.87
947.822	0.97
948.251	-8.13
948.68	4.17
949.109	12.37
949.538	10.07
949.967	2.07
950.396	0.77
950.825	0.07
951.254	-1.13
951.682	-4.03
952.111	9.37
952.54	6.07
952.969	-3.93
953.397	-9.13
953.826	1.67
954.254	-0.43
954.683	-0.83
955.112	-7.53
955.54	-1.93
955.969	7.77
956.397	-0.43
956.826	-2.73
957.254	2.17
957.682	1.37
958.111	2.07
958.539	-4.13
958.967	-3.63
959.396	-3.43
959.824	0.97
960.252	3.77
960.68	-6.33
961.109	-9.13
961.537	-4.43
961.965	-3.23
962.393	-0.53
962.821	-1.83
963.249	-0.63
963.677	2.57
964.105	3.57
964.533	29.57
964.961	31.67
965.389	23.87
965.817	10.17
966.245	3.57
966.672	0.67
967.1	-2.33
967.528	4.47
967.956	-4.83
968.383	-1.23
968.811	-3.83
969.239	-2.83
969.666	-1.33
970.094	0.47
970.522	2.07
970.949	-1.63
971.377	-1.93
971.804	-4.43
972.232	-5.43
972.659	1.47
973.087	-3.03
973.514	-2.33
973.941	-1.83
974.369	-0.43
974.796	-2.73
975.223	3.57
975.651	-1.33
976.078	-2.43
976.505	1.67
976.932	8.27
977.359	9.17
977.786	11.27
978.214	-7.23
978.641	-5.33
979.068	-2.73
979.495	-7.13
979.922	-5.23
980.349	-3.23
980.776	2.47
981.202	-1.73
981.629	1.57
982.056	4.07
982.483	0.57
982.91	-1.73
983.337	-3.93
983.763	-1.13
984.19	-6.13
984.617	-5.23
985.043	-5.73
985.47	-1.33
985.897	-6.93
986.323	-5.33
986.75	6.87
987.176	-3.13
987.603	0.27
988.029	1.67
988.456	-1.63
988.882	4.47
989.308	-1.33
989.735	-7.23
990.161	1.17
990.587	-5.13
991.014	1.47
991.44	8.37
991.866	-2.53
992.292	-4.73
992.719	-4.83
993.145	4.77
993.571	-9.53
993.997	5.37
994.423	-3.33
994.849	-3.23
995.275	-4.53
995.701	1.47
996.127	0.97
996.553	0.47
996.979	-3.23
997.405	0.37
997.83	-3.13
998.256	-6.83
998.682	-2.93
999.108	-7.73
999.534	-0.73
999.959	0.37
1000.385	-6.33
1000.811	-1.83
1001.236	-7.63
1001.662	-3.53
1002.087	-6.93
1002.513	2.37
1002.938	3.07
1003.364	-4.43
1003.789	0.67
1004.215	4.07
1004.64	-2.23
1005.066	3.97
1005.491	-0.43
1005.916	-5.13
1006.342	-9.33
1006.767	-8.93
1007.192	7.27
1007.617	-1.23
1008.042	-1.13
1008.468	-9.73
1008.893	-4.93
1009.318	-0.53
1009.743	-5.73
1010.168	2.67
1010.593	-1.23
1011.018	-9.33
1011.443	0.47
1011.868	-2.33
1012.293	-5.03
1012.718	-6.43
1013.143	1.87
1013.567	3.97
1013.992	-1.33
1014.417	-2.73
1014.842	8.57
1015.267	-6.13
1015.691	-2.73
1016.116	3.47
1016.541	2.07
1016.965	2.17
1017.39	-2.73
1017.814	-0.33
1018.239	-1.33
1018.663	-11.23
1019.088	-10.03
1019.512	-0.23
1019.937	-8.73
1020.361	-3.33
1020.785	-11.23
1021.21	-0.93
1021.634	-2.73
1022.058	2.37
1022.483	4.47
1022.907	0.07
1023.331	-6.53
1023.755	-2.23
1024.179	-1.03
1024.604	-5.33
1025.028	-4.43
1025.452	-4.93
1025.876	-3.63
1026.3	3.47
1026.724	-10.03
1027.148	-6.53
1027.572	-4.73
1027.996	-5.63
1028.42	0.37
1028.843	-3.73
1029.267	-1.13
1029.691	-4.03
1030.115	-2.43
1030.539	-11.33
1030.962	-7.53
1031.386	-2.53
1031.81	0.37
1032.233	-2.93
1032.657	0.27
1033.08	0.47
1033.504	-3.33
1033.927	-5.73
1034.351	-0.93
1034.774	-8.63
1035.198	1.37
1035.621	-1.83
1036.045	-8.33
1036.468	-0.63
1036.891	-8.53
1037.315	-6.23
1037.738	-6.73
1038.161	-0.03
1038.584	-4.93
1039.008	-2.73
1039.431	-3.03
1039.854	0.27
1040.277	-8.93
1040.7	-11.63
1041.123	4.77
1041.546	-7.43
1041.969	-6.23
1042.392	-4.03
1042.815	-1.93
1043.238	3.87
1043.661	1.27
1044.084	-8.83
1044.507	-6.03
1044.93	-8.03
1045.352	-5.23
1045.775	-5.73
1046.198	2.57
1046.621	-0.73
1047.043	-2.43
1047.466	9.37
1047.889	-2.43
1048.311	-1.13
1048.734	-1.93
1049.156	-1.53
1049.579	-4.83
1050.001	0.87
1050.424	-2.93
1050.846	-6.53
1051.269	-9.43
1051.691	-9.53
1052.113	-4.73
1052.536	0.47
1052.958	-3.03
1053.38	-2.73
1053.802	-7.93
1054.225	-0.13
1054.647	-6.43
1055.069	-5.53
1055.491	2.87
1055.913	-8.13
1056.335	-1.63
1056.757	0.07
1057.179	-9.03
1057.601	-3.53
1058.023	-3.33
1058.445	-5.73
1058.867	-1.53
1059.289	-0.53
1059.711	-6.13
1060.133	-0.23
1060.555	-5.83
1060.976	-7.43
1061.398	-6.93
1061.82	-7.13
1062.241	-5.33
1062.663	-2.73
1063.085	-7.13
1063.506	1.07
1063.928	-4.13
1064.35	-0.43
1064.771	-7.13
1065.193	-4.83
1065.614	-4.43
1066.035	3.07
1066.457	-0.53
1066.878	-0.53
1067.3	-9.13
1067.721	-1.43
1068.142	-6.53
1068.564	-3.73
1068.985	-2.43
1069.406	0.07
1069.827	4.77
1070.248	2.17
1070.67	-2.83
1071.091	-3.93
1071.512	-3.43
1071.933	-5.83
1072.354	-5.63
1072.775	-5.73
1073.196	-8.43
1073.617	-3.73
1074.038	-2.13
1074.459	-2.43
1074.88	-2.93
1075.3	1.57
1075.721	-3.53
1076.142	-0.23
1076.563	2.47
1076.983	-9.93
1077.404	-12.03
1077.825	-9.23
1078.246	-5.33
1078.666	-9.63
1079.087	-3.43
1079.507	-3.43
1079.928	-0.73
1080.348	1.07
1080.769	-2.03
1081.189	7.47
1081.61	-4.13
1082.03	-7.03
1082.451	-10.23
1082.871	-4.03
1083.291	-10.43
1083.711	-9.43
1084.132	-7.63
1084.552	-4.03
1084.972	4.57
1085.392	-9.83
1085.813	-12.73
1086.233	-5.43
1086.653	-4.33
1087.073	1.67
1087.493	-5.83
1087.913	-4.83
1088.333	-6.83
1088.753	-3.43
1089.173	-1.93
1089.593	2.37
1090.013	1.17
1090.433	-2.03
1090.852	2.47
1091.272	-6.53
1091.692	-3.43
1092.112	-2.03
1092.531	-9.43
1092.951	-13.33
1093.371	0.87
1093.79	2.67
1094.21	-4.23
1094.63	-1.63
1095.049	-1.33
1095.469	1.07
1095.888	-5.43
1096.308	-1.03
1096.727	0.57
1097.146	-5.03
1097.566	1.47
1097.985	-5.63
1098.405	-5.03
1098.824	-12.03
1099.243	-6.43
1099.662	-5.63
1100.082	-1.73
1100.501	2.07
1100.92	-10.13
1101.339	-4.73
1101.758	-5.13
