Data from 20171114-ORNL-Ar_H_NY_Subt18_08-04-17-076.txt Node
Date: Tue Nov 14 08:04:17 EST 2017
User: Ender
Spectrometer: HR+D1039
Trigger mode: 0
Integration Time (sec): 2.730000E-2
Scans to average: 10
Electric dark correction enabled: true
Nonlinearity correction enabled: false
Boxcar width: 0
XAxis mode: Wavelengths
Number of Pixels in Spectrum: 2048
>>>>>Begin Spectral Data<<<<<
187.836	-0.92
188.309	-0.92
188.782	-0.92
189.255	3.38
189.728	1.98
190.201	1.58
190.674	-1.22
191.147	2.68
191.619	-6.02
192.092	-1.02
192.565	4.18
193.038	3.48
193.511	2.88
193.984	-2.22
194.456	-5.22
194.929	3.08
195.402	-9.72
195.874	3.08
196.347	1.48
196.82	-4.32
197.292	4.78
197.765	1.98
198.237	-2.92
198.71	1.18
199.182	-2.72
199.655	-1.82
200.127	2.58
200.6	-4.12
201.072	-3.62
201.544	-3.82
202.017	2.08
202.489	2.68
202.961	-3.22
203.433	-1.62
203.906	-13.72
204.378	-5.72
204.85	-0.02
205.322	-10.92
205.794	-5.72
206.266	-6.82
206.739	-10.02
207.211	7.18
207.683	-4.72
208.155	-1.62
208.627	-5.32
209.099	-3.72
209.57	-9.52
210.042	-0.62
210.514	-4.62
210.986	0.58
211.458	-8.72
211.93	-3.22
212.402	1.28
212.873	-6.92
213.345	-6.42
213.817	-13.92
214.288	-2.52
214.76	-9.92
215.232	3.48
215.703	-1.12
216.175	-2.72
216.646	1.18
217.118	-7.52
217.589	-4.32
218.061	-2.22
218.532	-3.42
219.004	-0.02
219.475	-2.02
219.946	-2.62
220.418	-7.12
220.889	5.88
221.36	-3.82
221.832	-1.92
222.303	-1.12
222.774	2.48
223.245	-3.12
223.717	-4.42
224.188	-2.32
224.659	-7.42
225.13	-11.02
225.601	0.28
226.072	3.18
226.543	-0.02
227.014	0.28
227.485	-0.02
227.956	-8.72
228.427	-0.32
228.898	-4.42
229.369	6.78
229.839	-5.62
230.31	-4.22
230.781	3.48
231.252	-5.42
231.722	-1.02
232.193	-2.42
232.664	-3.32
233.135	1.78
233.605	4.88
234.076	-3.22
234.546	2.18
235.017	8.18
235.487	-3.42
235.958	3.18
236.428	-5.02
236.899	4.08
237.369	5.68
237.84	2.88
238.31	12.08
238.78	7.38
239.251	3.58
239.721	4.28
240.191	3.98
240.662	-4.22
241.132	5.08
241.602	-3.12
242.072	1.98
242.542	9.88
243.013	4.08
243.483	3.78
243.953	1.78
244.423	-1.92
244.893	-2.12
245.363	3.98
245.833	4.18
246.303	7.88
246.773	7.58
247.243	6.78
247.712	1.98
248.182	12.18
248.652	9.98
249.122	3.08
249.592	12.28
250.061	24.78
250.531	37.08
251.001	14.38
251.471	27.98
251.94	15.68
252.41	9.78
252.879	-5.02
253.349	12.08
253.818	9.08
254.288	5.88
254.757	5.08
255.227	3.08
255.696	5.18
256.166	13.98
256.635	8.28
257.105	11.08
257.574	7.58
258.043	12.18
258.513	9.48
258.982	15.18
259.451	10.28
259.92	12.78
260.389	12.68
260.859	22.68
261.328	12.68
261.797	17.58
262.266	8.38
262.735	11.28
263.204	4.78
263.673	2.48
264.142	7.18
264.611	-5.92
265.08	1.78
265.549	2.58
266.018	9.28
266.487	2.18
266.955	-2.02
267.424	3.58
267.893	9.38
268.362	-0.72
268.83	0.38
269.299	17.18
269.768	1.48
270.236	6.28
270.705	2.08
271.174	13.68
271.642	9.98
272.111	12.18
272.579	19.28
273.048	16.18
273.516	22.08
273.985	31.58
274.453	21.28
274.922	14.78
275.39	7.48
275.858	4.38
276.327	15.08
276.795	17.68
277.263	9.48
277.731	30.58
278.2	49.08
278.668	59.98
279.136	47.48
279.604	13.98
280.072	13.78
280.54	11.68
281.008	12.68
281.477	19.38
281.945	9.38
282.413	16.78
282.881	18.28
283.348	8.78
283.816	17.18
284.284	13.78
284.752	20.28
285.22	15.88
285.688	15.98
286.156	19.48
286.623	36.68
287.091	56.98
287.559	26.18
288.026	14.08
288.494	15.68
288.962	5.18
289.429	2.78
289.897	17.58
290.364	17.58
290.832	16.88
291.3	21.28
291.767	14.48
292.234	18.48
292.702	12.68
293.169	19.28
293.637	27.88
294.104	16.08
294.571	9.88
295.039	12.08
295.506	18.18
295.973	17.48
296.44	20.08
296.908	20.38
297.375	21.28
297.842	19.98
298.309	20.18
298.776	13.18
299.243	19.48
299.71	14.98
300.177	19.08
300.644	19.68
301.111	19.48
301.578	20.88
302.045	21.68
302.512	22.18
302.979	22.88
303.446	17.98
303.913	14.38
304.379	14.78
304.846	23.98
305.313	21.78
305.78	20.18
306.246	22.08
306.713	26.98
307.18	21.78
307.646	21.38
308.113	24.38
308.579	18.88
309.046	25.58
309.512	26.78
309.979	16.18
310.445	29.98
310.912	22.78
311.378	34.78
311.845	27.78
312.311	30.68
312.777	27.08
313.244	28.48
313.71	31.98
314.176	32.28
314.642	27.38
315.109	27.88
315.575	34.68
316.041	42.88
316.507	33.08
316.973	30.28
317.439	28.98
317.905	37.08
318.371	33.88
318.837	33.58
319.303	31.28
319.769	28.38
320.235	32.98
320.701	33.68
321.167	32.08
321.633	31.68
322.099	33.88
322.564	37.88
323.03	39.98
323.496	34.68
323.962	36.28
324.427	38.98
324.893	43.58
325.359	30.88
325.824	33.28
326.29	36.18
326.755	43.88
327.221	42.28
327.686	40.38
328.152	40.28
328.617	35.58
329.083	44.18
329.548	49.38
330.014	39.38
330.479	36.58
330.944	43.68
331.41	34.98
331.875	39.48
332.34	43.48
332.805	44.28
333.271	44.68
333.736	36.58
334.201	46.58
334.666	53.18
335.131	52.18
335.596	47.08
336.061	40.38
336.526	39.58
336.991	44.98
337.456	54.58
337.921	42.58
338.386	39.68
338.851	41.58
339.316	40.38
339.781	43.88
340.246	52.78
340.711	37.28
341.175	44.58
341.64	39.48
342.105	48.98
342.569	54.58
343.034	51.98
343.499	55.08
343.963	47.18
344.428	57.98
344.893	55.88
345.357	54.98
345.822	52.68
346.286	63.38
346.751	69.48
347.215	59.68
347.679	66.38
348.144	89.58
348.608	76.08
349.073	62.98
349.537	67.48
350.001	75.38
350.465	84.78
350.93	74.18
351.394	69.38
351.858	64.18
352.322	71.08
352.786	74.38
353.25	87.88
353.715	102.98
354.179	91.78
354.643	109.18
355.107	111.28
355.571	90.28
356.035	90.48
356.498	100.48
356.962	105.98
357.426	116.68
357.89	97.98
358.354	83.08
358.818	71.98
359.281	71.98
359.745	71.78
360.209	73.88
360.673	65.48
361.136	77.88
361.6	76.08
362.064	75.78
362.527	67.88
362.991	83.28
363.454	72.88
363.918	68.58
364.381	67.48
364.845	67.58
365.308	75.18
365.772	76.08
366.235	75.58
366.698	79.18
367.162	81.98
367.625	82.28
368.088	76.88
368.552	81.48
369.015	79.68
369.478	85.28
369.941	96.98
370.404	79.98
370.867	93.68
371.331	100.28
371.794	96.08
372.257	93.88
372.72	108.38
373.183	101.08
373.646	95.08
374.109	88.28
374.572	98.58
375.035	98.58
375.497	99.78
375.96	96.38
376.423	94.88
376.886	93.98
377.349	98.38
377.811	93.08
378.274	95.28
378.737	95.78
379.199	98.48
379.662	95.38
380.125	103.88
380.587	100.78
381.05	107.68
381.512	116.58
381.975	124.78
382.437	113.18
382.9	111.48
383.362	117.08
383.825	127.48
384.287	129.38
384.75	129.98
385.212	123.68
385.674	125.68
386.136	119.18
386.599	111.58
387.061	114.18
387.523	118.08
387.985	123.08
388.447	131.08
388.91	131.28
389.372	142.68
389.834	132.08
390.296	124.68
390.758	136.88
391.22	143.98
391.682	183.78
392.144	263.88
392.606	207.18
393.068	146.38
393.529	144.88
393.991	133.58
394.453	126.98
394.915	134.28
395.377	166.28
395.838	185.58
396.3	132.48
396.762	130.58
397.224	124.48
397.685	118.68
398.147	120.88
398.608	113.28
399.07	114.38
399.531	116.18
399.993	122.28
400.454	130.68
400.916	126.48
401.377	129.18
401.839	138.38
402.3	134.18
402.762	144.98
403.223	156.88
403.684	154.28
404.145	145.38
404.607	146.88
405.068	143.68
405.529	156.98
405.99	169.98
406.451	153.48
406.913	153.18
407.374	141.18
407.835	144.88
408.296	151.08
408.757	148.18
409.218	162.08
409.679	158.18
410.14	157.78
410.601	155.88
411.062	164.98
411.522	165.18
411.983	166.48
412.444	154.38
412.905	154.78
413.366	159.08
413.826	173.78
414.287	193.78
414.748	240.88
415.208	226.98
415.669	195.98
416.13	181.88
416.59	180.08
417.051	188.18
417.511	191.08
417.972	219.78
418.432	218.18
418.893	262.58
419.353	218.18
419.814	184.08
420.274	168.28
420.734	161.28
421.195	173.68
421.655	171.98
422.115	172.98
422.576	177.38
423.036	174.38
423.496	180.48
423.956	190.68
424.416	202.98
424.876	236.98
425.336	226.18
425.797	233.88
426.257	228.48
426.717	216.08
427.177	207.38
427.637	201.58
428.097	203.88
428.556	215.28
429.016	239.28
429.476	232.68
429.936	245.98
430.396	243.78
430.856	252.88
431.315	280.18
431.775	296.18
432.235	329.08
432.694	310.48
433.154	319.28
433.614	335.48
434.073	285.38
434.533	248.18
434.993	239.38
435.452	246.68
435.912	249.58
436.371	249.08
436.83	247.58
437.29	232.68
437.749	222.08
438.209	215.48
438.668	231.68
439.127	241.88
439.587	235.58
440.046	220.58
440.505	224.58
440.964	240.58
441.424	275.58
441.883	270.78
442.342	230.48
442.801	198.98
443.26	193.78
443.719	199.68
444.178	196.58
444.637	184.48
445.096	192.58
445.555	201.48
446.014	201.08
446.473	205.98
446.932	212.28
447.391	201.18
447.849	204.88
448.308	200.98
448.767	189.98
449.226	209.88
449.685	204.98
450.143	224.38
450.602	215.38
451.061	201.08
451.519	203.68
451.978	206.18
452.436	213.18
452.895	212.48
453.353	225.48
453.812	210.48
454.27	211.18
454.729	202.98
455.187	208.78
455.646	220.58
456.104	223.48
456.562	230.18
457.021	234.78
457.479	224.48
457.937	240.68
458.395	234.88
458.854	220.48
459.312	228.48
459.77	242.38
460.228	227.08
460.686	212.18
461.144	220.88
461.602	209.28
462.06	219.68
462.518	225.78
462.976	231.58
463.434	233.38
463.892	231.78
464.35	251.68
464.808	252.08
465.266	242.18
465.724	245.38
466.181	241.78
466.639	249.58
467.097	258.78
467.555	273.88
468.012	266.18
468.47	277.78
468.928	294.88
469.385	300.28
469.843	309.38
470.3	322.68
470.758	320.48
471.215	337.78
471.673	355.68
472.13	357.68
472.588	360.58
473.045	321.88
473.503	340.68
473.96	342.98
474.417	352.48
474.875	381.88
475.332	417.28
475.789	405.78
476.246	412.48
476.704	425.18
477.161	450.88
477.618	465.28
478.075	499.68
478.532	545.28
478.989	610.18
479.446	693.88
479.903	678.08
480.36	723.38
480.817	777.98
481.274	864.28
481.731	964.58
482.188	1030.28
482.645	1160.28
483.102	1254.08
483.558	1380.88
484.015	1437.78
484.472	1419.98
484.929	1365.78
485.385	1330.38
485.842	1284.88
486.299	1229.78
486.755	1147.78
487.212	965.58
487.668	821.38
488.125	759.68
488.582	706.88
489.038	674.68
489.494	642.28
489.951	617.68
490.407	600.48
490.864	581.98
491.32	576.18
491.776	571.78
492.233	571.68
492.689	543.18
493.145	534.98
493.602	533.48
494.058	548.08
494.514	549.58
494.97	559.48
495.426	575.08
495.882	551.98
496.338	555.78
496.794	562.98
497.251	563.18
497.707	560.18
498.163	566.68
498.618	579.18
499.074	583.58
499.53	609.18
499.986	603.98
500.442	576.28
500.898	557.68
501.354	556.88
501.809	569.48
502.265	567.08
502.721	589.68
503.177	598.48
503.632	583.18
504.088	599.28
504.543	632.68
504.999	629.08
505.455	583.58
505.91	567.48
506.366	574.18
506.821	559.68
507.277	556.48
507.732	561.38
508.187	554.28
508.643	564.98
509.098	560.38
509.553	580.08
510.009	600.98
510.464	598.48
510.919	608.68
511.375	616.38
511.83	633.88
512.285	657.88
512.74	673.48
513.195	694.38
513.65	698.38
514.105	694.08
514.56	705.28
515.015	708.88
515.47	728.48
515.925	712.18
516.38	711.18
516.835	710.58
517.29	704.58
517.745	691.18
518.2	680.28
518.655	671.38
519.109	667.28
519.564	661.48
520.019	653.78
520.474	648.48
520.928	643.68
521.383	648.88
521.838	627.08
522.292	624.28
522.747	635.88
523.201	622.88
523.656	625.58
524.11	619.58
524.565	617.08
525.019	614.88
525.474	618.08
525.928	613.88
526.382	615.38
526.837	623.38
527.291	633.88
527.745	619.28
528.2	621.48
528.654	623.38
529.108	611.88
529.562	618.48
530.016	605.48
530.47	606.28
530.925	608.08
531.379	613.48
531.833	632.18
532.287	628.48
532.741	623.28
533.195	623.78
533.649	629.38
534.103	637.58
534.556	627.78
535.01	627.58
535.464	624.48
535.918	636.38
536.372	641.78
536.826	637.28
537.279	631.58
537.733	640.08
538.187	627.58
538.64	629.08
539.094	642.28
539.548	638.78
540.001	642.08
540.455	635.38
540.908	644.28
541.362	655.18
541.815	660.88
542.269	670.78
542.722	663.68
543.175	680.68
543.629	672.78
544.082	695.88
544.536	693.88
544.989	682.58
545.442	695.48
545.895	690.58
546.349	680.48
546.802	696.98
547.255	698.68
547.708	706.48
548.161	717.98
548.614	720.08
549.067	725.58
549.52	719.18
549.973	704.58
550.426	708.48
550.879	693.58
551.332	708.28
551.785	710.38
552.238	711.08
552.691	716.58
553.144	731.88
553.596	733.78
554.049	760.68
554.502	780.08
554.955	801.58
555.407	799.18
555.86	785.88
556.313	782.08
556.765	762.28
557.218	775.58
557.67	778.98
558.123	774.18
558.576	771.08
559.028	759.58
559.48	774.78
559.933	765.28
560.385	732.88
560.838	709.18
561.29	682.58
561.742	675.78
562.195	659.28
562.647	666.08
563.099	675.48
563.551	675.88
564.004	678.28
564.456	674.98
564.908	661.98
565.36	643.48
565.812	644.38
566.264	626.38
566.716	628.68
567.168	627.28
567.62	623.58
568.072	608.48
568.524	602.78
568.976	590.18
569.428	583.78
569.88	589.58
570.332	581.18
570.784	583.88
571.235	590.98
571.687	609.78
572.139	606.08
572.59	618.18
573.042	612.18
573.494	609.88
573.945	609.48
574.397	590.38
574.849	600.08
575.3	593.58
575.752	590.78
576.203	578.18
576.655	582.18
577.106	581.78
577.557	574.18
578.009	579.08
578.46	573.98
578.912	566.28
579.363	571.88
579.814	576.88
580.265	569.08
580.717	570.58
581.168	564.18
581.619	581.78
582.07	586.28
582.521	573.08
582.972	566.38
583.423	577.38
583.875	581.68
584.326	603.28
584.777	641.28
585.227	701.68
585.678	777.68
586.129	852.58
586.58	928.98
587.031	1003.78
587.482	1145.48
587.933	1320.38
588.384	1128.88
588.834	845.48
589.285	679.28
589.736	664.98
590.186	661.18
590.637	656.28
591.088	634.18
591.538	626.48
591.989	620.08
592.439	611.38
592.89	606.98
593.34	601.88
593.791	606.08
594.241	599.08
594.692	601.78
595.142	596.88
595.593	591.68
596.043	592.98
596.493	602.38
596.943	595.28
597.394	609.98
597.844	603.08
598.294	616.08
598.744	641.08
599.195	659.18
599.645	672.88
600.095	722.18
600.545	767.98
600.995	816.68
601.445	863.38
601.895	917.38
602.345	956.98
602.795	937.48
603.245	906.88
603.695	858.58
604.145	808.78
604.594	776.48
605.044	721.08
605.494	672.38
605.944	633.18
606.393	625.38
606.843	612.18
607.293	610.38
607.743	620.98
608.192	616.78
608.642	630.58
609.091	634.08
609.541	647.58
609.99	639.58
610.44	634.88
610.889	605.68
611.339	584.98
611.788	576.78
612.238	584.78
612.687	601.28
613.136	599.38
613.586	604.38
614.035	608.48
614.484	638.28
614.933	626.18
615.383	611.98
615.832	609.28
616.281	602.58
616.73	568.68
617.179	550.68
617.628	549.38
618.077	529.28
618.526	516.48
618.975	522.08
619.424	514.38
619.873	507.98
620.322	510.28
620.771	504.48
621.22	502.18
621.669	496.18
622.118	487.68
622.567	482.78
623.015	475.38
623.464	473.68
623.913	456.98
624.361	458.58
624.81	456.68
625.259	460.08
625.707	463.98
626.156	459.08
626.604	469.48
627.053	460.98
627.501	465.58
627.95	464.78
628.398	483.78
628.847	470.58
629.295	462.08
629.744	469.38
630.192	467.98
630.64	469.28
631.089	462.18
631.537	462.78
631.985	476.68
632.433	490.78
632.881	493.48
633.33	533.88
633.778	508.48
634.226	460.78
634.674	459.88
635.122	474.58
635.57	488.58
636.018	512.28
636.466	481.58
636.914	464.48
637.362	463.38
637.81	469.58
638.258	477.88
638.705	469.68
639.153	497.38
639.601	499.98
640.049	522.18
640.497	548.08
640.944	572.38
641.392	525.78
641.84	504.38
642.287	474.18
642.735	464.38
643.182	466.48
643.63	471.38
644.078	467.38
644.525	474.88
644.973	485.48
645.42	493.68
645.867	506.78
646.315	520.98
646.762	535.88
647.21	552.98
647.657	572.58
648.104	606.78
648.551	622.58
648.999	678.48
649.446	738.58
649.893	817.08
650.34	922.88
650.787	1110.98
651.234	1379.68
651.682	1775.98
652.129	2443.58
652.576	3484.58
653.023	5175.08
653.47	7154.38
653.917	9094.88
654.363	10667.28
654.81	12068.98
655.257	11435.78
655.704	7432.88
656.151	4353.38
656.598	2809.08
657.044	1990.78
657.491	1524.48
657.938	1220.08
658.385	1018.08
658.831	881.58
659.278	780.88
659.724	698.18
660.171	634.18
660.618	579.68
661.064	549.38
661.511	534.98
661.957	527.38
662.404	509.78
662.85	513.88
663.296	491.08
663.743	449.98
664.189	435.18
664.635	429.48
665.082	425.68
665.528	425.88
665.974	418.88
666.42	404.08
666.867	410.98
667.313	388.28
667.759	396.28
668.205	391.58
668.651	393.38
669.097	391.48
669.543	410.68
669.989	381.18
670.435	368.08
670.881	359.68
671.327	366.98
671.773	375.18
672.219	395.98
672.665	449.08
673.11	462.78
673.556	510.68
674.002	547.38
674.448	525.48
674.893	451.98
675.339	376.38
675.785	361.08
676.23	334.28
676.676	316.78
677.122	308.18
677.567	296.88
678.013	295.18
678.458	288.08
678.904	285.98
679.349	278.28
679.794	292.48
680.24	280.98
680.685	288.78
681.131	279.08
681.576	277.58
682.021	283.08
682.466	274.78
682.912	284.68
683.357	274.58
683.802	297.08
684.247	325.78
684.692	365.08
685.137	393.28
685.583	435.18
686.028	456.78
686.473	413.38
686.918	356.48
687.363	334.68
687.807	316.48
688.252	283.28
688.697	287.48
689.142	265.18
689.587	258.78
690.032	261.48
690.477	270.78
690.921	282.98
691.366	309.88
691.811	322.58
692.255	337.78
692.7	372.68
693.145	392.38
693.589	541.88
694.034	889.18
694.478	1219.88
694.923	1424.68
695.367	1865.88
695.812	977.28
696.256	398.88
696.701	297.68
697.145	276.18
697.59	264.48
698.034	251.58
698.478	260.98
698.922	256.78
699.367	258.48
699.811	264.98
700.255	276.98
700.699	304.88
701.143	337.88
701.588	375.78
702.032	413.88
702.476	411.08
702.92	390.98
703.364	392.98
703.808	492.98
704.252	795.18
704.696	1147.28
705.14	1356.48
705.584	1751.08
706.027	861.68
706.471	420.48
706.915	309.68
707.359	280.18
707.803	254.98
708.246	238.68
708.69	250.28
709.134	243.38
709.577	250.68
710.021	250.48
710.465	248.68
710.908	241.28
711.352	231.38
711.795	249.78
712.239	272.38
712.682	294.28
713.126	335.78
713.569	376.28
714.012	303.98
714.456	257.38
714.899	235.08
715.342	216.48
715.786	203.28
716.229	207.58
716.672	207.18
717.115	197.98
717.558	201.78
718.002	201.18
718.445	212.38
718.888	226.78
719.331	230.98
719.774	245.68
720.217	241.88
720.66	227.58
721.103	208.98
721.546	199.08
721.989	194.58
722.432	174.68
722.874	188.88
723.317	180.78
723.76	192.38
724.203	204.88
724.645	246.38
725.088	339.28
725.531	447.48
725.974	516.28
726.416	446.68
726.859	241.28
727.301	194.08
727.744	189.48
728.187	184.58
728.629	189.18
729.071	196.38
729.514	202.08
729.956	214.78
730.399	229.08
730.841	225.18
731.283	222.48
731.726	207.58
732.168	209.88
732.61	212.28
733.053	231.98
733.495	248.98
733.937	272.38
734.379	324.68
734.821	341.48
735.263	421.08
735.705	648.38
736.148	1218.28
736.59	2030.78
737.032	2515.68
737.474	2045.68
737.916	642.58
738.357	346.18
738.799	262.28
739.241	231.78
739.683	220.48
740.125	233.48
740.567	233.18
741.008	251.88
741.45	253.88
741.892	249.48
742.334	279.08
742.775	284.98
743.217	274.88
743.658	210.48
744.1	197.98
744.542	207.08
744.983	255.78
745.425	282.58
745.866	279.48
746.307	229.58
746.749	227.28
747.19	257.28
747.632	350.48
748.073	654.88
748.514	1424.28
748.956	2283.68
749.397	2841.38
749.838	2359.48
750.279	2451.48
750.72	1228.38
751.162	442.18
751.603	259.08
752.044	201.08
752.485	170.98
752.926	165.48
753.367	164.08
753.808	152.08
754.249	154.88
754.69	148.08
755.131	148.58
755.572	146.78
756.013	144.98
756.453	139.58
756.894	145.68
757.335	154.48
757.776	153.78
758.216	153.28
758.657	164.48
759.098	158.38
759.538	174.28
759.979	202.48
760.42	283.68
760.86	537.08
761.301	1385.58
761.741	3478.78
762.182	5385.18
762.622	3806.38
763.063	1064.48
763.503	432.28
763.943	279.08
764.384	267.88
764.824	338.78
765.264	377.78
765.705	253.68
766.145	165.88
766.585	147.18
767.025	139.88
767.465	145.68
767.906	192.98
768.346	264.98
768.786	282.88
769.226	209.18
769.666	242.98
770.106	474.08
770.546	1188.48
770.986	2165.18
771.426	1969.28
771.866	648.48
772.306	258.98
772.745	168.18
773.185	142.58
773.625	135.88
774.065	128.28
774.505	158.98
774.944	237.08
775.384	512.68
775.824	962.98
776.263	966.98
776.703	403.68
777.142	172.78
777.582	119.18
778.021	106.68
778.461	115.48
778.9	110.78
779.34	103.78
779.779	97.98
780.219	81.18
780.658	76.18
781.097	83.48
781.537	91.58
781.976	83.78
782.415	81.48
782.855	86.28
783.294	77.38
783.733	81.68
784.172	78.68
784.611	80.78
785.05	82.08
785.489	86.08
785.928	93.38
786.367	95.58
786.806	89.38
787.245	102.88
787.684	111.18
788.123	112.58
788.562	103.08
789.001	103.18
789.44	99.08
789.879	97.18
790.317	97.68
790.756	105.48
791.195	98.78
791.634	117.08
792.072	155.98
792.511	281.58
792.95	757.68
793.388	1735.08
793.827	1635.28
794.265	554.78
794.704	235.38
795.142	152.68
795.581	122.98
796.019	104.18
796.458	98.98
796.896	92.18
797.334	101.28
797.773	120.48
798.211	172.78
798.649	331.48
799.087	792.48
799.526	1274.78
799.964	1617.28
800.402	1682.18
800.84	619.28
801.278	238.78
801.716	148.68
802.154	119.18
802.592	118.68
803.03	108.58
803.468	101.48
803.906	118.68
804.344	120.78
804.782	113.08
805.22	100.98
805.658	99.88
806.096	124.78
806.533	122.58
806.971	138.58
807.409	175.68
807.847	236.48
808.284	506.48
808.722	1461.48
809.16	2703.08
809.597	2477.38
810.035	4412.48
810.472	4968.68
810.91	1756.68
811.347	646.98
811.785	324.28
812.222	209.98
812.66	155.48
813.097	132.68
813.535	111.98
813.972	100.78
814.409	98.08
814.846	88.98
815.284	83.58
815.721	78.68
816.158	84.68
816.595	97.38
817.032	154.58
817.47	167.58
817.907	133.88
818.344	122.98
818.781	93.28
819.218	74.18
819.655	99.68
820.092	150.58
820.529	172.78
820.966	144.08
821.403	108.38
821.839	88.18
822.276	84.08
822.713	102.98
823.15	106.38
823.587	93.78
824.023	111.58
824.46	227.28
824.897	700.88
825.333	1123.48
825.77	483.18
826.206	181.78
826.643	112.18
827.08	78.28
827.516	66.28
827.953	59.88
828.389	63.68
828.825	57.98
829.262	58.28
829.698	49.78
830.135	52.88
830.571	53.38
831.007	48.58
831.443	51.18
831.88	51.38
832.316	52.58
832.752	50.78
833.188	50.28
833.624	52.98
834.06	53.48
834.497	61.58
834.933	57.38
835.369	66.48
835.805	55.38
836.241	58.38
836.677	61.48
837.112	74.18
837.548	85.68
837.984	104.38
838.42	160.38
838.856	379.38
839.292	1199.88
839.727	1942.88
840.163	880.68
840.599	716.48
841.034	1637.38
841.47	1801.48
841.906	636.88
842.341	266.38
842.777	184.08
843.212	248.88
843.648	245.98
844.083	123.98
844.519	77.28
844.954	61.18
845.39	47.88
845.825	37.98
846.261	42.68
846.696	37.88
847.131	46.08
847.566	44.48
848.002	38.68
848.437	40.58
848.872	45.58
849.307	49.78
849.742	62.58
850.177	136.78
850.613	438.38
851.048	733.58
851.483	316.88
851.918	127.48
852.353	73.28
852.788	49.88
853.223	44.48
853.657	46.58
854.092	44.68
854.527	35.88
854.962	33.88
855.397	34.28
855.832	41.78
856.266	36.08
856.701	28.78
857.136	32.98
857.57	30.58
858.005	42.08
858.44	47.48
858.874	34.38
859.309	43.18
859.743	33.48
860.178	38.28
860.612	35.38
861.047	40.48
861.481	60.38
861.915	58.58
862.35	35.08
862.784	26.48
863.218	35.28
863.653	22.18
864.087	39.48
864.521	47.08
864.955	56.48
865.39	122.98
865.824	138.68
866.258	92.68
866.692	134.28
867.126	142.58
867.56	87.28
867.994	41.48
868.428	28.48
868.862	36.28
869.296	44.98
869.73	46.98
870.164	46.08
870.598	39.98
871.031	28.28
871.465	27.68
871.899	26.28
872.333	21.38
872.766	21.08
873.2	18.98
873.634	22.78
874.067	22.48
874.501	17.68
874.935	29.88
875.368	23.08
875.802	17.78
876.235	16.58
876.669	18.78
877.102	16.18
877.535	21.28
877.969	14.18
878.402	25.38
878.836	9.58
879.269	18.18
879.702	22.58
880.135	17.28
880.569	19.48
881.002	25.68
881.435	19.78
881.868	14.88
882.301	15.98
882.734	14.08
883.167	13.88
883.601	11.88
884.034	16.98
884.467	11.28
884.899	14.48
885.332	14.78
885.765	12.38
886.198	9.78
886.631	18.78
887.064	13.98
887.497	15.48
887.929	16.68
888.362	11.28
888.795	8.08
889.228	18.28
889.66	15.38
890.093	14.68
890.526	15.78
890.958	19.28
891.391	13.38
891.823	21.38
892.256	17.08
892.688	9.78
893.121	13.58
893.553	11.38
893.985	18.28
894.418	17.48
894.85	6.98
895.282	11.58
895.715	10.68
896.147	15.98
896.579	14.68
897.011	8.48
897.444	13.28
897.876	13.28
898.308	16.68
898.74	12.18
899.172	6.48
899.604	25.08
900.036	20.58
900.468	10.78
900.9	10.68
901.332	20.58
901.764	13.98
902.196	12.48
902.628	20.28
903.06	12.88
903.491	26.08
903.923	18.88
904.355	16.88
904.787	13.58
905.218	17.08
905.65	20.88
906.082	10.98
906.513	7.98
906.945	8.38
907.376	8.48
907.808	19.88
908.239	13.48
908.671	16.28
909.102	17.28
909.534	21.68
909.965	38.18
910.397	73.68
910.828	253.48
911.259	395.88
911.691	177.88
912.122	90.58
912.553	41.08
912.984	32.18
913.415	26.88
913.847	20.48
914.278	10.48
914.709	10.58
915.14	13.38
915.571	10.58
916.002	9.78
916.433	17.08
916.864	11.68
917.295	8.38
917.726	19.68
918.157	15.08
918.587	26.98
919.018	22.88
919.449	15.48
919.88	19.58
920.311	20.08
920.741	40.68
921.172	140.48
921.603	129.38
922.033	57.78
922.464	43.78
922.895	18.28
923.325	15.28
923.756	12.88
924.186	7.98
924.617	21.28
925.047	30.08
925.478	40.48
925.908	36.68
926.338	22.38
926.769	17.68
927.199	13.88
927.629	7.28
928.06	17.38
928.49	8.68
928.92	11.88
929.35	7.28
929.78	8.68
930.21	8.58
930.641	2.38
931.071	9.08
931.501	4.18
931.931	10.58
932.361	8.08
932.791	4.88
933.221	9.48
933.651	6.78
934.08	8.98
934.51	30.18
934.94	8.68
935.37	9.08
935.8	5.28
936.229	9.58
936.659	5.98
937.089	0.48
937.519	6.38
937.948	18.48
938.378	15.98
938.807	5.38
939.237	3.28
939.666	5.68
940.096	-0.72
940.525	4.38
940.955	-4.32
941.384	-5.12
941.814	-9.92
942.243	2.68
942.672	0.28
943.102	-1.62
943.531	-1.32
943.96	3.38
944.39	2.58
944.819	-3.42
945.248	3.18
945.677	5.78
946.106	3.08
946.535	3.48
946.964	3.98
947.393	3.78
947.822	1.18
948.251	4.38
948.68	7.48
949.109	9.58
949.538	6.48
949.967	2.98
950.396	2.28
950.825	2.18
951.254	-1.32
951.682	-4.52
952.111	0.08
952.54	3.88
952.969	-4.12
953.397	0.18
953.826	-0.92
954.254	-7.02
954.683	1.78
955.112	-2.32
955.54	3.48
955.969	-3.72
956.397	5.48
956.826	1.78
957.254	1.88
957.682	-0.32
958.111	9.78
958.539	4.58
958.967	-0.62
959.396	-2.42
959.824	-0.42
960.252	9.68
960.68	-1.82
961.109	-2.32
961.537	-5.62
961.965	-2.12
962.393	-1.52
962.821	-3.52
963.249	2.18
963.677	6.18
964.105	1.48
964.533	36.88
964.961	31.08
965.389	22.08
965.817	7.38
966.245	2.28
966.672	2.98
967.1	-0.92
967.528	-3.12
967.956	0.18
968.383	3.58
968.811	-7.72
969.239	-4.72
969.666	-0.72
970.094	-2.22
970.522	-0.12
970.949	7.48
971.377	-4.02
971.804	-6.72
972.232	-1.22
972.659	4.28
973.087	-3.82
973.514	5.88
973.941	-2.42
974.369	2.18
974.796	-1.32
975.223	0.38
975.651	-2.02
976.078	1.68
976.505	0.48
976.932	4.38
977.359	12.98
977.786	11.18
978.214	-0.32
978.641	1.18
979.068	-2.52
979.495	-7.62
979.922	2.58
980.349	3.28
980.776	2.18
981.202	-2.02
981.629	5.78
982.056	8.78
982.483	-2.32
982.91	8.38
983.337	0.58
983.763	3.48
984.19	-4.12
984.617	-7.72
985.043	-7.12
985.47	1.78
985.897	-5.52
986.323	-3.72
986.75	-0.32
987.176	-2.32
987.603	-3.02
988.029	1.28
988.456	-0.82
988.882	-2.22
989.308	-6.82
989.735	-2.92
990.161	-1.02
990.587	-9.02
991.014	4.68
991.44	3.08
991.866	-4.52
992.292	-5.92
992.719	-1.92
993.145	2.98
993.571	-7.62
993.997	-4.82
994.423	0.98
994.849	0.88
995.275	2.88
995.701	5.88
996.127	-1.62
996.553	-0.02
996.979	-12.62
997.405	-7.22
997.83	-9.92
998.256	-8.12
998.682	-5.52
999.108	-10.52
999.534	-0.22
999.959	0.68
1000.385	-4.22
1000.811	-0.02
1001.236	-13.22
1001.662	-4.02
1002.087	-10.62
1002.513	6.58
1002.938	-0.62
1003.364	-3.52
1003.789	1.18
1004.215	5.08
1004.64	-6.02
1005.066	3.28
1005.491	1.58
1005.916	-4.22
1006.342	-1.12
1006.767	-8.22
1007.192	3.48
1007.617	-8.12
1008.042	-5.32
1008.468	-7.12
1008.893	-6.52
1009.318	-1.22
1009.743	-0.82
1010.168	4.88
1010.593	-1.52
1011.018	-5.92
1011.443	-1.82
1011.868	5.18
1012.293	-4.32
1012.718	-5.42
1013.143	1.58
1013.567	-2.82
1013.992	-2.72
1014.417	-8.12
1014.842	4.38
1015.267	-4.32
1015.691	-2.82
1016.116	4.78
1016.541	2.98
1016.965	5.08
1017.39	-1.32
1017.814	-1.42
1018.239	-0.02
1018.663	-9.02
1019.088	-6.92
1019.512	-4.32
1019.937	0.08
1020.361	-3.22
1020.785	-7.22
1021.21	-0.12
1021.634	-3.92
1022.058	0.08
1022.483	6.08
1022.907	-5.22
1023.331	-3.42
1023.755	-7.02
1024.179	-2.72
1024.604	-6.02
1025.028	-4.42
1025.452	-9.52
1025.876	-4.02
1026.3	0.58
1026.724	-13.82
1027.148	-4.92
1027.572	-9.02
1027.996	-3.72
1028.42	-0.52
1028.843	-0.72
1029.267	-2.72
1029.691	-4.62
1030.115	-1.72
1030.539	-5.72
1030.962	-2.12
1031.386	-8.02
1031.81	4.88
1032.233	-2.52
1032.657	4.18
1033.08	-3.72
1033.504	-2.22
1033.927	-1.42
1034.351	0.18
1034.774	-0.32
1035.198	-2.92
1035.621	-2.02
1036.045	-7.32
1036.468	-2.22
1036.891	-9.52
1037.315	-7.62
1037.738	-12.22
1038.161	-1.42
1038.584	-9.32
1039.008	-11.42
1039.431	-4.12
1039.854	-3.12
1040.277	-8.72
1040.7	-9.22
1041.123	2.08
1041.546	-8.32
1041.969	-4.92
1042.392	-4.62
1042.815	1.58
1043.238	-2.72
1043.661	1.18
1044.084	-5.32
1044.507	-1.52
1044.93	-8.72
1045.352	-2.22
1045.775	-4.02
1046.198	1.58
1046.621	0.68
1047.043	-1.22
1047.466	4.98
1047.889	-2.82
1048.311	-4.92
1048.734	-6.32
1049.156	-2.62
1049.579	-0.92
1050.001	-4.12
1050.424	0.88
1050.846	-3.52
1051.269	-5.92
1051.691	-9.22
1052.113	-10.52
1052.536	2.08
1052.958	2.88
1053.38	0.08
1053.802	-16.22
1054.225	-1.72
1054.647	-7.02
1055.069	-4.52
1055.491	6.38
1055.913	-5.52
1056.335	1.08
1056.757	-4.92
1057.179	-5.72
1057.601	-3.32
1058.023	-3.52
1058.445	-0.82
1058.867	-1.22
1059.289	-7.22
1059.711	-9.92
1060.133	4.88
1060.555	-6.82
1060.976	-2.82
1061.398	-1.02
1061.82	1.88
1062.241	-3.92
1062.663	-7.62
1063.085	-4.82
1063.506	1.38
1063.928	0.18
1064.35	3.88
1064.771	-8.52
1065.193	0.48
1065.614	-6.12
1066.035	-0.32
1066.457	-7.62
1066.878	0.18
1067.3	-9.62
1067.721	0.88
1068.142	-4.32
1068.564	-5.62
1068.985	-0.02
1069.406	-5.02
1069.827	-4.82
1070.248	-2.02
1070.67	-4.02
1071.091	-4.42
1071.512	1.18
1071.933	-3.72
1072.354	-4.32
1072.775	-2.72
1073.196	-0.82
1073.617	1.78
1074.038	-7.82
1074.459	-4.22
1074.88	-8.32
1075.3	0.08
1075.721	-5.92
1076.142	-2.02
1076.563	2.18
1076.983	-14.52
1077.404	-10.52
1077.825	-10.62
1078.246	2.78
1078.666	-10.02
1079.087	-7.22
1079.507	-5.82
1079.928	4.78
1080.348	-2.02
1080.769	-9.32
1081.189	0.58
1081.61	-2.22
1082.03	-3.92
1082.451	-8.82
1082.871	-2.52
1083.291	-10.42
1083.711	-7.32
1084.132	-10.62
1084.552	-5.42
1084.972	0.78
1085.392	-9.12
1085.813	-10.12
1086.233	-12.42
1086.653	-4.12
1087.073	-4.72
1087.493	-6.02
1087.913	-6.22
1088.333	-12.62
1088.753	-1.92
1089.173	3.38
1089.593	-2.82
1090.013	-1.12
1090.433	4.18
1090.852	-0.52
1091.272	-1.42
1091.692	-2.52
1092.112	-1.42
1092.531	-12.32
1092.951	-10.42
1093.371	0.38
1093.79	-1.02
1094.21	-2.22
1094.63	-6.92
1095.049	-6.22
1095.469	-5.92
1095.888	2.88
1096.308	5.28
1096.727	2.88
1097.146	-4.72
1097.566	4.28
1097.985	-9.62
1098.405	-4.02
1098.824	-2.52
1099.243	-5.02
1099.662	-8.22
1100.082	-3.82
1100.501	4.48
1100.92	-5.82
1101.339	-3.52
1101.758	-5.52
