Data from 20171114-ORNL-Ar_H_NY_Subt18_08-03-58-241.txt Node
Date: Tue Nov 14 08:03:58 EST 2017
User: Ender
Spectrometer: HR+D1039
Trigger mode: 0
Integration Time (sec): 2.730000E-2
Scans to average: 10
Electric dark correction enabled: true
Nonlinearity correction enabled: false
Boxcar width: 0
XAxis mode: Wavelengths
Number of Pixels in Spectrum: 2048
>>>>>Begin Spectral Data<<<<<
187.836	0.29
188.309	0.29
188.782	0.29
189.255	-0.91
189.728	-3.91
190.201	8.19
190.674	-0.51
191.147	3.99
191.619	-9.51
192.092	0.49
192.565	4.09
193.038	5.99
193.511	1.59
193.984	3.39
194.456	-1.41
194.929	1.59
195.402	-6.21
195.874	-7.21
196.347	-2.11
196.82	-4.11
197.292	7.29
197.765	-0.11
198.237	-6.71
198.71	-3.81
199.182	-1.31
199.655	-2.11
200.127	4.39
200.6	-3.51
201.072	-4.11
201.544	-2.81
202.017	-2.11
202.489	4.09
202.961	-7.31
203.433	-2.21
203.906	-1.91
204.378	-4.41
204.85	-2.21
205.322	-9.61
205.794	-3.51
206.266	-5.11
206.739	-9.31
207.211	4.89
207.683	-10.61
208.155	-6.71
208.627	-6.61
209.099	-4.11
209.57	-5.21
210.042	-3.61
210.514	-4.21
210.986	0.19
211.458	-13.91
211.93	-7.11
212.402	2.19
212.873	-7.81
213.345	-7.71
213.817	-9.41
214.288	-3.21
214.76	-8.71
215.232	-2.01
215.703	-6.91
216.175	-4.61
216.646	-5.91
217.118	-4.21
217.589	-2.21
218.061	-5.21
218.532	-7.71
219.004	-4.21
219.475	-2.11
219.946	-0.41
220.418	-1.71
220.889	-0.51
221.36	2.99
221.832	-5.71
222.303	-5.91
222.774	-0.31
223.245	-5.21
223.717	-2.61
224.188	-2.11
224.659	-3.91
225.13	-8.51
225.601	-4.91
226.072	-5.71
226.543	1.89
227.014	-5.31
227.485	-2.31
227.956	-3.01
228.427	-1.71
228.898	2.19
229.369	2.29
229.839	-8.41
230.31	-9.71
230.781	-4.81
231.252	-2.11
231.722	-8.81
232.193	-6.11
232.664	-4.61
233.135	1.79
233.605	-5.21
234.076	-9.21
234.546	-3.91
235.017	-2.51
235.487	-1.51
235.958	-7.41
236.428	-5.31
236.899	-7.11
237.369	0.99
237.84	-7.81
238.31	-0.11
238.78	-5.01
239.251	-7.01
239.721	-2.91
240.191	-5.31
240.662	-0.61
241.132	-3.41
241.602	-4.31
242.072	-1.51
242.542	4.99
243.013	-1.51
243.483	-0.41
243.953	-1.81
244.423	-5.21
244.893	-2.61
245.363	-2.71
245.833	2.69
246.303	-3.41
246.773	3.29
247.243	-1.11
247.712	-2.31
248.182	4.29
248.652	5.79
249.122	-10.71
249.592	-6.91
250.061	2.49
250.531	3.79
251.001	-7.41
251.471	-6.61
251.94	3.49
252.41	-3.71
252.879	-3.81
253.349	7.29
253.818	4.59
254.288	0.89
254.757	-2.61
255.227	-2.01
255.696	-5.31
256.166	-2.01
256.635	-4.11
257.105	3.89
257.574	1.09
258.043	-4.01
258.513	-6.11
258.982	-1.71
259.451	-2.61
259.92	1.59
260.389	0.09
260.859	9.19
261.328	3.79
261.797	4.79
262.266	1.79
262.735	7.39
263.204	-2.01
263.673	2.09
264.142	-3.61
264.611	-5.01
265.08	-2.51
265.549	3.29
266.018	-1.21
266.487	-5.41
266.955	-3.01
267.424	0.09
267.893	-2.61
268.362	-1.41
268.83	3.29
269.299	8.79
269.768	-1.81
270.236	4.79
270.705	-3.51
271.174	-2.11
271.642	3.09
272.111	-0.21
272.579	0.79
273.048	0.49
273.516	-1.61
273.985	0.89
274.453	3.79
274.922	11.19
275.39	8.49
275.858	-1.31
276.327	2.29
276.795	8.69
277.263	-3.91
277.731	11.89
278.2	6.99
278.668	7.19
279.136	2.89
279.604	-0.21
280.072	3.99
280.54	4.69
281.008	3.69
281.477	7.49
281.945	3.49
282.413	8.89
282.881	9.89
283.348	-0.21
283.816	5.29
284.284	9.39
284.752	9.29
285.22	8.09
285.688	10.89
286.156	7.99
286.623	14.59
287.091	5.49
287.559	7.89
288.026	9.09
288.494	7.19
288.962	-2.01
289.429	1.09
289.897	15.19
290.364	3.89
290.832	12.89
291.3	7.69
291.767	18.49
292.234	12.29
292.702	7.39
293.169	11.09
293.637	14.89
294.104	15.39
294.571	0.39
295.039	1.99
295.506	5.99
295.973	12.09
296.44	3.89
296.908	9.49
297.375	6.59
297.842	10.39
298.309	9.89
298.776	5.99
299.243	10.19
299.71	5.79
300.177	13.49
300.644	11.79
301.111	16.79
301.578	16.09
302.045	7.89
302.512	18.29
302.979	13.19
303.446	16.39
303.913	8.19
304.379	10.79
304.846	23.89
305.313	15.49
305.78	11.59
306.246	14.69
306.713	17.29
307.18	14.29
307.646	17.69
308.113	16.89
308.579	9.89
309.046	12.79
309.512	17.29
309.979	9.39
310.445	18.39
310.912	22.79
311.378	25.39
311.845	20.99
312.311	18.29
312.777	25.69
313.244	23.29
313.71	32.99
314.176	23.49
314.642	19.39
315.109	18.69
315.575	18.29
316.041	21.49
316.507	14.49
316.973	27.09
317.439	18.19
317.905	30.49
318.371	22.89
318.837	21.79
319.303	21.99
319.769	28.89
320.235	24.39
320.701	22.09
321.167	26.59
321.633	20.69
322.099	29.39
322.564	32.29
323.03	35.59
323.496	24.99
323.962	32.19
324.427	32.69
324.893	29.69
325.359	24.69
325.824	24.29
326.29	26.29
326.755	26.89
327.221	34.29
327.686	33.69
328.152	37.09
328.617	34.09
329.083	37.09
329.548	35.19
330.014	32.49
330.479	29.99
330.944	27.89
331.41	31.09
331.875	38.59
332.34	37.29
332.805	31.59
333.271	40.29
333.736	29.19
334.201	35.99
334.666	40.29
335.131	40.69
335.596	43.09
336.061	34.99
336.526	30.79
336.991	40.79
337.456	48.79
337.921	38.89
338.386	36.19
338.851	37.59
339.316	39.79
339.781	39.59
340.246	40.09
340.711	31.19
341.175	40.09
341.64	31.89
342.105	44.89
342.569	44.59
343.034	48.59
343.499	44.69
343.963	39.19
344.428	46.39
344.893	54.79
345.357	49.89
345.822	44.89
346.286	58.49
346.751	54.79
347.215	51.79
347.679	53.69
348.144	75.29
348.608	63.49
349.073	56.89
349.537	56.79
350.001	68.29
350.465	71.69
350.93	62.29
351.394	71.69
351.858	54.19
352.322	69.89
352.786	70.59
353.25	79.09
353.715	80.99
354.179	76.29
354.643	91.99
355.107	95.29
355.571	83.69
356.035	76.79
356.498	84.79
356.962	85.99
357.426	99.99
357.89	84.29
358.354	72.79
358.818	72.29
359.281	70.19
359.745	73.19
360.209	65.99
360.673	68.29
361.136	62.99
361.6	75.39
362.064	76.79
362.527	78.19
362.991	82.29
363.454	71.79
363.918	62.19
364.381	66.19
364.845	70.19
365.308	78.09
365.772	82.89
366.235	71.19
366.698	70.29
367.162	69.09
367.625	75.39
368.088	79.19
368.552	72.59
369.015	80.39
369.478	78.89
369.941	86.79
370.404	83.59
370.867	85.59
371.331	86.19
371.794	93.49
372.257	88.89
372.72	91.89
373.183	93.59
373.646	82.99
374.109	86.29
374.572	83.29
375.035	82.99
375.497	90.59
375.96	94.49
376.423	98.39
376.886	100.39
377.349	94.29
377.811	82.29
378.274	100.39
378.737	96.49
379.199	101.59
379.662	99.09
380.125	101.39
380.587	92.09
381.05	91.89
381.512	109.19
381.975	113.99
382.437	110.09
382.9	103.29
383.362	112.19
383.825	120.69
384.287	113.09
384.75	110.19
385.212	110.99
385.674	122.09
386.136	113.39
386.599	107.99
387.061	117.49
387.523	106.39
387.985	114.09
388.447	118.99
388.91	115.69
389.372	121.29
389.834	120.59
390.296	107.89
390.758	124.19
391.22	127.89
391.682	133.99
392.144	138.19
392.606	140.79
393.068	128.79
393.529	136.19
393.991	134.79
394.453	124.19
394.915	127.59
395.377	127.29
395.838	133.19
396.3	121.79
396.762	132.99
397.224	130.09
397.685	124.79
398.147	134.89
398.608	121.59
399.07	119.29
399.531	128.79
399.993	136.29
400.454	141.09
400.916	138.99
401.377	135.89
401.839	139.49
402.3	140.29
402.762	150.89
403.223	166.99
403.684	162.19
404.145	154.39
404.607	145.79
405.068	149.69
405.529	157.39
405.99	166.89
406.451	159.99
406.913	162.59
407.374	158.49
407.835	155.69
408.296	159.59
408.757	160.29
409.218	170.59
409.679	163.59
410.14	169.29
410.601	167.19
411.062	169.79
411.522	176.69
411.983	160.59
412.444	165.39
412.905	178.09
413.366	183.19
413.826	189.99
414.287	212.99
414.748	257.49
415.208	249.79
415.669	217.09
416.13	207.79
416.59	199.29
417.051	211.69
417.511	218.79
417.972	235.49
418.432	246.39
418.893	284.99
419.353	250.69
419.814	193.29
420.274	185.09
420.734	169.79
421.195	179.19
421.655	184.59
422.115	179.19
422.576	184.89
423.036	192.59
423.496	202.49
423.956	211.39
424.416	227.79
424.876	256.99
425.336	245.29
425.797	240.59
426.257	236.49
426.717	222.49
427.177	221.99
427.637	211.09
428.097	226.19
428.556	232.39
429.016	253.79
429.476	244.09
429.936	256.39
430.396	249.19
430.856	264.59
431.315	285.69
431.775	310.59
432.235	339.49
432.694	315.69
433.154	328.49
433.614	331.59
434.073	295.29
434.533	253.89
434.993	246.39
435.452	257.19
435.912	258.79
436.371	252.59
436.83	255.59
437.29	249.99
437.749	224.39
438.209	222.29
438.668	240.69
439.127	251.29
439.587	230.79
440.046	224.99
440.505	241.49
440.964	257.49
441.424	272.49
441.883	266.99
442.342	238.19
442.801	215.49
443.26	217.19
443.719	215.39
444.178	211.29
444.637	196.09
445.096	217.99
445.555	211.59
446.014	212.59
446.473	222.29
446.932	224.89
447.391	222.19
447.849	231.59
448.308	215.89
448.767	212.49
449.226	225.99
449.685	227.19
450.143	236.19
450.602	240.39
451.061	217.09
451.519	229.69
451.978	216.59
452.436	220.39
452.895	226.29
453.353	232.69
453.812	227.49
454.27	227.09
454.729	225.49
455.187	227.19
455.646	234.99
456.104	226.69
456.562	242.29
457.021	242.89
457.479	237.59
457.937	250.69
458.395	247.89
458.854	236.29
459.312	238.59
459.77	254.49
460.228	231.99
460.686	230.19
461.144	239.49
461.602	237.59
462.06	231.49
462.518	239.19
462.976	245.69
463.434	243.79
463.892	250.29
464.35	251.69
464.808	266.09
465.266	254.29
465.724	256.09
466.181	264.19
466.639	263.59
467.097	276.29
467.555	276.49
468.012	288.09
468.47	294.59
468.928	304.59
469.385	317.59
469.843	324.39
470.3	319.69
470.758	328.49
471.215	347.19
471.673	364.99
472.13	367.99
472.588	376.29
473.045	345.89
473.503	356.59
473.96	371.39
474.417	376.39
474.875	401.99
475.332	434.69
475.789	417.29
476.246	431.29
476.704	441.09
477.161	457.19
477.618	465.69
478.075	500.09
478.532	545.39
478.989	594.99
479.446	686.79
479.903	674.49
480.36	716.59
480.817	747.29
481.274	834.49
481.731	907.59
482.188	975.69
482.645	1092.69
483.102	1183.69
483.558	1275.79
484.015	1327.69
484.472	1317.49
484.929	1284.09
485.385	1244.79
485.842	1213.49
486.299	1160.09
486.755	1112.79
487.212	951.19
487.668	822.19
488.125	764.79
488.582	708.99
489.038	682.79
489.494	640.89
489.951	617.99
490.407	607.19
490.864	588.69
491.32	582.29
491.776	586.39
492.233	584.99
492.689	558.49
493.145	554.49
493.602	538.89
494.058	554.39
494.514	565.39
494.97	573.29
495.426	584.39
495.882	559.99
496.338	557.79
496.794	576.69
497.251	559.49
497.707	574.59
498.163	570.99
498.618	579.99
499.074	568.89
499.53	594.49
499.986	591.29
500.442	572.09
500.898	559.29
501.354	563.39
501.809	575.89
502.265	567.09
502.721	571.29
503.177	582.89
503.632	586.49
504.088	589.39
504.543	595.39
504.999	615.19
505.455	581.79
505.91	582.19
506.366	575.99
506.821	583.49
507.277	579.59
507.732	582.79
508.187	580.69
508.643	587.79
509.098	587.19
509.553	604.59
510.009	606.49
510.464	610.69
510.919	633.49
511.375	635.89
511.83	629.49
512.285	643.79
512.74	673.59
513.195	684.19
513.65	684.79
514.105	690.39
514.56	691.19
515.015	704.79
515.47	701.69
515.925	704.19
516.38	705.09
516.835	719.59
517.29	703.69
517.745	692.09
518.2	686.09
518.655	673.49
519.109	663.49
519.564	658.09
520.019	660.79
520.474	642.09
520.928	648.49
521.383	646.99
521.838	639.79
522.292	632.99
522.747	631.29
523.201	624.09
523.656	626.19
524.11	616.19
524.565	617.69
525.019	606.09
525.474	613.79
525.928	618.19
526.382	610.79
526.837	610.09
527.291	621.39
527.745	617.39
528.2	621.09
528.654	600.79
529.108	609.19
529.562	608.99
530.016	605.69
530.47	600.59
530.925	598.19
531.379	610.69
531.833	611.49
532.287	608.79
532.741	613.29
533.195	625.19
533.649	613.69
534.103	628.99
534.556	616.49
535.01	619.49
535.464	613.39
535.918	619.69
536.372	620.99
536.826	623.09
537.279	606.59
537.733	616.89
538.187	622.19
538.64	615.99
539.094	630.19
539.548	619.49
540.001	623.39
540.455	621.09
540.908	632.69
541.362	634.19
541.815	644.49
542.269	648.99
542.722	662.99
543.175	653.29
543.629	670.19
544.082	680.69
544.536	677.59
544.989	675.59
545.442	678.19
545.895	687.69
546.349	677.09
546.802	677.49
547.255	697.19
547.708	690.69
548.161	702.59
548.614	706.19
549.067	716.79
549.52	699.49
549.973	690.29
550.426	694.09
550.879	681.49
551.332	681.49
551.785	686.99
552.238	692.49
552.691	700.29
553.144	709.89
553.596	720.19
554.049	723.99
554.502	757.89
554.955	769.89
555.407	764.09
555.86	756.79
556.313	754.49
556.765	731.19
557.218	745.79
557.67	740.49
558.123	734.89
558.576	732.49
559.028	737.29
559.48	752.19
559.933	739.29
560.385	713.69
560.838	686.99
561.29	665.99
561.742	650.19
562.195	647.39
562.647	644.29
563.099	650.99
563.551	647.29
564.004	664.99
564.456	651.69
564.908	633.09
565.36	618.79
565.812	612.59
566.264	594.79
566.716	599.19
567.168	572.09
567.62	583.99
568.072	578.39
568.524	576.49
568.976	568.79
569.428	564.99
569.88	560.89
570.332	561.89
570.784	567.09
571.235	555.09
571.687	570.49
572.139	574.99
572.59	584.89
573.042	585.39
573.494	581.59
573.945	578.69
574.397	560.09
574.849	568.89
575.3	569.19
575.752	555.99
576.203	548.39
576.655	559.29
577.106	544.59
577.557	533.39
578.009	547.59
578.46	547.29
578.912	542.19
579.363	534.29
579.814	536.89
580.265	535.99
580.717	544.09
581.168	540.59
581.619	543.39
582.07	552.39
582.521	541.39
582.972	531.19
583.423	540.09
583.875	550.49
584.326	549.59
584.777	553.79
585.227	581.89
585.678	584.99
586.129	593.49
586.58	625.59
587.031	637.09
587.482	674.09
587.933	710.39
588.384	687.99
588.834	637.59
589.285	620.29
589.736	619.19
590.186	617.29
590.637	614.29
591.088	590.59
591.538	590.29
591.989	579.39
592.439	575.09
592.89	559.59
593.34	557.99
593.791	562.39
594.241	549.59
594.692	547.69
595.142	542.19
595.593	550.69
596.043	552.39
596.493	554.99
596.943	555.89
597.394	563.79
597.844	555.89
598.294	572.89
598.744	584.99
599.195	607.99
599.645	647.09
600.095	679.29
600.545	711.89
600.995	751.69
601.445	796.79
601.895	851.69
602.345	882.29
602.795	871.99
603.245	835.29
603.695	802.49
604.145	754.59
604.594	713.09
605.044	676.49
605.494	628.49
605.944	585.79
606.393	573.19
606.843	568.09
607.293	568.39
607.743	558.49
608.192	573.09
608.642	578.39
609.091	577.29
609.541	575.79
609.99	577.69
610.44	570.59
610.889	545.99
611.339	535.79
611.788	515.89
612.238	529.79
612.687	542.89
613.136	540.99
613.586	542.19
614.035	529.49
614.484	536.39
614.933	549.79
615.383	542.89
615.832	532.99
616.281	530.69
616.73	513.79
617.179	504.99
617.628	487.89
618.077	485.49
618.526	467.69
618.975	461.59
619.424	463.99
619.873	464.59
620.322	474.79
620.771	459.19
621.22	456.99
621.669	446.19
622.118	440.29
622.567	439.89
623.015	419.69
623.464	424.49
623.913	423.89
624.361	411.69
624.81	411.79
625.259	427.09
625.707	421.99
626.156	420.89
626.604	417.59
627.053	425.59
627.501	428.39
627.95	425.69
628.398	436.09
628.847	424.49
629.295	425.09
629.744	438.89
630.192	422.59
630.64	422.59
631.089	406.89
631.537	409.69
631.985	398.29
632.433	397.49
632.881	385.29
633.33	398.29
633.778	389.29
634.226	390.09
634.674	401.39
635.122	407.19
635.57	414.09
636.018	414.09
636.466	415.89
636.914	413.39
637.362	426.49
637.81	434.89
638.258	426.99
638.705	426.99
639.153	443.59
639.601	453.49
640.049	473.89
640.497	510.19
640.944	520.19
641.392	472.59
641.84	454.89
642.287	435.19
642.735	413.39
643.182	422.69
643.63	408.69
644.078	416.19
644.525	422.79
644.973	427.79
645.42	437.69
645.867	441.89
646.315	463.39
646.762	472.89
647.21	503.49
647.657	511.19
648.104	534.19
648.551	550.39
648.999	581.09
649.446	632.89
649.893	686.99
650.34	788.49
650.787	935.09
651.234	1147.49
651.682	1446.99
652.129	1957.59
652.576	2757.39
653.023	4054.19
653.47	5589.89
653.917	7078.29
654.363	8293.39
654.81	9367.59
655.257	8957.09
655.704	5900.09
656.151	3497.29
656.598	2282.89
657.044	1634.39
657.491	1258.19
657.938	1024.59
658.385	864.69
658.831	756.09
659.278	681.29
659.724	593.19
660.171	547.79
660.618	504.29
661.064	481.19
661.511	457.69
661.957	441.39
662.404	442.29
662.85	450.99
663.296	424.59
663.743	392.99
664.189	388.19
664.635	389.79
665.082	380.99
665.528	378.19
665.974	372.79
666.42	371.79
666.867	357.29
667.313	344.59
667.759	338.29
668.205	320.99
668.651	319.69
669.097	331.49
669.543	318.29
669.989	317.19
670.435	322.09
670.881	328.69
671.327	328.79
671.773	338.09
672.219	362.79
672.665	399.09
673.11	428.89
673.556	452.19
674.002	494.49
674.448	488.69
674.893	403.89
675.339	352.79
675.785	319.29
676.23	305.29
676.676	280.39
677.122	281.49
677.567	273.29
678.013	270.49
678.458	264.09
678.904	258.59
679.349	248.79
679.794	258.69
680.24	251.29
680.685	244.39
681.131	247.89
681.576	255.09
682.021	260.39
682.466	249.49
682.912	247.59
683.357	253.29
683.802	268.59
684.247	287.29
684.692	326.29
685.137	359.89
685.583	390.59
686.028	407.29
686.473	377.89
686.918	327.79
687.363	300.39
687.807	280.19
688.252	265.29
688.697	256.59
689.142	238.89
689.587	241.89
690.032	234.69
690.477	246.09
690.921	249.89
691.366	272.39
691.811	289.79
692.255	322.09
692.7	341.39
693.145	358.39
693.589	494.39
694.034	794.29
694.478	1100.19
694.923	1307.49
695.367	1738.99
695.812	905.09
696.256	368.09
696.701	264.29
697.145	252.69
697.59	231.39
698.034	229.89
698.478	232.59
698.922	228.79
699.367	232.89
699.811	240.99
700.255	249.59
700.699	272.79
701.143	297.29
701.588	345.89
702.032	375.79
702.476	375.09
702.92	357.89
703.364	352.99
703.808	445.19
704.252	716.09
704.696	1035.59
705.14	1253.49
705.584	1631.19
706.027	796.69
706.471	377.99
706.915	286.79
707.359	254.79
707.803	223.49
708.246	222.09
708.69	224.59
709.134	228.59
709.577	227.49
710.021	230.49
710.465	219.29
710.908	218.79
711.352	213.69
711.795	218.49
712.239	251.79
712.682	263.79
713.126	291.49
713.569	329.99
714.012	258.69
714.456	227.39
714.899	213.69
715.342	194.99
715.786	185.29
716.229	179.89
716.672	177.59
717.115	172.19
717.558	180.29
718.002	178.19
718.445	182.59
718.888	203.49
719.331	200.59
719.774	208.69
720.217	223.29
720.66	201.99
721.103	198.99
721.546	178.29
721.989	180.59
722.432	157.49
722.874	171.49
723.317	158.39
723.76	167.89
724.203	175.89
724.645	220.49
725.088	308.19
725.531	412.49
725.974	475.89
726.416	393.29
726.859	214.49
727.301	175.09
727.744	167.09
728.187	162.39
728.629	170.89
729.071	171.19
729.514	184.09
729.956	192.19
730.399	197.89
730.841	205.49
731.283	195.49
731.726	188.29
732.168	192.09
732.61	188.89
733.053	205.59
733.495	224.99
733.937	245.89
734.379	278.09
734.821	305.59
735.263	385.29
735.705	580.69
736.148	1099.59
736.59	1866.99
737.032	2341.19
737.474	1914.69
737.916	610.09
738.357	314.39
738.799	238.09
739.241	214.49
739.683	201.59
740.125	213.99
740.567	216.19
741.008	232.79
741.45	235.49
741.892	232.09
742.334	253.79
742.775	268.29
743.217	257.69
743.658	198.39
744.1	181.79
744.542	192.69
744.983	229.09
745.425	259.39
745.866	262.49
746.307	208.69
746.749	199.59
747.19	228.39
747.632	312.19
748.073	603.19
748.514	1297.59
748.956	2084.99
749.397	2630.39
749.838	2184.79
750.279	2251.29
750.72	1144.69
751.162	402.69
751.603	236.19
752.044	179.49
752.485	152.49
752.926	148.09
753.367	146.39
753.808	133.29
754.249	139.09
754.69	132.59
755.131	124.09
755.572	126.99
756.013	128.39
756.453	136.79
756.894	123.09
757.335	137.19
757.776	136.89
758.216	136.29
758.657	139.69
759.098	138.09
759.538	154.99
759.979	190.69
760.42	263.39
760.86	484.49
761.301	1278.69
761.741	3202.69
762.182	5056.19
762.622	3564.69
763.063	1003.99
763.503	393.09
763.943	229.19
764.384	194.19
764.824	190.29
765.264	179.29
765.705	153.59
766.145	136.69
766.585	133.19
767.025	121.09
767.465	116.79
767.906	128.29
768.346	146.19
768.786	149.69
769.226	156.09
769.666	209.69
770.106	421.79
770.546	1084.39
770.986	1996.69
771.426	1837.29
771.866	585.49
772.306	233.49
772.745	150.29
773.185	116.09
773.625	110.79
774.065	104.09
774.505	117.49
774.944	142.99
775.384	259.79
775.824	477.69
776.263	479.69
776.703	220.49
777.142	118.89
777.582	94.59
778.021	82.59
778.461	87.89
778.9	93.19
779.34	91.19
779.779	77.49
780.219	74.49
780.658	67.39
781.097	74.69
781.537	80.49
781.976	69.89
782.415	73.19
782.855	70.69
783.294	71.49
783.733	69.49
784.172	73.69
784.611	70.89
785.05	78.59
785.489	74.49
785.928	88.99
786.367	85.39
786.806	74.79
787.245	87.49
787.684	94.09
788.123	112.39
788.562	97.99
789.001	89.09
789.44	83.29
789.879	77.69
790.317	89.39
790.756	93.59
791.195	85.39
791.634	102.79
792.072	141.59
792.511	243.89
792.95	685.99
793.388	1570.59
793.827	1502.39
794.265	510.19
794.704	210.79
795.142	129.79
795.581	106.09
796.019	100.49
796.458	92.79
796.896	89.69
797.334	88.29
797.773	107.49
798.211	155.19
798.649	297.89
799.087	723.49
799.526	1173.29
799.964	1486.19
800.402	1575.89
800.84	579.39
801.278	218.19
801.716	135.69
802.154	110.69
802.592	107.19
803.03	101.69
803.468	92.19
803.906	103.09
804.344	111.99
804.782	106.59
805.22	97.19
805.658	90.09
806.096	104.59
806.533	107.79
806.971	125.69
807.409	153.29
807.847	222.39
808.284	456.79
808.722	1350.89
809.16	2526.59
809.597	2323.69
810.035	4107.39
810.472	4698.29
810.91	1668.69
811.347	621.39
811.785	299.59
812.222	192.79
812.66	146.19
813.097	121.59
813.535	105.89
813.972	86.29
814.409	85.99
814.846	79.59
815.284	78.09
815.721	63.79
816.158	77.69
816.595	68.99
817.032	117.09
817.47	143.59
817.907	110.59
818.344	76.89
818.781	67.59
819.218	65.99
819.655	89.79
820.092	142.09
820.529	175.59
820.966	129.59
821.403	100.29
821.839	65.39
822.276	64.29
822.713	90.69
823.15	108.09
823.587	85.09
824.023	104.59
824.46	206.69
824.897	638.49
825.333	1040.29
825.77	451.79
826.206	169.99
826.643	99.69
827.08	77.59
827.516	56.49
827.953	53.39
828.389	56.49
828.825	48.99
829.262	52.99
829.698	42.79
830.135	49.49
830.571	42.89
831.007	47.79
831.443	43.79
831.88	39.79
832.316	39.29
832.752	37.69
833.188	43.19
833.624	37.99
834.06	50.99
834.497	45.59
834.933	51.59
835.369	52.99
835.805	45.79
836.241	50.89
836.677	52.09
837.112	63.19
837.548	67.49
837.984	97.49
838.42	141.49
838.856	352.69
839.292	1120.29
839.727	1811.09
840.163	829.19
840.599	679.29
841.034	1534.19
841.47	1701.99
841.906	609.19
842.341	241.49
842.777	143.69
843.212	160.99
843.648	153.99
844.083	86.09
844.519	58.39
844.954	52.09
845.39	39.09
845.825	40.99
846.261	33.29
846.696	44.69
847.131	36.79
847.566	40.99
848.002	36.49
848.437	33.99
848.872	38.29
849.307	39.69
849.742	58.89
850.177	122.19
850.613	394.49
851.048	672.69
851.483	284.79
851.918	115.79
852.353	64.49
852.788	35.29
853.223	45.69
853.657	40.59
854.092	27.49
854.527	33.79
854.962	26.59
855.397	32.69
855.832	36.29
856.266	28.39
856.701	28.89
857.136	29.49
857.57	25.49
858.005	34.59
858.44	47.99
858.874	27.39
859.309	41.99
859.743	20.39
860.178	34.09
860.612	25.59
861.047	41.49
861.481	50.19
861.915	53.79
862.35	40.79
862.784	17.79
863.218	30.39
863.653	20.79
864.087	35.99
864.521	35.99
864.955	48.49
865.39	107.49
865.824	125.79
866.258	83.49
866.692	135.69
867.126	158.49
867.56	89.19
867.994	37.49
868.428	24.59
868.862	34.99
869.296	49.19
869.73	46.39
870.164	39.29
870.598	33.39
871.031	24.19
871.465	21.39
871.899	25.39
872.333	12.79
872.766	20.59
873.2	11.39
873.634	17.99
874.067	18.69
874.501	18.69
874.935	22.89
875.368	14.79
875.802	18.99
876.235	19.89
876.669	15.89
877.102	16.09
877.535	16.59
877.969	10.69
878.402	14.59
878.836	13.39
879.269	9.89
879.702	17.89
880.135	13.59
880.569	11.49
881.002	22.19
881.435	22.69
881.868	10.29
882.301	19.39
882.734	8.89
883.167	17.29
883.601	18.49
884.034	15.09
884.467	7.19
884.899	15.69
885.332	8.69
885.765	8.79
886.198	12.49
886.631	9.89
887.064	15.29
887.497	10.59
887.929	12.59
888.362	5.29
888.795	5.19
889.228	14.29
889.66	15.59
890.093	9.09
890.526	12.29
890.958	12.29
891.391	16.59
891.823	19.29
892.256	12.59
892.688	11.29
893.121	14.09
893.553	5.59
893.985	14.79
894.418	12.09
894.85	8.09
895.282	10.29
895.715	15.99
896.147	12.39
896.579	11.19
897.011	12.19
897.444	9.99
897.876	4.99
898.308	10.79
898.74	13.99
899.172	8.59
899.604	14.69
900.036	8.59
900.468	6.99
900.9	6.79
901.332	11.09
901.764	8.69
902.196	7.09
902.628	11.39
903.06	10.59
903.491	15.99
903.923	18.79
904.355	8.99
904.787	24.49
905.218	12.29
905.65	15.29
906.082	10.39
906.513	10.19
906.945	10.49
907.376	5.89
907.808	9.69
908.239	13.19
908.671	10.19
909.102	13.69
909.534	17.69
909.965	37.29
910.397	67.19
910.828	241.99
911.259	382.19
911.691	168.39
912.122	77.79
912.553	43.99
912.984	25.49
913.415	14.29
913.847	14.49
914.278	10.09
914.709	11.39
915.14	13.09
915.571	17.09
916.002	9.29
916.433	15.69
916.864	9.09
917.295	7.59
917.726	13.09
918.157	15.09
918.587	19.79
919.018	15.49
919.449	13.29
919.88	18.49
920.311	27.49
920.741	31.39
921.172	122.89
921.603	113.99
922.033	59.29
922.464	32.49
922.895	17.39
923.325	14.29
923.756	3.99
924.186	3.59
924.617	15.29
925.047	16.09
925.478	19.59
925.908	18.99
926.338	6.29
926.769	10.69
927.199	15.09
927.629	6.09
928.06	10.79
928.49	9.09
928.92	10.49
929.35	7.99
929.78	10.99
930.21	4.29
930.641	5.89
931.071	3.99
931.501	-5.51
931.931	9.99
932.361	0.79
932.791	-3.21
933.221	2.89
933.651	5.99
934.08	14.89
934.51	22.49
934.94	5.49
935.37	8.49
935.8	5.59
936.229	6.19
936.659	3.49
937.089	-5.61
937.519	9.79
937.948	17.29
938.378	12.89
938.807	-0.01
939.237	-1.11
939.666	4.59
940.096	-3.91
940.525	5.49
940.955	-3.91
941.384	7.19
941.814	-8.61
942.243	-6.91
942.672	3.69
943.102	-4.11
943.531	-3.11
943.96	2.49
944.39	0.19
944.819	-0.31
945.248	1.89
945.677	5.19
946.106	4.09
946.535	5.79
946.964	0.39
947.393	4.89
947.822	-3.11
948.251	-4.91
948.68	0.09
949.109	6.69
949.538	-4.01
949.967	-0.31
950.396	1.39
950.825	0.99
951.254	1.99
951.682	-11.51
952.111	3.49
952.54	3.39
952.969	-1.31
953.397	-11.51
953.826	-0.01
954.254	-5.01
954.683	-3.41
955.112	-5.71
955.54	-4.21
955.969	0.59
956.397	-5.31
956.826	-1.61
957.254	2.29
957.682	2.59
958.111	4.79
958.539	-0.21
958.967	-1.61
959.396	-2.81
959.824	4.29
960.252	3.49
960.68	-0.91
961.109	-3.41
961.537	-4.31
961.965	-0.61
962.393	0.09
962.821	-9.91
963.249	-3.61
963.677	4.79
964.105	2.59
964.533	30.29
964.961	29.39
965.389	17.79
965.817	3.79
966.245	2.29
966.672	3.39
967.1	-7.81
967.528	4.39
967.956	-7.31
968.383	2.19
968.811	-2.51
969.239	-1.61
969.666	-3.21
970.094	-0.81
970.522	-1.01
970.949	-7.81
971.377	-6.31
971.804	-2.51
972.232	-1.71
972.659	-1.51
973.087	-5.51
973.514	-3.41
973.941	-5.51
974.369	1.09
974.796	-1.41
975.223	0.19
975.651	-8.41
976.078	3.19
976.505	-0.51
976.932	4.89
977.359	10.09
977.786	12.29
978.214	1.79
978.641	-0.61
979.068	-4.91
979.495	-9.71
979.922	-1.81
980.349	-1.61
980.776	5.29
981.202	-5.61
981.629	-0.51
982.056	-0.21
982.483	-4.81
982.91	2.89
983.337	-9.41
983.763	7.49
984.19	-3.61
984.617	-6.61
985.043	-5.01
985.47	-4.01
985.897	-1.91
986.323	-12.61
986.75	1.59
987.176	-4.31
987.603	0.39
988.029	-0.41
988.456	-3.01
988.882	-2.41
989.308	-5.41
989.735	-6.41
990.161	-0.41
990.587	-2.01
991.014	-4.01
991.44	5.89
991.866	-1.61
992.292	-9.41
992.719	-2.61
993.145	5.49
993.571	-7.51
993.997	2.99
994.423	-0.01
994.849	-5.61
995.275	1.39
995.701	-2.71
996.127	-4.91
996.553	-1.41
996.979	-0.61
997.405	-0.91
997.83	-6.61
998.256	-7.81
998.682	-3.71
999.108	-10.61
999.534	-3.71
999.959	-0.21
1000.385	-6.11
1000.811	2.39
1001.236	-8.01
1001.662	-5.51
1002.087	-6.81
1002.513	2.59
1002.938	-3.01
1003.364	-0.11
1003.789	3.89
1004.215	0.79
1004.64	1.99
1005.066	1.89
1005.491	3.09
1005.916	2.69
1006.342	-8.21
1006.767	-9.31
1007.192	2.29
1007.617	-0.61
1008.042	-4.11
1008.468	-8.01
1008.893	-3.61
1009.318	-3.21
1009.743	-6.31
1010.168	1.49
1010.593	-0.11
1011.018	-3.51
1011.443	-1.21
1011.868	0.49
1012.293	1.39
1012.718	-12.51
1013.143	-6.31
1013.567	2.29
1013.992	-3.51
1014.417	-11.11
1014.842	1.29
1015.267	-4.31
1015.691	-5.11
1016.116	5.59
1016.541	0.59
1016.965	5.79
1017.39	0.29
1017.814	-2.61
1018.239	2.19
1018.663	-2.01
1019.088	-13.41
1019.512	-8.71
1019.937	-1.01
1020.361	-7.11
1020.785	-9.91
1021.21	-3.11
1021.634	-0.51
1022.058	-2.71
1022.483	6.69
1022.907	-7.81
1023.331	-3.21
1023.755	-3.01
1024.179	0.09
1024.604	-6.51
1025.028	-5.31
1025.452	2.19
1025.876	7.29
1026.3	-0.81
1026.724	-15.11
1027.148	-0.41
1027.572	-11.51
1027.996	-2.41
1028.42	0.29
1028.843	-0.81
1029.267	-1.11
1029.691	-2.71
1030.115	-13.61
1030.539	-9.81
1030.962	-5.41
1031.386	-10.41
1031.81	-3.91
1032.233	0.99
1032.657	-3.31
1033.08	-4.31
1033.504	-7.11
1033.927	-10.41
1034.351	0.09
1034.774	-9.71
1035.198	-3.81
1035.621	-10.01
1036.045	-10.31
1036.468	0.09
1036.891	-8.81
1037.315	-10.61
1037.738	-7.71
1038.161	-0.71
1038.584	-5.41
1039.008	-4.71
1039.431	-0.91
1039.854	-3.71
1040.277	-14.21
1040.7	-7.51
1041.123	-2.21
1041.546	-1.51
1041.969	-2.41
1042.392	-6.61
1042.815	-0.31
1043.238	2.09
1043.661	8.59
1044.084	-8.81
1044.507	-3.21
1044.93	-4.81
1045.352	-2.21
1045.775	-3.81
1046.198	-0.71
1046.621	-2.61
1047.043	-1.31
1047.466	11.39
1047.889	0.79
1048.311	-0.01
1048.734	3.29
1049.156	-5.71
1049.579	-4.31
1050.001	-2.01
1050.424	4.89
1050.846	-8.11
1051.269	-8.91
1051.691	-9.31
1052.113	-4.51
1052.536	-0.71
1052.958	-2.81
1053.38	-5.41
1053.802	-11.41
1054.225	1.89
1054.647	-8.11
1055.069	-3.11
1055.491	-3.41
1055.913	-9.41
1056.335	-3.41
1056.757	-7.11
1057.179	-6.41
1057.601	0.89
1058.023	-2.81
1058.445	-2.11
1058.867	-6.31
1059.289	-0.11
1059.711	-5.81
1060.133	-2.81
1060.555	-9.81
1060.976	-6.51
1061.398	-5.21
1061.82	-3.61
1062.241	-7.01
1062.663	-11.41
1063.085	-6.51
1063.506	-1.11
1063.928	-2.21
1064.35	-0.31
1064.771	-11.01
1065.193	2.69
1065.614	-7.91
1066.035	-5.01
1066.457	-3.11
1066.878	-1.71
1067.3	-8.91
1067.721	-7.31
1068.142	-5.11
1068.564	-4.51
1068.985	-5.11
1069.406	-4.41
1069.827	-2.31
1070.248	0.09
1070.67	-6.91
1071.091	-2.11
1071.512	-7.51
1071.933	-1.41
1072.354	-13.51
1072.775	-8.31
1073.196	-9.11
1073.617	2.19
1074.038	-0.71
1074.459	-5.11
1074.88	-4.71
1075.3	4.29
1075.721	-1.21
1076.142	1.59
1076.563	-0.71
1076.983	-11.81
1077.404	-6.61
1077.825	-7.51
1078.246	-0.81
1078.666	-10.61
1079.087	-4.41
1079.507	-2.81
1079.928	-2.91
1080.348	-1.81
1080.769	-4.21
1081.189	-2.01
1081.61	-2.81
1082.03	-4.01
1082.451	-5.01
1082.871	-9.41
1083.291	-8.51
1083.711	-10.01
1084.132	-3.01
1084.552	-4.01
1084.972	-0.71
1085.392	-8.01
1085.813	-10.81
1086.233	-8.11
1086.653	-5.01
1087.073	0.69
1087.493	-8.71
1087.913	-3.61
1088.333	-4.71
1088.753	-6.31
1089.173	-2.81
1089.593	-4.51
1090.013	-2.11
1090.433	-0.31
1090.852	-0.41
1091.272	-5.21
1091.692	-6.51
1092.112	-2.41
1092.531	-7.41
1092.951	-12.41
1093.371	-3.81
1093.79	4.49
1094.21	-3.71
1094.63	-5.71
1095.049	-8.71
1095.469	-1.01
1095.888	-5.91
1096.308	1.89
1096.727	2.09
1097.146	-6.61
1097.566	0.29
1097.985	-2.41
1098.405	-6.01
1098.824	-8.11
1099.243	-8.21
1099.662	-6.11
1100.082	-6.31
1100.501	-3.81
1100.92	-7.81
1101.339	-4.51
1101.758	-7.41
