Data from 20171114-ORNL-Ar_H_NY_Subt18_08-03-53-600.txt Node
Date: Tue Nov 14 08:03:53 EST 2017
User: Ender
Spectrometer: HR+D1039
Trigger mode: 0
Integration Time (sec): 2.730000E-2
Scans to average: 10
Electric dark correction enabled: true
Nonlinearity correction enabled: false
Boxcar width: 0
XAxis mode: Wavelengths
Number of Pixels in Spectrum: 2048
>>>>>Begin Spectral Data<<<<<
187.836	-1.79
188.309	-1.79
188.782	-1.79
189.255	7.61
189.728	-3.79
190.201	5.61
190.674	1.01
191.147	0.21
191.619	-6.59
192.092	1.11
192.565	1.91
193.038	-1.29
193.511	-4.39
193.984	0.71
194.456	-5.09
194.929	2.51
195.402	1.41
195.874	0.81
196.347	1.21
196.82	-3.09
197.292	10.71
197.765	3.01
198.237	-1.89
198.71	3.81
199.182	-2.99
199.655	-0.19
200.127	4.21
200.6	-1.29
201.072	-3.09
201.544	-2.89
202.017	-4.49
202.489	5.71
202.961	-1.49
203.433	-0.99
203.906	-0.99
204.378	-3.19
204.85	-0.49
205.322	-6.99
205.794	-4.49
206.266	-0.89
206.739	-9.29
207.211	1.41
207.683	-2.59
208.155	0.31
208.627	-3.79
209.099	4.21
209.57	-8.79
210.042	-2.69
210.514	-5.29
210.986	-1.99
211.458	-13.79
211.93	-0.39
212.402	-0.59
212.873	-5.79
213.345	-7.59
213.817	-15.79
214.288	-3.39
214.76	-2.89
215.232	-0.49
215.703	-7.69
216.175	-3.69
216.646	-4.39
217.118	-3.09
217.589	1.91
218.061	-1.69
218.532	-0.39
219.004	1.61
219.475	-1.29
219.946	-6.39
220.418	-5.39
220.889	2.51
221.36	1.71
221.832	-3.19
222.303	-6.19
222.774	3.41
223.245	-12.99
223.717	-7.29
224.188	-9.59
224.659	-1.49
225.13	-1.89
225.601	-6.69
226.072	3.11
226.543	2.21
227.014	2.51
227.485	-1.19
227.956	-7.09
228.427	-4.89
228.898	1.71
229.369	2.21
229.839	-3.69
230.31	-3.29
230.781	3.01
231.252	-1.79
231.722	-5.29
232.193	-9.19
232.664	-0.89
233.135	-3.19
233.605	-0.79
234.076	-8.19
234.546	0.71
235.017	3.71
235.487	4.71
235.958	-4.79
236.428	-4.69
236.899	0.01
237.369	0.51
237.84	-6.69
238.31	-1.49
238.78	2.61
239.251	-6.99
239.721	-1.99
240.191	-5.49
240.662	-3.79
241.132	-2.49
241.602	-6.59
242.072	-3.99
242.542	2.91
243.013	-1.29
243.483	2.91
243.953	-0.49
244.423	-3.39
244.893	-7.09
245.363	-2.29
245.833	1.61
246.303	-3.99
246.773	3.11
247.243	2.01
247.712	-4.69
248.182	1.41
248.652	4.01
249.122	-3.39
249.592	1.81
250.061	-0.79
250.531	6.71
251.001	4.11
251.471	10.21
251.94	7.11
252.41	-0.49
252.879	-7.69
253.349	9.41
253.818	5.71
254.288	-0.29
254.757	-2.19
255.227	1.01
255.696	-3.89
256.166	5.01
256.635	5.21
257.105	4.11
257.574	-1.29
258.043	1.91
258.513	-5.39
258.982	4.31
259.451	-4.59
259.92	-1.09
260.389	6.31
260.859	4.11
261.328	5.81
261.797	10.51
262.266	2.71
262.735	4.71
263.204	4.01
263.673	-0.79
264.142	4.91
264.611	-7.29
265.08	3.11
265.549	-3.49
266.018	6.31
266.487	-4.09
266.955	4.61
267.424	1.31
267.893	8.41
268.362	1.41
268.83	2.21
269.299	5.21
269.768	8.51
270.236	4.01
270.705	-0.39
271.174	0.61
271.642	3.71
272.111	5.71
272.579	5.11
273.048	5.61
273.516	-0.19
273.985	1.71
274.453	4.41
274.922	9.01
275.39	6.31
275.858	-1.69
276.327	3.31
276.795	12.81
277.263	1.41
277.731	14.71
278.2	2.51
278.668	14.21
279.136	10.01
279.604	7.51
280.072	5.71
280.54	2.71
281.008	7.81
281.477	3.11
281.945	9.91
282.413	8.41
282.881	7.11
283.348	4.01
283.816	7.61
284.284	7.41
284.752	11.31
285.22	10.71
285.688	7.61
286.156	7.31
286.623	14.81
287.091	10.61
287.559	13.81
288.026	11.61
288.494	11.31
288.962	6.41
289.429	0.51
289.897	8.61
290.364	7.31
290.832	6.71
291.3	5.21
291.767	9.11
292.234	14.61
292.702	10.51
293.169	9.81
293.637	13.71
294.104	12.41
294.571	3.61
295.039	11.31
295.506	10.31
295.973	16.71
296.44	9.81
296.908	10.31
297.375	8.91
297.842	8.61
298.309	6.41
298.776	7.41
299.243	13.31
299.71	11.61
300.177	9.51
300.644	10.41
301.111	7.71
301.578	15.91
302.045	9.61
302.512	18.41
302.979	16.41
303.446	18.11
303.913	10.31
304.379	9.41
304.846	23.31
305.313	13.51
305.78	14.21
306.246	22.11
306.713	17.81
307.18	13.21
307.646	20.11
308.113	16.31
308.579	11.41
309.046	20.61
309.512	16.51
309.979	6.81
310.445	16.01
310.912	22.61
311.378	23.41
311.845	25.21
312.311	26.91
312.777	23.51
313.244	18.81
313.71	30.81
314.176	18.31
314.642	24.21
315.109	21.01
315.575	23.71
316.041	27.71
316.507	20.51
316.973	27.11
317.439	28.91
317.905	24.61
318.371	25.01
318.837	23.71
319.303	20.81
319.769	25.71
320.235	24.21
320.701	33.01
321.167	28.81
321.633	26.61
322.099	25.21
322.564	36.81
323.03	32.11
323.496	36.31
323.962	32.61
324.427	30.61
324.893	29.81
325.359	30.81
325.824	34.11
326.29	32.91
326.755	27.51
327.221	31.21
327.686	29.91
328.152	33.21
328.617	33.01
329.083	31.71
329.548	44.71
330.014	42.21
330.479	31.41
330.944	35.41
331.41	38.21
331.875	36.81
332.34	29.31
332.805	36.21
333.271	30.41
333.736	34.51
334.201	43.61
334.666	40.91
335.131	39.21
335.596	42.01
336.061	41.41
336.526	32.51
336.991	40.91
337.456	50.11
337.921	42.61
338.386	35.11
338.851	42.81
339.316	41.51
339.781	35.91
340.246	44.31
340.711	37.71
341.175	46.71
341.64	36.11
342.105	46.71
342.569	46.81
343.034	55.21
343.499	44.61
343.963	45.71
344.428	53.31
344.893	50.61
345.357	54.41
345.822	51.11
346.286	60.41
346.751	54.91
347.215	66.11
347.679	61.71
348.144	72.51
348.608	71.31
349.073	61.91
349.537	70.31
350.001	67.31
350.465	76.11
350.93	70.81
351.394	67.81
351.858	58.51
352.322	75.41
352.786	68.81
353.25	82.01
353.715	86.11
354.179	86.81
354.643	97.21
355.107	91.11
355.571	86.61
356.035	77.81
356.498	89.21
356.962	90.81
357.426	98.11
357.89	92.11
358.354	77.61
358.818	73.61
359.281	67.91
359.745	71.21
360.209	63.41
360.673	71.71
361.136	69.01
361.6	74.81
362.064	78.51
362.527	69.81
362.991	80.51
363.454	73.51
363.918	77.41
364.381	71.61
364.845	82.41
365.308	82.01
365.772	77.71
366.235	77.41
366.698	79.41
367.162	76.51
367.625	83.61
368.088	85.71
368.552	87.51
369.015	85.71
369.478	93.31
369.941	89.11
370.404	92.01
370.867	93.91
371.331	91.81
371.794	98.51
372.257	87.51
372.72	100.21
373.183	94.11
373.646	87.21
374.109	83.51
374.572	95.11
375.035	93.31
375.497	89.71
375.96	96.21
376.423	94.51
376.886	100.11
377.349	100.21
377.811	97.91
378.274	99.51
378.737	98.61
379.199	106.41
379.662	104.51
380.125	105.61
380.587	104.11
381.05	109.71
381.512	111.31
381.975	119.31
382.437	115.11
382.9	112.21
383.362	114.71
383.825	120.91
384.287	119.01
384.75	113.71
385.212	121.51
385.674	125.11
386.136	126.61
386.599	117.51
387.061	122.61
387.523	124.61
387.985	125.61
388.447	131.11
388.91	121.91
389.372	125.01
389.834	127.61
390.296	122.91
390.758	133.11
391.22	129.61
391.682	143.11
392.144	157.71
392.606	145.31
393.068	143.91
393.529	148.51
393.991	148.91
394.453	130.01
394.915	138.51
395.377	139.71
395.838	142.11
396.3	139.31
396.762	135.31
397.224	128.51
397.685	130.51
398.147	132.21
398.608	131.21
399.07	129.91
399.531	132.01
399.993	141.51
400.454	154.31
400.916	139.71
401.377	142.41
401.839	152.21
402.3	154.61
402.762	166.31
403.223	169.51
403.684	170.31
404.145	160.31
404.607	159.11
405.068	162.31
405.529	162.01
405.99	175.01
406.451	166.11
406.913	166.01
407.374	165.11
407.835	162.31
408.296	171.31
408.757	170.41
409.218	184.11
409.679	170.21
410.14	173.21
410.601	173.91
411.062	181.61
411.522	178.01
411.983	184.71
412.444	177.91
412.905	186.81
413.366	182.91
413.826	203.31
414.287	222.81
414.748	263.21
415.208	254.81
415.669	216.81
416.13	212.41
416.59	209.41
417.051	226.61
417.511	226.81
417.972	253.51
418.432	254.01
418.893	299.61
419.353	260.81
419.814	204.11
420.274	191.31
420.734	189.61
421.195	198.31
421.655	194.71
422.115	188.81
422.576	192.61
423.036	197.91
423.496	205.61
423.956	217.81
424.416	226.41
424.876	273.91
425.336	264.31
425.797	267.71
426.257	254.01
426.717	228.41
427.177	233.61
427.637	218.41
428.097	239.21
428.556	245.51
429.016	270.11
429.476	259.11
429.936	266.11
430.396	272.21
430.856	281.01
431.315	298.41
431.775	328.31
432.235	357.71
432.694	337.21
433.154	336.11
433.614	348.21
434.073	312.41
434.533	269.11
434.993	262.11
435.452	261.71
435.912	269.61
436.371	268.71
436.83	265.71
437.29	248.41
437.749	237.41
438.209	235.01
438.668	253.61
439.127	266.91
439.587	249.61
440.046	241.71
440.505	245.61
440.964	264.01
441.424	282.31
441.883	277.71
442.342	252.71
442.801	218.51
443.26	220.21
443.719	226.71
444.178	221.21
444.637	215.61
445.096	225.31
445.555	220.81
446.014	225.41
446.473	223.61
446.932	232.11
447.391	228.91
447.849	229.41
448.308	219.81
448.767	220.71
449.226	241.31
449.685	239.11
450.143	248.81
450.602	234.31
451.061	225.51
451.519	229.21
451.978	228.61
452.436	225.51
452.895	237.21
453.353	246.21
453.812	232.71
454.27	235.61
454.729	239.91
455.187	240.01
455.646	241.91
456.104	240.91
456.562	250.61
457.021	247.11
457.479	249.01
457.937	260.31
458.395	257.41
458.854	246.61
459.312	244.11
459.77	261.21
460.228	242.31
460.686	244.91
461.144	246.11
461.602	245.41
462.06	243.71
462.518	248.01
462.976	248.81
463.434	255.41
463.892	258.51
464.35	262.31
464.808	275.61
465.266	263.31
465.724	266.71
466.181	272.01
466.639	266.91
467.097	279.01
467.555	291.41
468.012	296.21
468.47	300.91
468.928	311.51
469.385	319.21
469.843	327.91
470.3	328.01
470.758	344.11
471.215	362.11
471.673	378.11
472.13	374.41
472.588	388.91
473.045	359.31
473.503	366.71
473.96	374.81
474.417	384.81
474.875	416.81
475.332	441.81
475.789	436.31
476.246	443.81
476.704	455.91
477.161	475.41
477.618	479.11
478.075	517.81
478.532	563.71
478.989	614.61
479.446	703.51
479.903	686.11
480.36	730.01
480.817	762.81
481.274	856.51
481.731	941.91
482.188	1004.31
482.645	1120.21
483.102	1205.11
483.558	1311.11
484.015	1368.91
484.472	1351.31
484.929	1311.31
485.385	1262.91
485.842	1252.91
486.299	1193.31
486.755	1127.71
487.212	977.51
487.668	848.31
488.125	778.01
488.582	730.21
489.038	690.01
489.494	656.31
489.951	635.31
490.407	621.11
490.864	610.91
491.32	602.11
491.776	587.31
492.233	590.21
492.689	567.71
493.145	555.51
493.602	561.31
494.058	576.81
494.514	566.41
494.97	582.71
495.426	590.41
495.882	576.11
496.338	563.81
496.794	568.51
497.251	558.91
497.707	575.91
498.163	579.91
498.618	586.51
499.074	578.31
499.53	602.01
499.986	599.51
500.442	586.91
500.898	576.21
501.354	567.81
501.809	580.71
502.265	575.21
502.721	579.11
503.177	592.81
503.632	597.41
504.088	599.11
504.543	612.11
504.999	617.91
505.455	600.91
505.91	586.21
506.366	580.21
506.821	584.21
507.277	581.71
507.732	578.31
508.187	584.81
508.643	594.31
509.098	598.81
509.553	607.21
510.009	621.21
510.464	610.91
510.919	628.31
511.375	625.51
511.83	638.61
512.285	654.81
512.74	690.81
513.195	698.41
513.65	686.61
514.105	689.81
514.56	697.41
515.015	708.71
515.47	716.71
515.925	704.71
516.38	702.41
516.835	721.61
517.29	707.31
517.745	697.41
518.2	695.11
518.655	676.11
519.109	666.21
519.564	668.41
520.019	659.91
520.474	633.01
520.928	658.91
521.383	645.21
521.838	643.91
522.292	636.11
522.747	641.41
523.201	635.01
523.656	626.01
524.11	630.41
524.565	628.81
525.019	626.91
525.474	615.21
525.928	615.91
526.382	617.41
526.837	624.91
527.291	624.91
527.745	625.91
528.2	614.81
528.654	609.61
529.108	605.01
529.562	614.31
530.016	611.81
530.47	616.81
530.925	611.11
531.379	611.21
531.833	616.01
532.287	614.11
532.741	616.21
533.195	613.01
533.649	624.91
534.103	625.61
534.556	611.51
535.01	616.31
535.464	613.51
535.918	623.01
536.372	624.81
536.826	623.11
537.279	600.11
537.733	613.61
538.187	619.31
538.64	619.81
539.094	623.81
539.548	628.21
540.001	626.01
540.455	630.81
540.908	637.61
541.362	645.41
541.815	645.31
542.269	656.61
542.722	655.21
543.175	663.91
543.629	664.61
544.082	677.51
544.536	680.51
544.989	667.31
545.442	690.41
545.895	678.81
546.349	685.51
546.802	686.51
547.255	690.81
547.708	685.61
548.161	703.51
548.614	704.41
549.067	715.11
549.52	695.01
549.973	693.21
550.426	682.31
550.879	681.61
551.332	678.91
551.785	685.91
552.238	687.31
552.691	696.91
553.144	698.01
553.596	718.11
554.049	730.31
554.502	758.31
554.955	762.41
555.407	768.51
555.86	767.31
556.313	740.31
556.765	739.41
557.218	746.21
557.67	738.21
558.123	727.81
558.576	726.31
559.028	737.81
559.48	740.11
559.933	738.71
560.385	706.41
560.838	700.21
561.29	661.41
561.742	649.61
562.195	640.61
562.647	643.51
563.099	655.41
563.551	647.41
564.004	659.51
564.456	650.31
564.908	629.51
565.36	612.31
565.812	604.01
566.264	589.71
566.716	590.61
567.168	586.01
567.62	581.71
568.072	577.81
568.524	563.41
568.976	568.51
569.428	552.61
569.88	554.21
570.332	559.41
570.784	565.51
571.235	562.31
571.687	565.41
572.139	576.31
572.59	574.31
573.042	576.21
573.494	592.91
573.945	578.61
574.397	554.61
574.849	556.81
575.3	560.01
575.752	549.81
576.203	550.91
576.655	562.51
577.106	543.41
577.557	542.01
578.009	538.31
578.46	544.11
578.912	530.11
579.363	541.01
579.814	540.41
580.265	535.41
580.717	541.41
581.168	535.01
581.619	552.51
582.07	549.71
582.521	539.61
582.972	535.61
583.423	538.31
583.875	530.81
584.326	542.61
584.777	553.51
585.227	575.01
585.678	595.21
586.129	625.91
586.58	638.61
587.031	668.51
587.482	702.71
587.933	734.71
588.384	700.41
588.834	644.61
589.285	619.21
589.736	620.01
590.186	614.51
590.637	607.61
591.088	592.71
591.538	585.91
591.989	574.91
592.439	576.61
592.89	565.81
593.34	559.01
593.791	545.91
594.241	546.31
594.692	549.51
595.142	536.61
595.593	543.21
596.043	547.11
596.493	552.91
596.943	554.01
597.394	557.91
597.844	558.11
598.294	574.81
598.744	596.41
599.195	605.11
599.645	639.21
600.095	659.01
600.545	708.41
600.995	747.11
601.445	796.31
601.895	838.11
602.345	871.51
602.795	875.41
603.245	832.51
603.695	786.41
604.145	735.01
604.594	710.71
605.044	670.31
605.494	615.51
605.944	587.31
606.393	573.91
606.843	558.21
607.293	563.91
607.743	555.11
608.192	564.21
608.642	565.31
609.091	572.31
609.541	578.61
609.99	572.01
610.44	572.51
610.889	546.51
611.339	533.81
611.788	508.21
612.238	526.71
612.687	533.81
613.136	532.01
613.586	536.71
614.035	530.61
614.484	542.31
614.933	549.41
615.383	537.11
615.832	530.51
616.281	527.61
616.73	512.81
617.179	493.41
617.628	484.51
618.077	470.31
618.526	469.51
618.975	464.81
619.424	464.91
619.873	452.91
620.322	461.11
620.771	451.81
621.22	449.71
621.669	450.91
622.118	449.71
622.567	442.21
623.015	420.41
623.464	426.41
623.913	414.91
624.361	412.41
624.81	404.91
625.259	419.01
625.707	416.31
626.156	415.81
626.604	430.41
627.053	418.81
627.501	420.51
627.95	431.81
628.398	438.11
628.847	424.31
629.295	430.31
629.744	427.51
630.192	417.21
630.64	420.31
631.089	405.51
631.537	403.91
631.985	388.91
632.433	399.01
632.881	394.71
633.33	400.71
633.778	386.51
634.226	388.31
634.674	393.41
635.122	392.71
635.57	405.81
636.018	416.11
636.466	414.21
636.914	413.61
637.362	423.61
637.81	428.21
638.258	424.91
638.705	418.11
639.153	445.91
639.601	456.11
640.049	476.71
640.497	499.91
640.944	514.71
641.392	477.31
641.84	445.31
642.287	420.21
642.735	411.81
643.182	422.21
643.63	418.01
644.078	413.71
644.525	418.61
644.973	429.61
645.42	425.11
645.867	448.71
646.315	456.11
646.762	475.11
647.21	495.81
647.657	501.31
648.104	534.11
648.551	549.81
648.999	584.11
649.446	637.51
649.893	684.51
650.34	778.71
650.787	930.71
651.234	1140.41
651.682	1447.31
652.129	1943.81
652.576	2739.21
653.023	4020.31
653.47	5550.91
653.917	7028.51
654.363	8285.71
654.81	9330.91
655.257	8890.11
655.704	5890.21
656.151	3479.81
656.598	2293.91
657.044	1634.71
657.491	1258.71
657.938	1010.71
658.385	854.61
658.831	741.51
659.278	664.71
659.724	596.61
660.171	545.41
660.618	500.01
661.064	470.61
661.511	460.41
661.957	446.41
662.404	436.41
662.85	440.81
663.296	427.41
663.743	403.21
664.189	388.31
664.635	383.01
665.082	380.41
665.528	373.61
665.974	364.71
666.42	361.81
666.867	357.81
667.313	341.41
667.759	344.81
668.205	326.51
668.651	322.51
669.097	329.31
669.543	321.41
669.989	318.81
670.435	322.31
670.881	323.11
671.327	329.51
671.773	337.11
672.219	349.91
672.665	385.31
673.11	423.81
673.556	453.81
674.002	496.21
674.448	481.01
674.893	402.81
675.339	348.91
675.785	319.41
676.23	305.21
676.676	281.21
677.122	277.91
677.567	270.11
678.013	265.61
678.458	262.61
678.904	262.01
679.349	247.91
679.794	249.21
680.24	245.81
680.685	254.51
681.131	252.81
681.576	249.31
682.021	251.61
682.466	250.61
682.912	244.31
683.357	251.51
683.802	277.51
684.247	292.71
684.692	316.21
685.137	354.21
685.583	382.21
686.028	406.61
686.473	378.01
686.918	318.71
687.363	297.51
687.807	280.51
688.252	262.31
688.697	257.31
689.142	238.41
689.587	233.11
690.032	225.71
690.477	246.21
690.921	249.01
691.366	271.51
691.811	285.71
692.255	307.11
692.7	329.11
693.145	351.11
693.589	471.41
694.034	780.11
694.478	1093.11
694.923	1278.81
695.367	1733.61
695.812	889.01
696.256	358.61
696.701	270.71
697.145	246.11
697.59	237.01
698.034	231.41
698.478	237.51
698.922	233.91
699.367	227.61
699.811	227.91
700.255	244.91
700.699	265.91
701.143	288.61
701.588	334.91
702.032	374.31
702.476	375.71
702.92	358.01
703.364	353.31
703.808	436.81
704.252	715.01
704.696	1021.31
705.14	1223.31
705.584	1600.41
706.027	789.01
706.471	376.31
706.915	285.01
707.359	257.91
707.803	226.01
708.246	221.81
708.69	218.61
709.134	222.31
709.577	221.81
710.021	223.31
710.465	213.51
710.908	220.01
711.352	212.11
711.795	222.11
712.239	249.91
712.682	269.71
713.126	295.41
713.569	327.21
714.012	254.91
714.456	221.31
714.899	207.71
715.342	194.71
715.786	188.31
716.229	187.61
716.672	190.91
717.115	174.61
717.558	171.31
718.002	174.31
718.445	183.31
718.888	199.11
719.331	209.61
719.774	213.31
720.217	218.41
720.66	203.41
721.103	191.01
721.546	175.41
721.989	172.41
722.432	158.41
722.874	168.11
723.317	163.01
723.76	170.51
724.203	177.61
724.645	215.91
725.088	298.11
725.531	396.91
725.974	476.61
726.416	395.61
726.859	217.61
727.301	175.71
727.744	165.71
728.187	163.61
728.629	169.01
729.071	170.41
729.514	183.51
729.956	189.81
730.399	202.11
730.841	204.31
731.283	195.01
731.726	186.81
732.168	186.21
732.61	194.41
733.053	201.01
733.495	211.91
733.937	245.71
734.379	276.91
734.821	301.61
735.263	379.81
735.705	575.51
736.148	1093.61
736.59	1824.81
737.032	2291.41
737.474	1885.91
737.916	598.41
738.357	304.91
738.799	240.21
739.241	214.11
739.683	199.21
740.125	211.71
740.567	216.41
741.008	227.41
741.45	225.21
741.892	226.81
742.334	254.61
742.775	267.61
743.217	256.71
743.658	200.41
744.1	184.11
744.542	186.41
744.983	228.61
745.425	261.51
745.866	263.61
746.307	202.81
746.749	195.81
747.19	221.21
747.632	311.01
748.073	590.31
748.514	1287.91
748.956	2053.51
749.397	2591.21
749.838	2147.71
750.279	2250.61
750.72	1138.81
751.162	405.71
751.603	232.71
752.044	185.61
752.485	153.81
752.926	149.51
753.367	145.61
753.808	133.21
754.249	140.71
754.69	128.81
755.131	128.11
755.572	130.21
756.013	121.51
756.453	131.91
756.894	130.81
757.335	132.11
757.776	133.51
758.216	136.51
758.657	136.91
759.098	142.51
759.538	164.21
759.979	187.31
760.42	254.51
760.86	476.51
761.301	1253.41
761.741	3153.61
762.182	4952.31
762.622	3537.21
763.063	997.41
763.503	396.01
763.943	236.21
764.384	202.51
764.824	196.21
765.264	189.61
765.705	163.21
766.145	125.71
766.585	122.51
767.025	122.91
767.465	115.61
767.906	131.61
768.346	154.91
768.786	157.01
769.226	156.11
769.666	212.01
770.106	412.61
770.546	1053.61
770.986	1955.11
771.426	1803.31
771.866	586.41
772.306	233.91
772.745	141.51
773.185	115.41
773.625	115.91
774.065	107.91
774.505	122.61
774.944	148.21
775.384	269.91
775.824	489.71
776.263	485.21
776.703	224.01
777.142	118.81
777.582	99.91
778.021	86.91
778.461	91.11
778.9	84.31
779.34	91.91
779.779	79.61
780.219	71.01
780.658	70.51
781.097	73.81
781.537	79.11
781.976	82.21
782.415	75.21
782.855	74.41
783.294	73.91
783.733	72.41
784.172	71.61
784.611	72.51
785.05	76.41
785.489	81.01
785.928	82.41
786.367	89.21
786.806	80.51
787.245	94.41
787.684	95.71
788.123	100.31
788.562	88.41
789.001	85.51
789.44	87.21
789.879	86.41
790.317	93.91
790.756	86.91
791.195	90.01
791.634	98.61
792.072	144.41
792.511	251.51
792.95	682.01
793.388	1553.01
793.827	1484.71
794.265	491.61
794.704	200.71
795.142	129.91
795.581	108.71
796.019	101.41
796.458	87.21
796.896	87.81
797.334	92.21
797.773	109.01
798.211	156.91
798.649	292.11
799.087	719.41
799.526	1150.21
799.964	1455.91
800.402	1535.41
800.84	564.71
801.278	219.71
801.716	138.71
802.154	108.51
802.592	103.71
803.03	101.61
803.468	95.91
803.906	98.81
804.344	109.31
804.782	92.61
805.22	92.31
805.658	92.31
806.096	105.71
806.533	118.51
806.971	124.81
807.409	158.01
807.847	224.61
808.284	445.01
808.722	1310.71
809.16	2480.71
809.597	2285.11
810.035	4046.31
810.472	4625.21
810.91	1639.31
811.347	609.71
811.785	305.01
812.222	189.71
812.66	146.41
813.097	118.61
813.535	101.01
813.972	86.21
814.409	88.21
814.846	74.51
815.284	72.81
815.721	69.91
816.158	71.01
816.595	76.31
817.032	109.31
817.47	142.21
817.907	113.81
818.344	75.31
818.781	71.21
819.218	68.41
819.655	83.61
820.092	140.71
820.529	177.31
820.966	132.31
821.403	94.91
821.839	70.91
822.276	68.71
822.713	83.61
823.15	104.71
823.587	89.31
824.023	99.21
824.46	196.41
824.897	637.11
825.333	1020.71
825.77	438.61
826.206	170.41
826.643	101.91
827.08	68.21
827.516	57.91
827.953	48.91
828.389	59.81
828.825	48.81
829.262	49.81
829.698	40.31
830.135	42.31
830.571	42.71
831.007	45.51
831.443	43.81
831.88	41.01
832.316	44.11
832.752	44.21
833.188	45.81
833.624	38.41
834.06	51.01
834.497	50.41
834.933	50.91
835.369	59.11
835.805	47.81
836.241	51.71
836.677	56.61
837.112	70.81
837.548	74.41
837.984	92.81
838.42	145.71
838.856	339.21
839.292	1106.11
839.727	1779.31
840.163	814.61
840.599	658.61
841.034	1504.91
841.47	1687.61
841.906	599.41
842.341	236.01
842.777	144.21
843.212	154.01
843.648	149.81
844.083	81.51
844.519	58.81
844.954	48.51
845.39	40.31
845.825	37.91
846.261	40.81
846.696	39.91
847.131	40.71
847.566	44.91
848.002	42.51
848.437	32.41
848.872	40.51
849.307	43.81
849.742	63.11
850.177	122.51
850.613	392.71
851.048	657.21
851.483	286.01
851.918	107.91
852.353	59.11
852.788	37.31
853.223	31.71
853.657	40.01
854.092	39.21
854.527	28.81
854.962	29.41
855.397	32.61
855.832	33.21
856.266	29.11
856.701	32.31
857.136	22.61
857.57	31.91
858.005	30.81
858.44	39.61
858.874	27.51
859.309	41.41
859.743	30.71
860.178	37.11
860.612	27.61
861.047	33.91
861.481	49.61
861.915	53.81
862.35	40.81
862.784	24.41
863.218	31.41
863.653	20.61
864.087	36.11
864.521	41.61
864.955	47.81
865.39	107.01
865.824	128.31
866.258	85.31
866.692	132.91
867.126	146.61
867.56	90.61
867.994	41.51
868.428	33.51
868.862	37.51
869.296	42.61
869.73	44.11
870.164	44.61
870.598	31.41
871.031	31.41
871.465	21.81
871.899	21.81
872.333	17.21
872.766	18.71
873.2	20.31
873.634	22.91
874.067	29.21
874.501	13.91
874.935	23.41
875.368	22.11
875.802	22.41
876.235	17.61
876.669	19.01
877.102	16.41
877.535	18.61
877.969	12.61
878.402	17.81
878.836	10.41
879.269	17.81
879.702	20.51
880.135	18.91
880.569	9.71
881.002	22.51
881.435	15.81
881.868	10.01
882.301	16.71
882.734	15.41
883.167	22.41
883.601	16.91
884.034	15.91
884.467	9.81
884.899	13.61
885.332	6.11
885.765	5.21
886.198	12.91
886.631	12.71
887.064	14.21
887.497	13.31
887.929	19.81
888.362	12.31
888.795	5.01
889.228	12.51
889.66	18.41
890.093	14.01
890.526	11.91
890.958	9.01
891.391	7.21
891.823	17.21
892.256	10.51
892.688	8.31
893.121	12.21
893.553	14.91
893.985	15.71
894.418	16.71
894.85	12.01
895.282	12.71
895.715	13.51
896.147	15.91
896.579	7.91
897.011	9.81
897.444	13.31
897.876	10.51
898.308	9.61
898.74	10.01
899.172	4.01
899.604	15.81
900.036	16.61
900.468	12.71
900.9	9.81
901.332	9.31
901.764	7.21
902.196	11.91
902.628	11.01
903.06	12.01
903.491	22.41
903.923	19.71
904.355	15.41
904.787	17.31
905.218	13.91
905.65	14.21
906.082	3.11
906.513	8.71
906.945	15.71
907.376	7.51
907.808	14.71
908.239	13.21
908.671	15.01
909.102	19.71
909.534	12.91
909.965	30.81
910.397	65.11
910.828	234.91
911.259	371.31
911.691	172.51
912.122	80.71
912.553	32.71
912.984	25.61
913.415	14.91
913.847	19.91
914.278	7.81
914.709	16.51
915.14	16.11
915.571	16.41
916.002	6.61
916.433	10.61
916.864	11.01
917.295	4.31
917.726	15.81
918.157	8.31
918.587	23.91
919.018	13.91
919.449	20.21
919.88	18.01
920.311	20.61
920.741	33.11
921.172	122.21
921.603	111.61
922.033	57.61
922.464	38.41
922.895	14.91
923.325	16.41
923.756	11.51
924.186	12.01
924.617	16.91
925.047	15.91
925.478	19.21
925.908	21.01
926.338	11.21
926.769	3.41
927.199	18.61
927.629	7.31
928.06	16.31
928.49	9.81
928.92	9.71
929.35	5.91
929.78	10.51
930.21	0.41
930.641	2.41
931.071	1.11
931.501	-1.79
931.931	8.01
932.361	11.51
932.791	7.51
933.221	7.91
933.651	4.71
934.08	15.11
934.51	22.91
934.94	8.11
935.37	8.91
935.8	11.61
936.229	12.61
936.659	11.71
937.089	0.31
937.519	12.61
937.948	13.91
938.378	14.51
938.807	-1.49
939.237	0.81
939.666	10.71
940.096	-1.39
940.525	0.41
940.955	7.41
941.384	1.61
941.814	-3.79
942.243	-4.29
942.672	1.81
943.102	-2.29
943.531	2.71
943.96	3.21
944.39	1.51
944.819	-1.29
945.248	2.21
945.677	2.81
946.106	5.21
946.535	5.41
946.964	-1.49
947.393	0.11
947.822	4.11
948.251	-1.49
948.68	-3.29
949.109	6.51
949.538	6.81
949.967	1.71
950.396	1.51
950.825	-2.99
951.254	0.11
951.682	-3.19
952.111	7.21
952.54	8.21
952.969	3.51
953.397	0.11
953.826	6.11
954.254	-2.69
954.683	4.01
955.112	-4.69
955.54	5.01
955.969	2.31
956.397	1.11
956.826	3.61
957.254	7.61
957.682	2.71
958.111	8.01
958.539	-3.99
958.967	5.91
959.396	-1.39
959.824	5.81
960.252	2.21
960.68	-4.09
961.109	-0.39
961.537	1.91
961.965	-0.89
962.393	2.51
962.821	0.81
963.249	-3.89
963.677	4.11
964.105	-0.09
964.533	34.11
964.961	34.91
965.389	13.71
965.817	3.41
966.245	2.91
966.672	-3.09
967.1	-5.39
967.528	5.71
967.956	-1.49
968.383	2.91
968.811	0.91
969.239	-4.79
969.666	-4.69
970.094	7.71
970.522	-0.79
970.949	4.71
971.377	-9.09
971.804	-4.89
972.232	3.51
972.659	1.21
973.087	0.01
973.514	-4.69
973.941	-5.19
974.369	5.21
974.796	2.91
975.223	0.11
975.651	-0.69
976.078	1.71
976.505	-7.39
976.932	1.81
977.359	9.31
977.786	12.71
978.214	-0.29
978.641	-2.59
979.068	1.51
979.495	-5.39
979.922	-1.59
980.349	-2.69
980.776	9.31
981.202	2.01
981.629	9.21
982.056	7.11
982.483	-2.89
982.91	2.31
983.337	-4.89
983.763	6.61
984.19	-2.69
984.617	2.71
985.043	-7.89
985.47	1.91
985.897	1.51
986.323	-7.79
986.75	-3.49
987.176	3.81
987.603	4.11
988.029	-1.09
988.456	2.41
988.882	6.01
989.308	-4.89
989.735	-5.19
990.161	-2.69
990.587	-2.39
991.014	1.71
991.44	11.61
991.866	-4.69
992.292	0.01
992.719	0.71
993.145	6.71
993.571	-2.89
993.997	-0.39
994.423	1.01
994.849	-2.29
995.275	5.61
995.701	2.31
996.127	-3.99
996.553	0.31
996.979	-0.79
997.405	5.51
997.83	-0.49
998.256	-2.89
998.682	-0.69
999.108	-7.79
999.534	-3.59
999.959	-0.49
1000.385	-1.99
1000.811	2.21
1001.236	-7.09
1001.662	-8.39
1002.087	-8.29
1002.513	2.61
1002.938	7.21
1003.364	-2.19
1003.789	4.91
1004.215	4.91
1004.64	-2.29
1005.066	2.31
1005.491	-1.29
1005.916	0.61
1006.342	-5.39
1006.767	-3.09
1007.192	5.91
1007.617	2.61
1008.042	-1.79
1008.468	-1.59
1008.893	-2.49
1009.318	0.41
1009.743	-6.09
1010.168	-4.69
1010.593	-0.59
1011.018	-3.99
1011.443	-1.99
1011.868	3.01
1012.293	4.21
1012.718	-3.89
1013.143	3.11
1013.567	-1.49
1013.992	-1.29
1014.417	-9.09
1014.842	2.81
1015.267	-3.49
1015.691	-2.29
1016.116	5.41
1016.541	-0.69
1016.965	1.51
1017.39	3.51
1017.814	1.81
1018.239	0.31
1018.663	-10.09
1019.088	-9.99
1019.512	-2.19
1019.937	-2.69
1020.361	-1.19
1020.785	-1.99
1021.21	-0.69
1021.634	0.11
1022.058	3.91
1022.483	5.91
1022.907	-1.99
1023.331	-8.69
1023.755	-3.09
1024.179	0.21
1024.604	-0.89
1025.028	-3.59
1025.452	-1.39
1025.876	0.71
1026.3	2.11
1026.724	-9.69
1027.148	3.01
1027.572	-2.19
1027.996	-5.39
1028.42	-4.69
1028.843	-1.69
1029.267	0.21
1029.691	-0.79
1030.115	-1.99
1030.539	-3.99
1030.962	-3.69
1031.386	-7.19
1031.81	-3.29
1032.233	0.61
1032.657	-1.79
1033.08	-4.59
1033.504	-5.39
1033.927	-7.09
1034.351	3.81
1034.774	-3.49
1035.198	-5.69
1035.621	-7.49
1036.045	2.51
1036.468	0.41
1036.891	-6.69
1037.315	-9.99
1037.738	-5.59
1038.161	7.91
1038.584	-1.79
1039.008	-2.49
1039.431	-2.79
1039.854	-3.29
1040.277	-6.99
1040.7	-5.79
1041.123	5.51
1041.546	-11.19
1041.969	-5.09
1042.392	-8.79
1042.815	-2.19
1043.238	1.81
1043.661	2.01
1044.084	-7.19
1044.507	-1.39
1044.93	-3.59
1045.352	-9.19
1045.775	0.01
1046.198	-1.09
1046.621	-5.09
1047.043	-0.99
1047.466	11.71
1047.889	-0.39
1048.311	-9.69
1048.734	-3.49
1049.156	-0.89
1049.579	-4.39
1050.001	-2.49
1050.424	1.71
1050.846	-9.39
1051.269	-2.69
1051.691	-8.09
1052.113	-8.09
1052.536	-1.59
1052.958	1.61
1053.38	-3.79
1053.802	-5.39
1054.225	2.01
1054.647	-9.29
1055.069	-2.59
1055.491	1.91
1055.913	-9.09
1056.335	0.21
1056.757	-5.49
1057.179	-7.79
1057.601	-5.29
1058.023	-0.69
1058.445	-2.79
1058.867	-5.69
1059.289	-2.69
1059.711	-2.59
1060.133	2.01
1060.555	-0.59
1060.976	-4.29
1061.398	-1.19
1061.82	-7.59
1062.241	-0.99
1062.663	-8.49
1063.085	-3.59
1063.506	4.21
1063.928	-3.39
1064.35	1.41
1064.771	-3.69
1065.193	-2.69
1065.614	-6.79
1066.035	3.31
1066.457	-4.39
1066.878	0.71
1067.3	-2.19
1067.721	1.01
1068.142	-2.29
1068.564	-1.69
1068.985	-1.79
1069.406	-3.79
1069.827	-5.09
1070.248	0.01
1070.67	-6.19
1071.091	-3.69
1071.512	-2.19
1071.933	-3.59
1072.354	-4.39
1072.775	-8.39
1073.196	-8.59
1073.617	-2.49
1074.038	0.31
1074.459	-2.89
1074.88	-1.59
1075.3	5.11
1075.721	-4.29
1076.142	5.41
1076.563	-0.79
1076.983	-11.09
1077.404	-1.99
1077.825	-7.09
1078.246	-2.89
1078.666	-7.49
1079.087	-7.69
1079.507	-2.09
1079.928	2.91
1080.348	0.41
1080.769	0.01
1081.189	-0.49
1081.61	0.11
1082.03	-6.49
1082.451	-1.59
1082.871	-6.19
1083.291	-5.09
1083.711	-12.79
1084.132	-6.09
1084.552	-3.59
1084.972	1.11
1085.392	-3.99
1085.813	-8.69
1086.233	-9.69
1086.653	-4.49
1087.073	-1.59
1087.493	-8.59
1087.913	-7.19
1088.333	-3.09
1088.753	-4.79
1089.173	0.81
1089.593	-0.09
1090.013	1.61
1090.433	2.91
1090.852	-2.19
1091.272	4.41
1091.692	5.01
1092.112	-2.99
1092.531	-5.29
1092.951	-6.89
1093.371	-2.09
1093.79	8.71
1094.21	-1.79
1094.63	-2.79
1095.049	-3.19
1095.469	-2.69
1095.888	3.41
1096.308	3.61
1096.727	4.71
1097.146	-0.79
1097.566	-1.79
1097.985	-2.69
1098.405	-0.19
1098.824	-8.29
1099.243	-3.19
1099.662	-4.39
1100.082	-2.19
1100.501	-1.09
1100.92	-6.79
1101.339	-7.69
1101.758	-10.49
