Data from 20171114-ORNL-Ar_H_NY_Subt18_08-03-34-219.txt Node
Date: Tue Nov 14 08:03:34 EST 2017
User: Ender
Spectrometer: HR+D1039
Trigger mode: 0
Integration Time (sec): 2.730000E-2
Scans to average: 10
Electric dark correction enabled: true
Nonlinearity correction enabled: false
Boxcar width: 0
XAxis mode: Wavelengths
Number of Pixels in Spectrum: 2048
>>>>>Begin Spectral Data<<<<<
187.836	-4.93
188.309	-4.93
188.782	-4.93
189.255	4.57
189.728	1.27
190.201	5.87
190.674	0.97
191.147	4.17
191.619	-9.93
192.092	2.57
192.565	2.67
193.038	-0.93
193.511	-2.53
193.984	0.77
194.456	-4.03
194.929	1.77
195.402	-3.03
195.874	0.67
196.347	-0.03
196.82	-6.53
197.292	10.67
197.765	-1.62
198.237	-12.03
198.71	-0.03
199.182	-3.23
199.655	-1.43
200.127	1.97
200.6	-1.13
201.072	-7.13
201.544	-10.83
202.017	-4.83
202.489	-0.63
202.961	-2.23
203.433	-8.73
203.906	-6.62
204.378	-6.73
204.85	-2.83
205.322	-10.73
205.794	-4.63
206.266	-5.53
206.739	-5.33
207.211	3.77
207.683	-9.93
208.155	-8.83
208.627	-9.23
209.099	-2.03
209.57	-9.03
210.042	1.17
210.514	-1.33
210.986	2.37
211.458	-14.73
211.93	0.47
212.402	-3.83
212.873	-6.23
213.345	-8.73
213.817	-7.03
214.288	-0.43
214.76	-13.33
215.232	-3.73
215.703	-2.23
216.175	-7.43
216.646	-4.23
217.118	-6.03
217.589	-5.53
218.061	-1.33
218.532	-5.23
219.004	-4.23
219.475	-7.13
219.946	-3.73
220.418	-4.62
220.889	2.27
221.36	-1.83
221.832	-4.93
222.303	-4.53
222.774	-0.73
223.245	-10.12
223.717	-2.73
224.188	-8.43
224.659	-5.13
225.13	-6.93
225.601	-1.33
226.072	0.07
226.543	-1.73
227.014	-3.03
227.485	-8.23
227.956	-6.93
228.427	-3.03
228.898	-1.93
229.369	1.17
229.839	-3.33
230.31	-6.83
230.781	3.57
231.252	0.37
231.722	-5.63
232.193	-2.83
232.664	-0.53
233.135	-5.23
233.605	-4.83
234.076	-5.23
234.546	-2.73
235.017	1.37
235.487	-1.03
235.958	-9.33
236.428	-6.03
236.899	-0.43
237.369	-1.03
237.84	-5.83
238.31	-0.83
238.78	-1.43
239.251	-4.83
239.721	-4.93
240.191	2.07
240.662	-4.62
241.132	-6.83
241.602	-6.53
242.072	-5.53
242.542	-0.53
243.013	-4.33
243.483	-1.53
243.953	-1.23
244.423	-2.23
244.893	-9.63
245.363	-4.33
245.833	-4.33
246.303	-6.93
246.773	4.07
247.243	-1.23
247.712	-5.43
248.182	-0.23
248.652	1.47
249.122	-18.13
249.592	-4.33
250.061	-3.43
250.531	4.57
251.001	-6.43
251.471	6.57
251.94	5.07
252.41	-5.12
252.879	-5.73
253.349	7.77
253.818	4.67
254.288	-6.83
254.757	-5.23
255.227	-5.23
255.696	-2.53
256.166	1.38
256.635	-1.53
257.105	-0.33
257.574	-3.13
258.043	-1.62
258.513	-4.53
258.982	-5.33
259.451	-10.33
259.92	-2.23
260.389	-4.23
260.859	-0.93
261.328	0.07
261.797	-1.12
262.266	-3.03
262.735	4.47
263.204	-7.33
263.673	-2.83
264.142	-2.12
264.611	-15.23
265.08	-9.23
265.549	-11.93
266.018	-6.62
266.487	-2.33
266.955	-10.23
267.424	-7.13
267.893	-2.23
268.362	-1.53
268.83	-2.23
269.299	4.07
269.768	-1.43
270.236	1.57
270.705	-0.03
271.174	-1.93
271.642	-5.13
272.111	-10.03
272.579	-5.63
273.048	-3.73
273.516	-4.03
273.985	-3.63
274.453	0.07
274.922	0.57
275.39	-3.53
275.858	-14.33
276.327	-2.23
276.795	-0.83
277.263	-7.13
277.731	3.57
278.2	-3.43
278.668	-1.13
279.136	-2.93
279.604	-4.93
280.072	3.57
280.54	3.47
281.008	-2.53
281.477	5.37
281.945	-0.03
282.413	7.67
282.881	-1.93
283.348	-7.53
283.816	-0.13
284.284	-7.03
284.752	5.17
285.22	-5.93
285.688	2.07
286.156	0.07
286.623	7.67
287.091	-1.73
287.559	1.87
288.026	-1.43
288.494	-1.13
288.962	-11.13
289.429	-8.73
289.897	6.67
290.364	3.27
290.832	1.88
291.3	1.17
291.767	5.97
292.234	2.87
292.702	-0.63
293.169	-2.33
293.637	2.17
294.104	1.37
294.571	-4.53
295.039	-8.23
295.506	-5.63
295.973	-1.63
296.44	-2.63
296.908	-0.83
297.375	-1.93
297.842	5.77
298.309	-2.63
298.776	-8.43
299.243	4.67
299.71	-6.23
300.177	1.87
300.644	3.47
301.111	-5.43
301.578	2.97
302.045	-3.43
302.512	-0.43
302.979	4.47
303.446	2.77
303.913	0.07
304.379	-1.23
304.846	5.67
305.313	3.07
305.78	-1.03
306.246	2.27
306.713	2.77
307.18	1.77
307.646	2.07
308.113	0.07
308.579	-0.83
309.046	-3.62
309.512	5.97
309.979	-0.33
310.445	5.47
310.912	6.17
311.378	10.67
311.845	7.27
312.311	6.97
312.777	5.77
313.244	8.88
313.71	10.87
314.176	6.57
314.642	1.97
315.109	3.97
315.575	3.37
316.041	8.67
316.507	0.87
316.973	1.17
317.439	0.87
317.905	4.27
318.371	2.97
318.837	8.57
319.303	0.07
319.769	1.38
320.235	8.87
320.701	4.67
321.167	6.37
321.633	0.27
322.099	4.07
322.564	8.97
323.03	11.47
323.496	8.27
323.962	5.88
324.427	5.97
324.893	10.47
325.359	8.27
325.824	9.87
326.29	7.27
326.755	8.57
327.221	7.37
327.686	5.17
328.152	9.97
328.617	8.77
329.083	11.97
329.548	17.67
330.014	6.37
330.479	-1.73
330.944	7.87
331.41	9.97
331.875	10.17
332.34	8.47
332.805	9.17
333.271	11.67
333.736	-0.23
334.201	10.88
334.666	11.57
335.131	10.77
335.596	4.57
336.061	10.87
336.526	-0.03
336.991	9.27
337.456	19.07
337.921	11.67
338.386	7.97
338.851	12.57
339.316	6.57
339.781	5.27
340.246	11.17
340.711	10.97
341.175	12.97
341.64	0.77
342.105	8.17
342.569	14.27
343.034	14.47
343.499	14.17
343.963	8.88
344.428	22.38
344.893	14.87
345.357	13.57
345.822	7.17
346.286	20.77
346.751	16.17
347.215	13.67
347.679	15.27
348.144	21.07
348.608	17.07
349.073	20.37
349.537	17.77
350.001	14.37
350.465	25.17
350.93	14.47
351.394	15.37
351.858	14.17
352.322	24.47
352.786	18.67
353.25	16.37
353.715	27.17
354.179	22.47
354.643	28.38
355.107	25.77
355.571	26.97
356.035	18.77
356.498	22.37
356.962	25.87
357.426	36.27
357.89	25.77
358.354	22.87
358.818	22.67
359.281	19.27
359.745	13.88
360.209	16.97
360.673	14.88
361.136	22.88
361.6	22.67
362.064	21.88
362.527	21.77
362.991	29.97
363.454	22.77
363.918	17.47
364.381	11.97
364.845	21.37
365.308	30.17
365.772	35.37
366.235	25.57
366.698	20.17
367.162	20.17
367.625	16.97
368.088	15.57
368.552	21.67
369.015	30.97
369.478	25.77
369.941	34.07
370.404	19.97
370.867	27.67
371.331	22.67
371.794	26.47
372.257	22.27
372.72	29.07
373.183	29.27
373.646	14.37
374.109	20.27
374.572	32.27
375.035	26.97
375.497	20.47
375.96	30.87
376.423	30.97
376.886	29.77
377.349	23.67
377.811	26.17
378.274	25.17
378.737	26.67
379.199	35.77
379.662	27.97
380.125	31.47
380.587	24.37
381.05	22.47
381.512	30.67
381.975	37.87
382.437	37.47
382.9	32.87
383.362	35.57
383.825	34.27
384.287	39.57
384.75	32.67
385.212	35.87
385.674	44.97
386.136	39.77
386.599	36.17
387.061	38.47
387.523	38.47
387.985	35.77
388.447	44.17
388.91	36.07
389.372	32.27
389.834	44.57
390.296	39.87
390.758	41.67
391.22	38.57
391.682	39.47
392.144	49.77
392.606	48.07
393.068	46.47
393.529	54.37
393.991	40.27
394.453	34.17
394.915	42.47
395.377	44.57
395.838	42.07
396.3	45.07
396.762	50.77
397.224	38.07
397.685	44.67
398.147	34.17
398.608	34.87
399.07	39.37
399.531	37.17
399.993	43.38
400.454	46.27
400.916	46.27
401.377	47.67
401.839	47.47
402.3	44.87
402.762	50.47
403.223	57.97
403.684	51.57
404.145	46.67
404.607	48.07
405.068	46.27
405.529	49.87
405.99	50.17
406.451	41.57
406.913	50.57
407.374	47.57
407.835	43.07
408.296	49.97
408.757	46.37
409.218	56.17
409.679	46.67
410.14	53.27
410.601	56.87
411.062	61.47
411.522	57.27
411.983	49.57
412.444	58.27
412.905	57.77
413.366	63.57
413.826	64.47
414.287	79.77
414.748	98.97
415.208	93.17
415.669	82.07
416.13	83.67
416.59	77.87
417.051	80.77
417.511	86.97
417.972	92.38
418.432	97.77
418.893	116.17
419.353	102.57
419.814	72.37
420.274	66.47
420.734	60.87
421.195	66.17
421.655	62.97
422.115	63.87
422.576	65.87
423.036	64.87
423.496	81.77
423.956	75.17
424.416	83.77
424.876	97.17
425.336	83.67
425.797	87.17
426.257	87.67
426.717	72.88
427.177	76.17
427.637	67.17
428.097	69.07
428.556	68.47
429.016	80.37
429.476	64.47
429.936	67.77
430.396	68.97
430.856	67.97
431.315	83.17
431.775	84.67
432.235	97.87
432.694	91.07
433.154	96.97
433.614	95.47
434.073	81.67
434.533	70.57
434.993	67.77
435.452	74.77
435.912	75.57
436.371	74.88
436.83	76.47
437.29	76.67
437.749	71.77
438.209	71.47
438.668	74.67
439.127	78.07
439.587	80.97
440.046	73.07
440.505	77.67
440.964	84.87
441.424	92.37
441.883	93.87
442.342	85.88
442.801	70.87
443.26	72.17
443.719	76.47
444.178	81.17
444.637	66.17
445.096	74.27
445.555	75.07
446.014	75.17
446.473	80.77
446.932	75.47
447.391	80.37
447.849	77.17
448.308	66.87
448.767	71.77
449.226	87.07
449.685	75.37
450.143	93.57
450.602	80.17
451.061	72.47
451.519	78.67
451.978	74.87
452.436	74.27
452.895	74.57
453.353	83.97
453.812	84.97
454.27	88.37
454.729	88.38
455.187	75.87
455.646	80.17
456.104	81.97
456.562	86.47
457.021	82.87
457.479	86.97
457.937	90.97
458.395	84.27
458.854	75.57
459.312	81.27
459.77	81.77
460.228	80.07
460.686	75.47
461.144	85.37
461.602	84.37
462.06	83.87
462.518	88.97
462.976	84.77
463.434	83.07
463.892	87.67
464.35	80.37
464.808	91.37
465.266	88.37
465.724	96.47
466.181	96.77
466.639	91.57
467.097	100.07
467.555	97.57
468.012	102.87
468.47	100.37
468.928	102.17
469.385	111.97
469.843	102.97
470.3	108.57
470.758	106.47
471.215	118.77
471.673	118.87
472.13	116.07
472.588	119.37
473.045	114.07
473.503	123.47
473.96	116.07
474.417	122.87
474.875	128.47
475.332	138.57
475.789	132.17
476.246	133.67
476.704	139.07
477.161	131.07
477.618	134.37
478.075	145.88
478.532	149.77
478.989	159.27
479.446	171.77
479.903	166.17
480.36	157.77
480.817	139.87
481.274	152.37
481.731	152.77
482.188	145.57
482.645	169.47
483.102	164.27
483.558	179.07
484.015	176.37
484.472	171.57
484.929	174.97
485.385	173.67
485.842	172.47
486.299	183.47
486.755	195.07
487.212	190.67
487.668	169.47
488.125	173.37
488.582	167.67
489.038	168.27
489.494	164.57
489.951	165.17
490.407	167.38
490.864	170.27
491.32	175.57
491.776	171.67
492.233	175.27
492.689	164.57
493.145	169.27
493.602	173.77
494.058	173.97
494.514	181.17
494.97	184.57
495.426	183.17
495.882	172.67
496.338	169.87
496.794	174.27
497.251	173.07
497.707	180.47
498.163	179.77
498.618	182.77
499.074	188.07
499.53	187.67
499.986	183.27
500.442	189.08
500.898	187.38
501.354	182.47
501.809	182.87
502.265	188.77
502.721	186.37
503.177	196.08
503.632	200.57
504.088	193.47
504.543	197.77
504.999	200.27
505.455	186.97
505.91	187.67
506.366	185.47
506.821	182.27
507.277	181.77
507.732	186.47
508.187	191.17
508.643	194.37
509.098	183.77
509.553	200.77
510.009	200.88
510.464	190.67
510.919	203.77
511.375	202.57
511.83	206.77
512.285	211.57
512.74	223.98
513.195	230.07
513.65	224.97
514.105	229.67
514.56	228.67
515.015	235.67
515.47	238.27
515.925	233.67
516.38	233.57
516.835	239.07
517.29	238.67
517.745	231.88
518.2	222.07
518.655	215.47
519.109	215.58
519.564	214.67
520.019	209.07
520.474	203.17
520.928	203.17
521.383	206.67
521.838	200.97
522.292	209.37
522.747	207.67
523.201	210.47
523.656	203.37
524.11	204.97
524.565	202.87
525.019	194.67
525.474	192.97
525.928	190.88
526.382	190.67
526.837	193.48
527.291	198.57
527.745	195.77
528.2	194.47
528.654	191.98
529.108	189.17
529.562	186.67
530.016	184.77
530.47	196.67
530.925	187.77
531.379	187.37
531.833	189.17
532.287	187.77
532.741	185.07
533.195	187.38
533.649	185.27
534.103	199.87
534.556	181.87
535.01	181.97
535.464	185.07
535.918	190.77
536.372	193.38
536.826	187.47
537.279	185.37
537.733	183.07
538.187	188.97
538.64	187.07
539.094	191.27
539.548	195.77
540.001	188.57
540.455	192.17
540.908	195.77
541.362	198.57
541.815	205.17
542.269	215.17
542.722	206.57
543.175	204.97
543.629	204.37
544.082	214.57
544.536	208.07
544.989	208.58
545.442	207.57
545.895	211.97
546.349	219.77
546.802	219.07
547.255	223.87
547.708	218.57
548.161	229.87
548.614	234.17
549.067	232.37
549.52	222.67
549.973	219.67
550.426	218.37
550.879	206.57
551.332	216.07
551.785	213.27
552.238	205.67
552.691	219.38
553.144	224.77
553.596	231.97
554.049	227.67
554.502	243.97
554.955	247.87
555.407	241.27
555.86	234.27
556.313	238.77
556.765	232.38
557.218	233.27
557.67	226.17
558.123	224.77
558.576	232.37
559.028	236.67
559.48	246.07
559.933	234.07
560.385	218.67
560.838	209.67
561.29	199.37
561.742	203.88
562.195	192.77
562.647	198.77
563.099	206.07
563.551	206.57
564.004	206.77
564.456	200.77
564.908	192.77
565.36	190.27
565.812	185.27
566.264	177.47
566.716	180.27
567.168	171.07
567.62	177.07
568.072	175.87
568.524	162.77
568.976	171.47
569.428	161.97
569.88	166.37
570.332	170.27
570.784	169.07
571.235	163.77
571.687	172.07
572.139	176.77
572.59	183.67
573.042	180.27
573.494	178.87
573.945	169.97
574.397	164.77
574.849	166.27
575.3	166.07
575.752	168.87
576.203	168.07
576.655	169.37
577.106	157.77
577.557	154.97
578.009	165.38
578.46	159.67
578.912	160.97
579.363	152.77
579.814	154.87
580.265	152.17
580.717	159.17
581.168	156.27
581.619	158.88
582.07	165.47
582.521	155.97
582.972	153.77
583.423	149.87
583.875	159.77
584.326	156.37
584.777	158.37
585.227	177.07
585.678	165.17
586.129	171.27
586.58	187.17
587.031	183.97
587.482	192.47
587.933	192.97
588.384	186.77
588.834	191.48
589.285	190.47
589.736	191.27
590.186	177.27
590.637	188.47
591.088	180.88
591.538	183.77
591.989	178.17
592.439	177.47
592.89	177.47
593.34	163.17
593.791	162.67
594.241	153.27
594.692	157.77
595.142	158.57
595.593	163.27
596.043	158.47
596.493	159.87
596.943	166.88
597.394	173.67
597.844	158.27
598.294	169.38
598.744	183.07
599.195	178.47
599.645	202.98
600.095	203.27
600.545	228.27
600.995	244.88
601.445	265.77
601.895	296.58
602.345	315.77
602.795	294.47
603.245	268.38
603.695	238.57
604.145	227.17
604.594	208.08
605.044	196.37
605.494	176.67
605.944	164.37
606.393	165.57
606.843	163.17
607.293	174.57
607.743	165.97
608.192	172.07
608.642	173.17
609.091	175.07
609.541	175.67
609.99	175.38
610.44	186.17
610.889	160.17
611.339	150.17
611.788	151.27
612.238	159.47
612.687	169.07
613.136	154.07
613.586	170.07
614.035	158.77
614.484	157.47
614.933	160.57
615.383	163.67
615.832	157.97
616.281	157.07
616.73	151.87
617.179	150.17
617.628	145.17
618.077	141.97
618.526	129.07
618.975	134.57
619.424	143.77
619.873	137.17
620.322	140.97
620.771	121.77
621.22	131.27
621.669	130.17
622.118	123.37
622.567	121.38
623.015	115.47
623.464	118.37
623.913	125.27
624.361	117.67
624.81	110.97
625.259	110.97
625.707	118.27
626.156	118.67
626.604	120.87
627.053	118.87
627.501	115.37
627.95	119.38
628.398	126.37
628.847	127.38
629.295	121.07
629.744	123.47
630.192	129.87
630.64	122.57
631.089	113.57
631.537	114.57
631.985	106.37
632.433	107.57
632.881	107.38
633.33	116.57
633.778	100.97
634.226	99.97
634.674	112.57
635.122	113.87
635.57	116.37
636.018	115.87
636.466	119.07
636.914	115.57
637.362	119.97
637.81	116.97
638.258	119.77
638.705	115.37
639.153	126.87
639.601	124.37
640.049	134.57
640.497	151.77
640.944	150.57
641.392	121.97
641.84	124.17
642.287	108.47
642.735	92.47
643.182	104.77
643.63	100.57
644.078	100.07
644.525	99.57
644.973	102.27
645.42	98.67
645.867	99.87
646.315	104.57
646.762	99.38
647.21	100.97
647.657	94.77
648.104	99.47
648.551	100.27
648.999	94.87
649.446	97.37
649.893	91.37
650.34	93.07
650.787	87.27
651.234	105.57
651.682	99.97
652.129	100.67
652.576	102.87
653.023	112.57
653.47	122.67
653.917	121.07
654.363	128.17
654.81	138.37
655.257	134.77
655.704	117.27
656.151	95.67
656.598	92.37
657.044	89.27
657.491	90.87
657.938	90.97
658.385	95.57
658.831	92.07
659.278	104.87
659.724	93.67
660.171	94.67
660.618	84.37
661.064	80.47
661.511	86.27
661.957	89.97
662.404	90.27
662.85	103.57
663.296	97.37
663.743	91.77
664.189	95.57
664.635	92.27
665.082	92.07
665.528	91.97
665.974	90.37
666.42	90.97
666.867	93.47
667.313	82.47
667.759	85.87
668.205	88.57
668.651	85.67
669.097	88.87
669.543	70.97
669.989	83.47
670.435	82.77
670.881	83.38
671.327	82.27
671.773	88.77
672.219	95.07
672.665	111.37
673.11	117.27
673.556	145.27
674.002	149.37
674.448	153.07
674.893	115.47
675.339	95.87
675.785	80.47
676.23	87.67
676.676	74.17
677.122	78.27
677.567	75.57
678.013	72.17
678.458	67.57
678.904	70.07
679.349	68.27
679.794	70.07
680.24	70.97
680.685	68.17
681.131	64.37
681.576	67.37
682.021	73.17
682.466	67.87
682.912	64.77
683.357	61.37
683.802	79.27
684.247	85.27
684.692	100.57
685.137	102.07
685.583	124.47
686.028	133.17
686.473	114.47
686.918	88.77
687.363	79.77
687.807	87.37
688.252	72.67
688.697	64.67
689.142	68.97
689.587	66.17
690.032	59.67
690.477	65.87
690.921	66.27
691.366	72.47
691.811	79.67
692.255	98.97
692.7	106.37
693.145	115.38
693.589	162.97
694.034	275.17
694.478	396.47
694.923	468.27
695.367	627.17
695.812	303.77
696.256	113.67
696.701	83.27
697.145	71.17
697.59	61.97
698.034	62.27
698.478	69.38
698.922	65.57
699.367	59.87
699.811	66.47
700.255	69.27
700.699	84.37
701.143	91.57
701.588	111.67
702.032	129.27
702.476	114.38
702.92	107.27
703.364	100.47
703.808	146.37
704.252	247.47
704.696	365.38
705.14	450.67
705.584	604.57
706.027	269.67
706.471	119.27
706.915	80.87
707.359	69.17
707.803	56.17
708.246	61.88
708.69	68.97
709.134	65.27
709.577	71.87
710.021	75.47
710.465	64.37
710.908	58.87
711.352	58.97
711.795	59.77
712.239	71.57
712.682	79.57
713.126	92.57
713.569	110.77
714.012	80.57
714.456	60.88
714.899	56.47
715.342	53.57
715.786	49.67
716.229	48.17
716.672	49.57
717.115	46.47
717.558	44.97
718.002	49.97
718.445	47.87
718.888	63.97
719.331	63.07
719.774	72.47
720.217	64.27
720.66	47.47
721.103	48.57
721.546	48.27
721.989	47.97
722.432	33.37
722.874	44.97
723.317	42.37
723.76	39.67
724.203	47.07
724.645	66.77
725.088	99.07
725.531	129.57
725.974	158.47
726.416	133.97
726.859	65.37
727.301	44.77
727.744	45.57
728.187	42.27
728.629	49.67
729.071	46.57
729.514	58.27
729.956	58.87
730.399	58.57
730.841	65.07
731.283	49.77
731.726	52.07
732.168	52.77
732.61	51.27
733.053	56.97
733.495	69.27
733.937	77.57
734.379	89.07
734.821	91.07
735.263	122.47
735.705	187.47
736.148	391.57
736.59	670.07
737.032	838.07
737.474	667.47
737.916	194.87
738.357	94.37
738.799	68.37
739.241	57.67
739.683	52.77
740.125	59.87
740.567	57.17
741.008	62.97
741.45	70.17
741.892	72.97
742.334	79.67
742.775	76.67
743.217	76.67
743.658	48.17
744.1	56.88
744.542	46.07
744.983	60.37
745.425	69.47
745.866	74.87
746.307	56.47
746.749	63.27
747.19	63.97
747.632	103.07
748.073	205.97
748.514	476.97
748.956	765.88
749.397	938.47
749.838	783.97
750.279	828.77
750.72	390.67
751.162	130.67
751.603	69.37
752.044	48.97
752.485	42.97
752.926	35.97
753.367	37.17
753.808	34.77
754.249	38.77
754.69	32.87
755.131	31.57
755.572	32.67
756.013	33.77
756.453	29.77
756.894	34.27
757.335	29.67
757.776	37.67
758.216	38.97
758.657	33.67
759.098	38.47
759.538	41.57
759.979	48.07
760.42	73.17
760.86	147.47
761.301	442.37
761.741	1127.97
762.182	1776.28
762.622	1231.68
763.063	335.97
763.503	121.67
763.943	65.97
764.384	54.77
764.824	45.67
765.264	43.97
765.705	38.87
766.145	28.07
766.585	33.07
767.025	33.67
767.465	23.37
767.906	33.17
768.346	42.67
768.786	27.87
769.226	36.27
769.666	67.67
770.106	137.57
770.546	387.67
770.986	719.58
771.426	655.88
771.866	197.27
772.306	73.57
772.745	35.47
773.185	31.77
773.625	32.07
774.065	25.57
774.505	30.67
774.944	33.97
775.384	67.77
775.824	119.57
776.263	126.27
776.703	52.37
777.142	28.37
777.582	22.27
778.021	20.57
778.461	22.07
778.9	26.67
779.34	26.97
779.779	17.17
780.219	17.17
780.658	9.57
781.097	21.87
781.537	22.97
781.976	13.67
782.415	18.17
782.855	16.17
783.294	13.27
783.733	20.17
784.172	15.37
784.611	13.37
785.05	20.77
785.489	19.97
785.928	22.87
786.367	26.57
786.806	23.37
787.245	29.17
787.684	23.87
788.123	30.07
788.562	20.57
789.001	22.88
789.44	20.57
789.879	17.57
790.317	23.77
790.756	24.37
791.195	21.77
791.634	24.57
792.072	43.27
792.511	72.88
792.95	244.38
793.388	572.07
793.827	533.77
794.265	164.97
794.704	66.67
795.142	39.88
795.581	31.17
796.019	21.97
796.458	28.27
796.896	25.07
797.334	22.37
797.773	29.07
798.211	50.47
798.649	105.57
799.087	263.08
799.526	423.47
799.964	532.77
800.402	568.77
800.84	199.87
801.278	67.97
801.716	36.77
802.154	32.17
802.592	36.47
803.03	27.07
803.468	22.38
803.906	26.77
804.344	35.57
804.782	29.57
805.22	27.87
805.658	27.37
806.096	35.38
806.533	35.97
806.971	39.67
807.409	46.57
807.847	65.27
808.284	150.67
808.722	481.07
809.16	892.07
809.597	802.77
810.035	1441.28
810.472	1620.28
810.91	561.47
811.347	193.17
811.785	97.27
812.222	52.67
812.66	39.38
813.097	37.17
813.535	27.27
813.972	21.37
814.409	19.47
814.846	21.57
815.284	28.47
815.721	15.87
816.158	20.88
816.595	17.38
817.032	25.97
817.47	32.37
817.907	40.07
818.344	20.67
818.781	15.27
819.218	10.97
819.655	18.57
820.092	34.17
820.529	28.27
820.966	31.38
821.403	24.17
821.839	14.87
822.276	19.67
822.713	24.77
823.15	27.27
823.587	18.67
824.023	22.97
824.46	62.88
824.897	235.57
825.333	378.37
825.77	156.17
826.206	49.17
826.643	31.87
827.08	26.37
827.516	13.67
827.953	10.47
828.389	19.07
828.825	16.47
829.262	12.47
829.698	10.87
830.135	13.97
830.571	11.87
831.007	12.67
831.443	8.27
831.88	13.07
832.316	11.27
832.752	10.27
833.188	10.88
833.624	8.77
834.06	17.97
834.497	13.87
834.933	10.88
835.369	20.37
835.805	8.07
836.241	15.07
836.677	7.38
837.112	18.97
837.548	17.37
837.984	25.57
838.42	37.67
838.856	112.67
839.292	404.57
839.727	658.88
840.163	279.38
840.599	229.67
841.034	555.67
841.47	604.88
841.906	204.27
842.341	71.87
842.777	42.07
843.212	40.37
843.648	35.67
844.083	21.57
844.519	12.88
844.954	16.77
845.39	6.97
845.825	6.77
846.261	10.57
846.696	4.47
847.131	10.77
847.566	13.27
848.002	4.57
848.437	9.17
848.872	12.97
849.307	13.97
849.742	20.97
850.177	38.97
850.613	146.57
851.048	245.38
851.483	96.87
851.918	25.57
852.353	16.97
852.788	7.47
853.223	6.77
853.657	10.17
854.092	12.47
854.527	4.97
854.962	2.07
855.397	6.87
855.832	15.57
856.266	8.27
856.701	8.17
857.136	2.57
857.57	6.07
858.005	2.97
858.44	17.17
858.874	3.07
859.309	17.38
859.743	-2.53
860.178	9.47
860.612	3.77
861.047	10.37
861.481	10.87
861.915	12.47
862.35	7.17
862.784	-0.03
863.218	4.57
863.653	-3.03
864.087	13.57
864.521	14.67
864.955	11.38
865.39	37.67
865.824	37.57
866.258	28.17
866.692	32.97
867.126	32.97
867.56	17.77
867.994	6.27
868.428	6.27
868.862	5.77
869.296	15.97
869.73	16.37
870.164	8.97
870.598	4.07
871.031	10.47
871.465	4.97
871.899	8.27
872.333	-1.03
872.766	0.07
873.2	2.27
873.634	6.07
874.067	-0.43
874.501	1.97
874.935	2.07
875.368	2.27
875.802	1.77
876.235	-0.83
876.669	2.37
877.102	4.17
877.535	9.47
877.969	3.67
878.402	6.97
878.836	0.67
879.269	1.67
879.702	4.47
880.135	5.87
880.569	4.47
881.002	6.88
881.435	9.57
881.868	-1.23
882.301	1.07
882.734	-4.03
883.167	6.97
883.601	-0.73
884.034	7.47
884.467	1.17
884.899	3.57
885.332	-1.83
885.765	-3.93
886.198	-0.73
886.631	-3.33
887.064	2.37
887.497	8.17
887.929	4.57
888.362	2.17
888.795	-7.23
889.228	-1.43
889.66	7.37
890.093	2.17
890.526	4.07
890.958	2.77
891.391	4.97
891.823	-0.63
892.256	1.97
892.688	-0.43
893.121	1.88
893.553	3.07
893.985	5.07
894.418	6.47
894.85	-2.53
895.282	-0.53
895.715	-0.53
896.147	3.47
896.579	2.27
897.011	-1.73
897.444	3.47
897.876	-2.23
898.308	2.27
898.74	0.27
899.172	-0.13
899.604	6.57
900.036	-1.03
900.468	2.57
900.9	-6.33
901.332	6.37
901.764	-4.43
902.196	-0.43
902.628	0.97
903.06	-0.13
903.491	3.77
903.923	5.07
904.355	-3.33
904.787	0.27
905.218	3.07
905.65	3.17
906.082	-5.83
906.513	-1.43
906.945	1.27
907.376	-3.83
907.808	3.97
908.239	2.57
908.671	3.17
909.102	-0.43
909.534	-2.62
909.965	7.37
910.397	22.77
910.828	83.37
911.259	141.88
911.691	58.77
912.122	21.97
912.553	9.77
912.984	7.88
913.415	6.27
913.847	9.97
914.278	-1.23
914.709	-2.43
915.14	5.88
915.571	5.77
916.002	0.97
916.433	7.07
916.864	4.97
917.295	0.67
917.726	8.07
918.157	0.77
918.587	6.77
919.018	0.57
919.449	5.17
919.88	3.77
920.311	9.47
920.741	3.27
921.172	42.87
921.603	41.77
922.033	9.47
922.464	12.77
922.895	4.57
923.325	-0.03
923.756	-3.03
924.186	-3.12
924.617	-2.73
925.047	-3.53
925.478	-0.93
925.908	0.37
926.338	-1.43
926.769	-1.03
927.199	7.07
927.629	-6.03
928.06	2.07
928.49	4.17
928.92	5.37
929.35	-0.43
929.78	0.27
930.21	2.57
930.641	-0.83
931.071	1.47
931.501	-3.03
931.931	-1.23
932.361	-1.03
932.791	-3.03
933.221	-4.03
933.651	-3.93
934.08	1.27
934.51	9.87
934.94	1.37
935.37	-0.43
935.8	-2.03
936.229	0.87
936.659	4.07
937.089	-3.83
937.519	3.57
937.948	5.57
938.378	4.27
938.807	-1.23
939.237	-1.83
939.666	0.47
940.096	-11.53
940.525	-0.13
940.955	-8.23
941.384	4.67
941.814	-8.83
942.243	-4.43
942.672	0.47
943.102	-6.03
943.531	-3.13
943.96	-0.93
944.39	-2.53
944.819	-2.53
945.248	8.87
945.677	-0.53
946.106	0.77
946.535	3.27
946.964	-2.03
947.393	1.97
947.822	-4.23
948.251	-3.83
948.68	6.38
949.109	7.47
949.538	2.57
949.967	-1.23
950.396	-3.63
950.825	-4.83
951.254	-2.43
951.682	-9.13
952.111	-1.33
952.54	0.27
952.969	-7.93
953.397	-9.33
953.826	1.67
954.254	-7.93
954.683	1.67
955.112	2.97
955.54	1.38
955.969	0.37
956.397	-7.33
956.826	-12.23
957.254	-1.23
957.682	1.37
958.111	-6.23
958.539	-7.63
958.967	-2.43
959.396	-8.73
959.824	0.88
960.252	0.97
960.68	-5.03
961.109	-10.03
961.537	-6.13
961.965	-0.93
962.393	-1.53
962.821	-5.23
963.249	0.07
963.677	-2.13
964.105	-4.63
964.533	5.67
964.961	11.47
965.389	4.38
965.817	2.57
966.245	0.37
966.672	4.38
967.1	-5.83
967.528	-0.83
967.956	1.88
968.383	-1.03
968.811	-3.03
969.239	-3.33
969.666	-7.33
970.094	-6.03
970.522	1.87
970.949	-1.03
971.377	-6.73
971.804	-6.73
972.232	-2.33
972.659	-3.33
973.087	-4.13
973.514	-3.83
973.941	-6.53
974.369	3.17
974.796	4.47
975.223	-2.43
975.651	0.47
976.078	4.57
976.505	-5.33
976.932	1.67
977.359	3.37
977.786	4.37
978.214	-6.63
978.641	-6.43
979.068	-5.83
979.495	-9.83
979.922	-0.03
980.349	-7.73
980.776	2.67
981.202	-0.13
981.629	-1.43
982.056	3.57
982.483	0.07
982.91	1.27
983.337	-12.63
983.763	0.17
984.19	-7.23
984.617	-3.13
985.043	-6.23
985.47	3.07
985.897	-2.73
986.323	-4.13
986.75	0.88
987.176	-1.53
987.603	-1.83
988.029	0.17
988.456	-9.73
988.882	2.38
989.308	-8.53
989.735	-10.03
990.161	-1.13
990.587	-1.83
991.014	0.37
991.44	4.47
991.866	-6.62
992.292	-9.62
992.719	-6.63
993.145	2.37
993.571	-13.23
993.997	-1.43
994.423	-1.43
994.849	-2.93
995.275	3.38
995.701	-1.33
996.127	-3.83
996.553	4.37
996.979	-2.93
997.405	-2.33
997.83	-5.13
998.256	-4.13
998.682	-7.73
999.108	-2.93
999.534	0.07
999.959	2.07
1000.385	-8.13
1000.811	-0.63
1001.236	-10.43
1001.662	-4.83
1002.087	-8.23
1002.513	2.17
1002.938	2.07
1003.364	-3.93
1003.789	-2.33
1004.215	1.47
1004.64	-2.53
1005.066	-4.23
1005.491	-0.53
1005.916	-3.83
1006.342	-5.62
1006.767	-8.13
1007.192	5.87
1007.617	-7.73
1008.042	-6.23
1008.468	-4.13
1008.893	1.17
1009.318	-0.73
1009.743	-3.03
1010.168	-2.53
1010.593	-1.63
1011.018	-10.53
1011.443	-7.73
1011.868	-1.73
1012.293	-5.62
1012.718	-3.23
1013.143	-0.53
1013.567	-4.53
1013.992	-1.63
1014.417	-11.23
1014.842	-2.43
1015.267	-6.83
1015.691	-3.33
1016.116	7.17
1016.541	-0.33
1016.965	3.67
1017.39	2.37
1017.814	-4.53
1018.239	-1.73
1018.663	-6.23
1019.088	-12.73
1019.512	2.27
1019.937	-3.23
1020.361	-4.73
1020.785	-10.23
1021.21	-8.83
1021.634	-2.43
1022.058	1.87
1022.483	4.97
1022.907	-4.13
1023.331	-2.43
1023.755	-0.73
1024.179	-3.83
1024.604	-6.23
1025.028	-6.23
1025.452	-8.83
1025.876	1.57
1026.3	2.77
1026.724	-12.73
1027.148	-1.43
1027.572	-11.63
1027.996	-6.33
1028.42	-7.73
1028.843	-8.73
1029.267	-1.53
1029.691	-2.83
1030.115	-5.13
1030.539	-2.83
1030.962	-8.23
1031.386	-10.12
1031.81	-5.73
1032.233	1.57
1032.657	2.27
1033.08	-0.03
1033.504	-0.23
1033.927	-6.73
1034.351	0.38
1034.774	-9.53
1035.198	-4.13
1035.621	-4.62
1036.045	-6.93
1036.468	0.47
1036.891	-4.93
1037.315	-6.73
1037.738	-7.83
1038.161	-2.03
1038.584	-1.83
1039.008	-3.93
1039.431	-7.73
1039.854	-5.73
1040.277	-14.73
1040.7	-11.73
1041.123	-5.33
1041.546	-5.03
1041.969	-7.83
1042.392	-7.33
1042.815	-0.43
1043.238	-1.93
1043.661	0.87
1044.084	-7.33
1044.507	-12.03
1044.93	-6.13
1045.352	-0.03
1045.775	-4.43
1046.198	-7.23
1046.621	-4.33
1047.043	4.27
1047.466	9.77
1047.889	-1.53
1048.311	-5.03
1048.734	-2.13
1049.156	-3.63
1049.579	-2.63
1050.001	-7.53
1050.424	-3.43
1050.846	-5.53
1051.269	-4.23
1051.691	-2.03
1052.113	-1.03
1052.536	0.37
1052.958	-2.93
1053.38	2.37
1053.802	-6.23
1054.225	-6.63
1054.647	-7.13
1055.069	-4.13
1055.491	1.57
1055.913	-3.63
1056.335	-1.73
1056.757	5.77
1057.179	-9.13
1057.601	-6.63
1058.023	-4.12
1058.445	-7.03
1058.867	-6.93
1059.289	0.07
1059.711	-5.83
1060.133	-6.53
1060.555	-8.73
1060.976	-14.43
1061.398	-3.13
1061.82	-9.23
1062.241	-3.23
1062.663	-9.43
1063.085	-6.03
1063.506	0.47
1063.928	-4.43
1064.35	-6.53
1064.771	-13.93
1065.193	-4.93
1065.614	-12.13
1066.035	-2.83
1066.457	-4.13
1066.878	6.77
1067.3	-6.33
1067.721	-6.03
1068.142	-7.13
1068.564	-3.73
1068.985	0.87
1069.406	-4.53
1069.827	-3.73
1070.248	2.17
1070.67	-1.73
1071.091	-6.23
1071.512	-3.53
1071.933	-1.93
1072.354	-6.73
1072.775	-6.13
1073.196	-7.13
1073.617	-3.43
1074.038	-5.93
1074.459	-1.73
1074.88	-6.53
1075.3	6.07
1075.721	-7.53
1076.142	2.17
1076.563	-0.93
1076.983	-11.63
1077.404	-10.73
1077.825	-14.33
1078.246	-3.33
1078.666	-10.03
1079.087	-3.73
1079.507	-6.13
1079.928	2.87
1080.348	5.38
1080.769	-3.73
1081.189	-3.93
1081.61	-7.53
1082.03	0.07
1082.451	-6.83
1082.871	-3.62
1083.291	-9.43
1083.711	-9.63
1084.132	-4.33
1084.552	-5.83
1084.972	-0.33
1085.392	-5.83
1085.813	-10.23
1086.233	-4.43
1086.653	-6.93
1087.073	-5.33
1087.493	-3.23
1087.913	-10.13
1088.333	-4.73
1088.753	0.97
1089.173	4.87
1089.593	-2.03
1090.013	1.27
1090.433	3.27
1090.852	1.67
1091.272	-0.73
1091.692	1.87
1092.112	-3.23
1092.531	-9.63
1092.951	-11.23
1093.371	-4.23
1093.79	1.07
1094.21	-5.63
1094.63	-1.73
1095.049	-5.13
1095.469	-4.03
1095.888	-4.23
1096.308	3.77
1096.727	2.97
1097.146	-5.33
1097.566	-1.13
1097.985	-4.83
1098.405	-3.12
1098.824	-3.83
1099.243	-6.13
1099.662	-12.73
1100.082	-2.53
1100.501	1.87
1100.92	-6.43
1101.339	-2.33
1101.758	-6.83
