Data from 20171114-ORNL-Ar_H_NY_Subt18_08-03-45-957.txt Node
Date: Tue Nov 14 08:03:45 EST 2017
User: Ender
Spectrometer: HR+D1039
Trigger mode: 0
Integration Time (sec): 2.730000E-2
Scans to average: 10
Electric dark correction enabled: true
Nonlinearity correction enabled: false
Boxcar width: 0
XAxis mode: Wavelengths
Number of Pixels in Spectrum: 2048
>>>>>Begin Spectral Data<<<<<
187.836	-2.72
188.309	-2.72
188.782	-2.72
189.255	2.28
189.728	0.48
190.201	10.08
190.674	1.88
191.147	-1.72
191.619	-12.22
192.092	2.98
192.565	-0.02
193.038	2.78
193.511	2.38
193.984	-1.02
194.456	-6.42
194.929	2.08
195.402	0.28
195.874	-1.12
196.347	0.98
196.82	-7.02
197.292	4.48
197.765	-2.62
198.237	-2.12
198.71	0.08
199.182	-2.72
199.655	-2.22
200.127	1.78
200.6	-7.12
201.072	0.48
201.544	-2.52
202.017	-1.92
202.489	-1.62
202.961	-6.42
203.433	-4.42
203.906	1.08
204.378	-8.12
204.85	-7.02
205.322	-5.82
205.794	-6.12
206.266	-5.62
206.739	-4.92
207.211	2.68
207.683	-7.12
208.155	-5.02
208.627	-4.42
209.099	-8.02
209.57	-11.72
210.042	-1.62
210.514	-4.62
210.986	-3.72
211.458	-8.82
211.93	-4.32
212.402	-0.32
212.873	-3.52
213.345	-8.72
213.817	-10.52
214.288	-4.12
214.76	-13.02
215.232	-5.52
215.703	-6.92
216.175	-0.12
216.646	-9.12
217.118	-11.32
217.589	-7.72
218.061	-4.52
218.532	-5.42
219.004	-4.72
219.475	0.78
219.946	-3.02
220.418	-5.52
220.889	2.68
221.36	-1.92
221.832	-3.02
222.303	-7.32
222.774	-0.82
223.245	-10.62
223.717	-5.82
224.188	-2.82
224.659	-7.32
225.13	-5.12
225.601	-7.32
226.072	0.48
226.543	-2.62
227.014	-0.22
227.485	-3.62
227.956	-5.32
228.427	0.88
228.898	-1.22
229.369	6.08
229.839	-4.32
230.31	-5.62
230.781	-1.52
231.252	-2.22
231.722	-9.12
232.193	-3.22
232.664	-2.82
233.135	-1.52
233.605	-4.82
234.076	-7.12
234.546	0.38
235.017	-0.02
235.487	-4.02
235.958	-1.52
236.428	-7.32
236.899	-5.72
237.369	-0.22
237.84	-10.62
238.31	2.08
238.78	-1.92
239.251	-1.62
239.721	-3.92
240.191	2.58
240.662	-5.72
241.132	-2.82
241.602	-1.12
242.072	-4.62
242.542	-0.02
243.013	-7.22
243.483	-3.22
243.953	-4.12
244.423	-0.82
244.893	-3.22
245.363	-0.82
245.833	-2.72
246.303	3.38
246.773	5.98
247.243	0.58
247.712	-4.82
248.182	-0.72
248.652	-0.22
249.122	-10.62
249.592	-5.02
250.061	2.78
250.531	10.18
251.001	-4.22
251.471	0.88
251.94	0.58
252.41	-3.12
252.879	-6.92
253.349	4.38
253.818	2.18
254.288	-1.02
254.757	-9.82
255.227	-7.02
255.696	-3.12
256.166	0.68
256.635	-2.42
257.105	-2.72
257.574	-1.32
258.043	-0.42
258.513	-6.42
258.982	3.18
259.451	-3.32
259.92	1.78
260.389	-2.42
260.859	1.08
261.328	-0.42
261.797	1.68
262.266	-8.92
262.735	3.28
263.204	-2.32
263.673	-2.52
264.142	4.88
264.611	-2.82
265.08	0.68
265.549	6.68
266.018	-0.42
266.487	-6.32
266.955	-8.22
267.424	-4.42
267.893	-2.72
268.362	-5.52
268.83	0.88
269.299	3.58
269.768	2.38
270.236	0.38
270.705	0.38
271.174	-2.32
271.642	-1.52
272.111	0.88
272.579	2.28
273.048	0.28
273.516	1.78
273.985	2.98
274.453	4.18
274.922	5.18
275.39	-2.72
275.858	-2.62
276.327	8.98
276.795	10.88
277.263	1.38
277.731	12.28
278.2	3.28
278.668	1.08
279.136	5.78
279.604	0.48
280.072	5.98
280.54	7.58
281.008	-0.32
281.477	8.18
281.945	4.48
282.413	8.28
282.881	4.68
283.348	-1.72
283.816	-0.62
284.284	6.58
284.752	14.98
285.22	4.88
285.688	12.58
286.156	3.58
286.623	10.18
287.091	4.88
287.559	8.88
288.026	5.78
288.494	6.18
288.962	-5.62
289.429	1.38
289.897	13.48
290.364	5.88
290.832	10.08
291.3	7.18
291.767	8.98
292.234	11.28
292.702	3.78
293.169	11.98
293.637	10.18
294.104	9.58
294.571	4.38
295.039	3.88
295.506	7.58
295.973	13.08
296.44	4.58
296.908	10.38
297.375	7.08
297.842	10.28
298.309	6.08
298.776	-2.12
299.243	15.48
299.71	4.18
300.177	12.58
300.644	10.38
301.111	9.88
301.578	14.38
302.045	6.58
302.512	15.68
302.979	16.68
303.446	15.08
303.913	13.48
304.379	11.18
304.846	15.18
305.313	14.68
305.78	14.48
306.246	14.88
306.713	18.48
307.18	18.08
307.646	18.48
308.113	15.08
308.579	13.98
309.046	15.48
309.512	16.48
309.979	8.18
310.445	21.18
310.912	17.28
311.378	27.18
311.845	26.68
312.311	25.08
312.777	26.58
313.244	19.48
313.71	29.88
314.176	19.38
314.642	20.78
315.109	22.58
315.575	25.38
316.041	22.98
316.507	24.48
316.973	22.58
317.439	17.98
317.905	27.68
318.371	26.98
318.837	29.08
319.303	21.28
319.769	21.08
320.235	28.08
320.701	27.78
321.167	27.58
321.633	14.98
322.099	27.18
322.564	37.58
323.03	33.28
323.496	26.28
323.962	30.48
324.427	25.98
324.893	32.58
325.359	31.78
325.824	30.58
326.29	29.78
326.755	32.38
327.221	31.78
327.686	28.58
328.152	38.38
328.617	28.08
329.083	41.58
329.548	41.48
330.014	42.58
330.479	30.78
330.944	34.58
331.41	36.98
331.875	44.78
332.34	34.68
332.805	33.68
333.271	40.98
333.736	31.78
334.201	42.48
334.666	44.48
335.131	37.38
335.596	43.98
336.061	35.78
336.526	27.78
336.991	41.58
337.456	50.48
337.921	33.88
338.386	40.28
338.851	40.08
339.316	40.18
339.781	42.58
340.246	43.58
340.711	42.58
341.175	43.58
341.64	34.78
342.105	51.18
342.569	51.28
343.034	49.58
343.499	50.08
343.963	47.98
344.428	56.48
344.893	57.78
345.357	50.78
345.822	52.18
346.286	62.28
346.751	56.28
347.215	60.58
347.679	63.08
348.144	78.88
348.608	67.38
349.073	66.08
349.537	69.78
350.001	74.98
350.465	74.98
350.93	65.08
351.394	77.88
351.858	61.78
352.322	73.88
352.786	68.48
353.25	82.48
353.715	95.18
354.179	85.28
354.643	103.18
355.107	100.28
355.571	93.88
356.035	86.08
356.498	95.28
356.962	100.78
357.426	100.78
357.89	94.38
358.354	81.98
358.818	81.88
359.281	73.58
359.745	71.38
360.209	77.88
360.673	76.18
361.136	79.48
361.6	75.98
362.064	81.78
362.527	81.98
362.991	89.48
363.454	74.08
363.918	75.68
364.381	75.68
364.845	80.68
365.308	82.08
365.772	89.58
366.235	79.28
366.698	84.28
367.162	85.58
367.625	84.58
368.088	86.08
368.552	86.28
369.015	91.58
369.478	90.28
369.941	99.18
370.404	89.08
370.867	103.48
371.331	102.68
371.794	102.88
372.257	94.28
372.72	99.38
373.183	103.18
373.646	96.88
374.109	93.08
374.572	109.58
375.035	92.88
375.497	97.68
375.96	101.18
376.423	103.38
376.886	115.38
377.349	107.78
377.811	100.78
378.274	106.18
378.737	101.08
379.199	116.28
379.662	111.58
380.125	114.48
380.587	108.98
381.05	110.48
381.512	111.38
381.975	124.28
382.437	123.78
382.9	125.48
383.362	127.58
383.825	132.08
384.287	131.68
384.75	123.78
385.212	131.18
385.674	135.68
386.136	131.58
386.599	118.68
387.061	130.18
387.523	127.38
387.985	125.78
388.447	136.08
388.91	127.08
389.372	135.18
389.834	134.28
390.296	132.38
390.758	140.18
391.22	136.28
391.682	142.28
392.144	144.08
392.606	143.78
393.068	143.08
393.529	159.78
393.991	145.28
394.453	139.08
394.915	141.18
395.377	138.18
395.838	146.88
396.3	142.88
396.762	141.58
397.224	137.68
397.685	143.08
398.147	142.58
398.608	145.18
399.07	138.38
399.531	145.98
399.993	151.08
400.454	167.58
400.916	154.08
401.377	154.28
401.839	159.38
402.3	158.48
402.762	174.98
403.223	189.08
403.684	187.78
404.145	169.48
404.607	177.28
405.068	175.28
405.529	175.08
405.99	189.18
406.451	177.88
406.913	185.68
407.374	180.28
407.835	173.08
408.296	181.88
408.757	184.38
409.218	192.78
409.679	186.58
410.14	181.48
410.601	186.38
411.062	187.98
411.522	190.68
411.983	190.18
412.444	186.68
412.905	200.48
413.366	201.08
413.826	210.78
414.287	237.78
414.748	286.38
415.208	277.48
415.669	238.48
416.13	225.58
416.59	223.38
417.051	236.28
417.511	236.68
417.972	265.78
418.432	280.68
418.893	326.48
419.353	281.08
419.814	216.78
420.274	196.98
420.734	198.98
421.195	208.38
421.655	202.48
422.115	214.38
422.576	217.68
423.036	218.48
423.496	225.08
423.956	233.98
424.416	245.68
424.876	280.58
425.336	269.48
425.797	282.08
426.257	275.68
426.717	257.38
427.177	245.78
427.637	232.48
428.097	250.18
428.556	257.08
429.016	292.28
429.476	274.58
429.936	285.78
430.396	290.98
430.856	291.38
431.315	319.58
431.775	352.38
432.235	380.88
432.694	359.38
433.154	371.18
433.614	380.48
434.073	332.58
434.533	293.48
434.993	281.88
435.452	292.88
435.912	290.98
436.371	282.78
436.83	279.48
437.29	269.28
437.749	254.98
438.209	258.68
438.668	267.68
439.127	275.98
439.587	257.08
440.046	247.68
440.505	266.18
440.964	276.08
441.424	306.88
441.883	303.68
442.342	261.18
442.801	235.28
443.26	235.88
443.719	248.98
444.178	239.98
444.637	228.68
445.096	239.98
445.555	241.18
446.014	236.98
446.473	243.98
446.932	243.88
447.391	241.18
447.849	242.68
448.308	235.98
448.767	236.28
449.226	242.38
449.685	250.18
450.143	262.28
450.602	262.48
451.061	243.48
451.519	244.08
451.978	243.48
452.436	246.58
452.895	251.68
453.353	255.18
453.812	250.28
454.27	248.98
454.729	249.88
455.187	249.78
455.646	255.38
456.104	251.68
456.562	264.08
457.021	273.78
457.479	264.78
457.937	268.78
458.395	273.68
458.854	253.98
459.312	261.28
459.77	275.18
460.228	268.88
460.686	256.38
461.144	261.48
461.602	261.88
462.06	261.88
462.518	273.58
462.976	262.18
463.434	267.68
463.892	279.88
464.35	279.28
464.808	289.28
465.266	274.28
465.724	284.88
466.181	287.88
466.639	279.68
467.097	299.48
467.555	309.78
468.012	309.78
468.47	319.08
468.928	325.78
469.385	342.08
469.843	347.18
470.3	342.68
470.758	363.48
471.215	377.78
471.673	393.38
472.13	385.28
472.588	407.18
473.045	388.08
473.503	387.48
473.96	404.48
474.417	416.58
474.875	435.08
475.332	461.08
475.789	459.28
476.246	462.18
476.704	477.48
477.161	495.28
477.618	507.98
478.075	550.08
478.532	590.78
478.989	642.58
479.446	719.98
479.903	732.28
480.36	770.88
480.817	807.38
481.274	901.38
481.731	974.48
482.188	1054.68
482.645	1172.88
483.102	1245.78
483.558	1363.58
484.015	1422.38
484.472	1403.18
484.929	1368.38
485.385	1319.28
485.842	1293.18
486.299	1254.38
486.755	1187.18
487.212	1016.38
487.668	883.28
488.125	822.88
488.582	753.98
489.038	733.68
489.494	697.18
489.951	676.18
490.407	649.98
490.864	645.88
491.32	623.58
491.776	624.68
492.233	629.28
492.689	591.78
493.145	593.98
493.602	593.08
494.058	589.68
494.514	583.48
494.97	607.98
495.426	612.98
495.882	599.58
496.338	592.08
496.794	591.68
497.251	589.08
497.707	600.28
498.163	595.98
498.618	611.28
499.074	602.48
499.53	624.28
499.986	625.28
500.442	602.38
500.898	591.48
501.354	592.18
501.809	581.98
502.265	597.08
502.721	604.68
503.177	610.98
503.632	617.58
504.088	618.18
504.543	633.38
504.999	642.78
505.455	628.28
505.91	608.08
506.366	607.58
506.821	600.18
507.277	607.08
507.732	613.58
508.187	597.78
508.643	623.68
509.098	621.28
509.553	631.18
510.009	633.28
510.464	636.38
510.919	650.48
511.375	656.28
511.83	664.08
512.285	674.58
512.74	698.38
513.195	713.38
513.65	707.68
514.105	716.28
514.56	700.88
515.015	728.38
515.47	744.58
515.925	715.08
516.38	723.98
516.835	728.28
517.29	724.08
517.745	713.78
518.2	713.58
518.655	694.18
519.109	689.18
519.564	689.48
520.019	671.18
520.474	666.88
520.928	668.38
521.383	674.18
521.838	652.58
522.292	661.98
522.747	656.78
523.201	647.78
523.656	639.48
524.11	657.28
524.565	645.18
525.019	635.68
525.474	644.88
525.928	639.98
526.382	641.88
526.837	638.08
527.291	632.78
527.745	633.68
528.2	628.88
528.654	620.88
529.108	621.78
529.562	623.98
530.016	622.68
530.47	626.58
530.925	625.18
531.379	629.48
531.833	629.68
532.287	628.68
532.741	633.78
533.195	632.58
533.649	624.08
534.103	639.58
534.556	620.48
535.01	631.88
535.464	622.68
535.918	637.78
536.372	628.08
536.826	629.88
537.279	622.18
537.733	628.68
538.187	640.48
538.64	634.38
539.094	637.28
539.548	640.38
540.001	636.48
540.455	639.98
540.908	649.28
541.362	660.78
541.815	649.88
542.269	665.78
542.722	666.08
543.175	678.88
543.629	674.68
544.082	695.28
544.536	695.28
544.989	689.48
545.442	699.88
545.895	690.98
546.349	699.08
546.802	687.38
547.255	699.68
547.708	710.28
548.161	708.38
548.614	715.28
549.067	731.18
549.52	704.28
549.973	702.68
550.426	713.58
550.879	684.58
551.332	698.68
551.785	704.48
552.238	696.08
552.691	711.38
553.144	723.18
553.596	732.08
554.049	752.78
554.502	758.78
554.955	766.48
555.407	773.58
555.86	769.08
556.313	756.78
556.765	746.28
557.218	750.88
557.67	739.68
558.123	733.98
558.576	738.98
559.028	745.68
559.48	748.68
559.933	737.48
560.385	714.88
560.838	693.88
561.29	670.78
561.742	672.68
562.195	653.08
562.647	656.08
563.099	664.08
563.551	650.88
564.004	671.08
564.456	651.18
564.908	632.38
565.36	632.48
565.812	613.08
566.264	601.58
566.716	602.28
567.168	590.48
567.62	598.98
568.072	582.38
568.524	583.08
568.976	578.78
569.428	558.58
569.88	565.38
570.332	572.88
570.784	571.48
571.235	570.48
571.687	576.38
572.139	581.28
572.59	578.88
573.042	583.08
573.494	583.68
573.945	572.58
574.397	550.68
574.849	561.18
575.3	574.48
575.752	567.78
576.203	559.88
576.655	560.78
577.106	545.28
577.557	537.28
578.009	547.48
578.46	545.18
578.912	543.48
579.363	536.68
579.814	542.68
580.265	531.28
580.717	541.58
581.168	529.98
581.619	547.88
582.07	549.68
582.521	547.88
582.972	540.98
583.423	546.08
583.875	538.98
584.326	551.18
584.777	563.98
585.227	582.88
585.678	596.98
586.129	605.28
586.58	630.78
587.031	649.08
587.482	683.68
587.933	711.98
588.384	686.68
588.834	644.38
589.285	614.88
589.736	624.58
590.186	617.58
590.637	608.68
591.088	593.08
591.538	583.48
591.989	579.48
592.439	574.38
592.89	577.78
593.34	565.48
593.791	557.48
594.241	551.98
594.692	555.68
595.142	552.78
595.593	551.98
596.043	549.28
596.493	555.08
596.943	557.28
597.394	564.48
597.844	560.58
598.294	577.68
598.744	595.68
599.195	611.78
599.645	633.28
600.095	668.88
600.545	715.18
600.995	744.78
601.445	786.28
601.895	845.68
602.345	878.18
602.795	863.58
603.245	821.28
603.695	786.58
604.145	750.08
604.594	721.88
605.044	675.88
605.494	622.28
605.944	581.08
606.393	570.28
606.843	559.68
607.293	554.98
607.743	562.58
608.192	562.88
608.642	574.98
609.091	573.28
609.541	572.18
609.99	582.58
610.44	576.98
610.889	545.08
611.339	526.68
611.788	515.88
612.238	519.48
612.687	533.78
613.136	535.68
613.586	540.18
614.035	532.48
614.484	541.38
614.933	538.28
615.383	534.88
615.832	527.78
616.281	526.78
616.73	509.78
617.179	499.28
617.628	491.68
618.077	483.28
618.526	469.78
618.975	465.08
619.424	473.38
619.873	460.28
620.322	473.98
620.771	449.28
621.22	459.08
621.669	448.58
622.118	444.58
622.567	443.68
623.015	424.38
623.464	430.38
623.913	423.58
624.361	412.18
624.81	408.68
625.259	415.08
625.707	411.98
626.156	416.88
626.604	423.28
627.053	422.08
627.501	418.28
627.95	431.48
628.398	432.08
628.847	428.38
629.295	429.38
629.744	424.58
630.192	427.18
630.64	412.08
631.089	406.98
631.537	400.68
631.985	384.48
632.433	387.88
632.881	385.48
633.33	391.08
633.778	387.48
634.226	389.08
634.674	394.68
635.122	402.08
635.57	406.18
636.018	406.58
636.466	421.78
636.914	401.48
637.362	418.98
637.81	423.88
638.258	430.48
638.705	421.58
639.153	448.48
639.601	449.38
640.049	467.48
640.497	501.88
640.944	518.18
641.392	480.38
641.84	453.68
642.287	430.58
642.735	410.58
643.182	409.78
643.63	409.38
644.078	407.28
644.525	421.78
644.973	422.98
645.42	429.88
645.867	454.08
646.315	463.28
646.762	473.68
647.21	497.38
647.657	515.98
648.104	535.58
648.551	544.28
648.999	590.18
649.446	633.98
649.893	689.48
650.34	783.28
650.787	929.28
651.234	1126.48
651.682	1449.08
652.129	1933.98
652.576	2732.28
653.023	3995.58
653.47	5535.68
653.917	6977.68
654.363	8174.88
654.81	9280.38
655.257	8807.58
655.704	5826.78
656.151	3484.58
656.598	2274.58
657.044	1634.68
657.491	1271.88
657.938	1011.58
658.385	853.58
658.831	737.78
659.278	665.08
659.724	598.68
660.171	555.68
660.618	501.98
661.064	475.88
661.511	465.38
661.957	445.28
662.404	439.88
662.85	438.98
663.296	427.48
663.743	391.58
664.189	383.18
664.635	382.68
665.082	371.48
665.528	373.38
665.974	366.58
666.42	369.78
666.867	356.68
667.313	342.98
667.759	330.08
668.205	324.48
668.651	325.58
669.097	322.98
669.543	309.78
669.989	318.98
670.435	316.38
670.881	324.28
671.327	325.28
671.773	336.88
672.219	354.68
672.665	390.38
673.11	416.28
673.556	450.98
674.002	473.68
674.448	476.78
674.893	397.88
675.339	346.08
675.785	319.38
676.23	303.68
676.676	281.78
677.122	277.98
677.567	276.18
678.013	267.28
678.458	254.98
678.904	256.08
679.349	250.88
679.794	253.88
680.24	252.18
680.685	248.48
681.131	248.58
681.576	253.28
682.021	254.58
682.466	249.28
682.912	243.48
683.357	242.38
683.802	262.88
684.247	286.28
684.692	315.48
685.137	347.38
685.583	388.88
686.028	408.38
686.473	378.38
686.918	324.88
687.363	293.58
687.807	281.28
688.252	262.88
688.697	255.48
689.142	240.58
689.587	237.18
690.032	225.38
690.477	243.38
690.921	245.78
691.366	265.78
691.811	283.98
692.255	301.48
692.7	323.08
693.145	356.28
693.589	468.18
694.034	769.28
694.478	1089.98
694.923	1270.28
695.367	1692.28
695.812	890.48
696.256	372.98
696.701	253.68
697.145	241.98
697.59	231.48
698.034	222.98
698.478	231.38
698.922	236.38
699.367	231.28
699.811	237.38
700.255	244.18
700.699	264.38
701.143	296.58
701.588	332.78
702.032	367.68
702.476	366.88
702.92	351.68
703.364	353.68
703.808	432.78
704.252	711.38
704.696	1022.68
705.14	1220.88
705.584	1598.18
706.027	787.38
706.471	379.48
706.915	278.28
707.359	249.78
707.803	226.98
708.246	217.48
708.69	220.38
709.134	222.78
709.577	216.48
710.021	229.18
710.465	219.08
710.908	216.98
711.352	213.88
711.795	215.08
712.239	247.08
712.682	262.88
713.126	289.38
713.569	327.28
714.012	255.08
714.456	209.98
714.899	202.88
715.342	189.38
715.786	184.78
716.229	176.28
716.672	182.28
717.115	165.68
717.558	176.08
718.002	180.18
718.445	184.88
718.888	201.08
719.331	205.48
719.774	220.98
720.217	218.68
720.66	204.58
721.103	197.88
721.546	177.58
721.989	174.48
722.432	160.68
722.874	165.28
723.317	157.28
723.76	166.58
724.203	179.48
724.645	212.88
725.088	300.28
725.531	389.98
725.974	461.68
726.416	399.48
726.859	215.98
727.301	168.78
727.744	166.48
728.187	159.58
728.629	170.28
729.071	167.08
729.514	181.48
729.956	188.08
730.399	193.88
730.841	209.78
731.283	196.08
731.726	197.48
732.168	186.18
732.61	189.28
733.053	198.98
733.495	214.48
733.937	243.48
734.379	273.98
734.821	307.58
735.263	373.38
735.705	558.58
736.148	1055.48
736.59	1808.38
737.032	2270.48
737.474	1865.98
737.916	595.58
738.357	303.98
738.799	224.38
739.241	211.58
739.683	203.28
740.125	205.78
740.567	210.98
741.008	233.28
741.45	226.08
741.892	231.58
742.334	244.98
742.775	269.58
743.217	246.58
743.658	193.18
744.1	173.88
744.542	185.68
744.983	228.98
745.425	266.68
745.866	261.28
746.307	204.78
746.749	195.48
747.19	225.88
747.632	310.38
748.073	589.08
748.514	1273.18
748.956	2042.78
749.397	2552.08
749.838	2144.38
750.279	2213.38
750.72	1123.58
751.162	399.48
751.603	230.38
752.044	176.98
752.485	148.48
752.926	144.78
753.367	148.38
753.808	137.48
754.249	136.08
754.69	131.58
755.131	134.08
755.572	131.58
756.013	122.38
756.453	129.88
756.894	123.58
757.335	132.88
757.776	132.88
758.216	129.78
758.657	139.18
759.098	136.78
759.538	155.38
759.979	182.28
760.42	260.08
760.86	481.78
761.301	1234.78
761.741	3113.78
762.182	4942.18
762.622	3517.18
763.063	984.48
763.503	393.28
763.943	230.18
764.384	193.48
764.824	189.68
765.264	179.38
765.705	154.48
766.145	130.18
766.585	128.68
767.025	116.58
767.465	116.38
767.906	126.68
768.346	147.98
768.786	154.78
769.226	148.38
769.666	209.08
770.106	405.68
770.546	1053.08
770.986	1916.38
771.426	1787.48
771.866	573.18
772.306	233.98
772.745	138.38
773.185	114.78
773.625	108.68
774.065	105.18
774.505	117.48
774.944	153.38
775.384	258.98
775.824	469.18
776.263	472.58
776.703	212.78
777.142	121.38
777.582	96.28
778.021	86.28
778.461	81.18
778.9	87.68
779.34	88.38
779.779	74.98
780.219	72.28
780.658	69.68
781.097	70.18
781.537	82.28
781.976	73.58
782.415	66.28
782.855	69.88
783.294	68.78
783.733	71.38
784.172	71.08
784.611	74.68
785.05	74.08
785.489	73.08
785.928	81.88
786.367	82.58
786.806	82.08
787.245	90.98
787.684	90.68
788.123	102.28
788.562	92.58
789.001	87.08
789.44	83.78
789.879	76.68
790.317	81.18
790.756	93.28
791.195	87.38
791.634	103.18
792.072	132.38
792.511	234.28
792.95	677.68
793.388	1537.68
793.827	1465.38
794.265	497.18
794.704	199.38
795.142	130.78
795.581	109.88
796.019	97.58
796.458	92.78
796.896	79.98
797.334	82.68
797.773	103.08
798.211	145.68
798.649	286.68
799.087	705.88
799.526	1125.78
799.964	1427.78
800.402	1530.98
800.84	560.78
801.278	215.08
801.716	131.38
802.154	104.68
802.592	111.08
803.03	96.38
803.468	93.38
803.906	98.38
804.344	106.48
804.782	95.98
805.22	91.78
805.658	88.48
806.096	99.08
806.533	109.08
806.971	120.58
807.409	148.58
807.847	211.28
808.284	445.58
808.722	1299.38
809.16	2452.28
809.597	2259.08
810.035	4019.58
810.472	4601.78
810.91	1623.88
811.347	595.58
811.785	305.78
812.222	190.88
812.66	142.38
813.097	115.88
813.535	102.18
813.972	94.88
814.409	84.08
814.846	76.58
815.284	82.48
815.721	69.98
816.158	71.98
816.595	71.78
817.032	113.98
817.47	143.08
817.907	108.58
818.344	75.68
818.781	61.28
819.218	73.38
819.655	92.58
820.092	147.08
820.529	177.48
820.966	130.88
821.403	99.88
821.839	75.68
822.276	70.38
822.713	91.48
823.15	101.28
823.587	82.28
824.023	98.98
824.46	199.58
824.897	632.98
825.333	1027.68
825.77	432.68
826.206	162.48
826.643	94.68
827.08	65.78
827.516	54.08
827.953	49.68
828.389	58.28
828.825	44.88
829.262	47.48
829.698	43.68
830.135	41.78
830.571	43.18
831.007	43.78
831.443	45.68
831.88	46.08
832.316	37.58
832.752	43.68
833.188	46.98
833.624	41.78
834.06	45.68
834.497	42.88
834.933	49.68
835.369	45.98
835.805	41.08
836.241	51.78
836.677	54.88
837.112	62.68
837.548	72.18
837.984	96.08
838.42	137.78
838.856	345.68
839.292	1080.98
839.727	1746.98
840.163	799.68
840.599	651.28
841.034	1484.18
841.47	1653.68
841.906	591.48
842.341	239.88
842.777	146.88
843.212	147.38
843.648	146.88
844.083	84.08
844.519	56.68
844.954	47.68
845.39	33.88
845.825	42.18
846.261	40.98
846.696	35.58
847.131	36.38
847.566	39.68
848.002	31.08
848.437	32.08
848.872	41.18
849.307	39.78
849.742	59.78
850.177	122.18
850.613	394.68
851.048	662.38
851.483	280.98
851.918	106.88
852.353	56.08
852.788	33.78
853.223	35.28
853.657	37.08
854.092	33.08
854.527	31.08
854.962	27.08
855.397	32.08
855.832	37.28
856.266	28.78
856.701	25.18
857.136	26.88
857.57	25.68
858.005	38.38
858.44	43.98
858.874	33.48
859.309	36.88
859.743	26.68
860.178	29.48
860.612	33.58
861.047	38.48
861.481	47.58
861.915	55.98
862.35	37.98
862.784	25.48
863.218	31.18
863.653	24.18
864.087	30.08
864.521	35.68
864.955	43.18
865.39	110.28
865.824	125.38
866.258	87.28
866.692	136.88
867.126	151.78
867.56	85.48
867.994	40.88
868.428	24.58
868.862	37.28
869.296	44.88
869.73	46.38
870.164	42.48
870.598	39.08
871.031	29.78
871.465	19.88
871.899	24.08
872.333	12.68
872.766	12.28
873.2	12.18
873.634	17.48
874.067	18.48
874.501	18.28
874.935	28.18
875.368	24.78
875.802	17.58
876.235	15.58
876.669	20.18
877.102	15.58
877.535	19.68
877.969	20.48
878.402	14.58
878.836	10.88
879.269	13.88
879.702	11.88
880.135	13.48
880.569	15.48
881.002	17.18
881.435	14.48
881.868	5.18
882.301	12.08
882.734	9.78
883.167	16.28
883.601	15.88
884.034	14.38
884.467	11.88
884.899	9.68
885.332	12.58
885.765	8.98
886.198	5.28
886.631	10.28
887.064	12.58
887.497	13.38
887.929	15.08
888.362	5.28
888.795	6.18
889.228	11.78
889.66	13.98
890.093	6.58
890.526	13.08
890.958	5.78
891.391	6.78
891.823	13.28
892.256	15.48
892.688	1.48
893.121	8.48
893.553	7.48
893.985	14.88
894.418	12.38
894.85	10.98
895.282	9.58
895.715	9.38
896.147	15.18
896.579	14.88
897.011	13.18
897.444	10.78
897.876	8.38
898.308	14.88
898.74	10.18
899.172	5.38
899.604	13.08
900.036	8.28
900.468	6.38
900.9	10.48
901.332	12.98
901.764	10.08
902.196	10.98
902.628	9.88
903.06	5.08
903.491	28.78
903.923	21.38
904.355	14.28
904.787	15.08
905.218	16.98
905.65	14.38
906.082	2.68
906.513	3.48
906.945	13.58
907.376	4.08
907.808	4.38
908.239	13.88
908.671	13.98
909.102	19.58
909.534	19.68
909.965	31.18
910.397	66.28
910.828	234.38
911.259	365.68
911.691	167.58
912.122	84.68
912.553	38.08
912.984	29.68
913.415	19.38
913.847	18.48
914.278	10.78
914.709	6.18
915.14	14.08
915.571	14.68
916.002	3.48
916.433	12.08
916.864	9.48
917.295	5.08
917.726	15.28
918.157	8.08
918.587	15.48
919.018	12.08
919.449	13.38
919.88	17.18
920.311	24.28
920.741	29.78
921.172	122.18
921.603	111.88
922.033	47.58
922.464	35.08
922.895	14.18
923.325	12.78
923.756	5.88
924.186	6.68
924.617	9.38
925.047	16.18
925.478	13.68
925.908	9.68
926.338	5.48
926.769	8.68
927.199	13.08
927.629	4.68
928.06	8.18
928.49	7.48
928.92	12.18
929.35	6.48
929.78	6.68
930.21	5.08
930.641	-0.22
931.071	0.38
931.501	-2.22
931.931	5.58
932.361	0.58
932.791	6.78
933.221	3.58
933.651	-3.62
934.08	6.88
934.51	24.38
934.94	-1.82
935.37	0.78
935.8	10.08
936.229	4.88
936.659	6.08
937.089	-0.02
937.519	15.48
937.948	17.88
938.378	12.58
938.807	4.08
939.237	2.88
939.666	0.48
940.096	-9.02
940.525	-1.52
940.955	-2.82
941.384	0.48
941.814	-10.42
942.243	-8.32
942.672	1.68
943.102	-2.42
943.531	-1.72
943.96	1.58
944.39	0.28
944.819	-1.12
945.248	1.28
945.677	-5.42
946.106	1.88
946.535	1.98
946.964	-3.32
947.393	0.08
947.822	-7.82
948.251	-3.62
948.68	-4.42
949.109	7.68
949.538	5.38
949.967	1.28
950.396	-5.12
950.825	-3.62
951.254	-0.32
951.682	-8.02
952.111	5.88
952.54	5.98
952.969	-4.32
953.397	-6.22
953.826	-0.22
954.254	-9.42
954.683	2.78
955.112	-1.92
955.54	-6.32
955.969	-1.22
956.397	-0.92
956.826	-2.82
957.254	0.08
957.682	0.38
958.111	7.58
958.539	2.98
958.967	3.68
959.396	-4.32
959.824	-4.42
960.252	-0.52
960.68	-8.32
961.109	-3.82
961.537	-0.42
961.965	-2.52
962.393	1.58
962.821	-5.22
963.249	0.98
963.677	4.98
964.105	2.78
964.533	31.58
964.961	25.48
965.389	13.88
965.817	0.88
966.245	-3.22
966.672	-1.02
967.1	-12.82
967.528	-2.82
967.956	-6.42
968.383	0.18
968.811	-6.02
969.239	-3.72
969.666	-10.62
970.094	-0.42
970.522	-1.52
970.949	-0.02
971.377	-3.32
971.804	-2.32
972.232	-2.02
972.659	-5.82
973.087	-4.52
973.514	-4.92
973.941	-6.02
974.369	0.58
974.796	2.68
975.223	0.58
975.651	-4.62
976.078	-1.52
976.505	-2.12
976.932	-1.02
977.359	9.98
977.786	10.88
978.214	-2.42
978.641	-3.52
979.068	-9.32
979.495	-12.22
979.922	0.08
980.349	-6.92
980.776	-1.22
981.202	-3.82
981.629	3.78
982.056	6.78
982.483	-3.52
982.91	-2.82
983.337	-10.12
983.763	2.18
984.19	-4.62
984.617	-5.02
985.043	-11.32
985.47	-7.22
985.897	-1.42
986.323	-4.12
986.75	-0.92
987.176	2.68
987.603	-3.62
988.029	-4.72
988.456	-8.62
988.882	-1.02
989.308	-7.32
989.735	-9.52
990.161	-0.62
990.587	0.38
991.014	-0.62
991.44	3.28
991.866	-4.32
992.292	-1.32
992.719	-7.62
993.145	0.68
993.571	-9.32
993.997	-9.22
994.423	-2.72
994.849	-5.32
995.275	2.28
995.701	-5.52
996.127	-2.82
996.553	1.18
996.979	-3.52
997.405	-2.42
997.83	-6.62
998.256	-11.12
998.682	-8.92
999.108	-6.82
999.534	2.08
999.959	-0.52
1000.385	-3.22
1000.811	0.68
1001.236	-12.32
1001.662	-7.92
1002.087	-6.12
1002.513	-0.62
1002.938	3.88
1003.364	-3.32
1003.789	-3.32
1004.215	-4.02
1004.64	-0.02
1005.066	3.38
1005.491	1.38
1005.916	-1.12
1006.342	-2.92
1006.767	-8.42
1007.192	3.68
1007.617	-3.92
1008.042	-9.52
1008.468	-9.72
1008.893	-4.42
1009.318	-2.92
1009.743	-4.72
1010.168	0.68
1010.593	1.18
1011.018	-9.32
1011.443	-7.72
1011.868	-1.02
1012.293	-2.82
1012.718	-7.02
1013.143	0.58
1013.567	-0.72
1013.992	-1.82
1014.417	-14.02
1014.842	3.48
1015.267	-9.62
1015.691	-8.72
1016.116	-2.62
1016.541	-2.32
1016.965	5.68
1017.39	3.18
1017.814	-0.12
1018.239	-0.62
1018.663	-6.62
1019.088	-13.32
1019.512	-8.42
1019.937	-4.92
1020.361	-11.62
1020.785	-8.92
1021.21	-8.72
1021.634	-4.02
1022.058	-4.32
1022.483	5.28
1022.907	-0.22
1023.331	-8.62
1023.755	-2.32
1024.179	-4.32
1024.604	-4.02
1025.028	-10.52
1025.452	-4.82
1025.876	-5.32
1026.3	-1.92
1026.724	-13.62
1027.148	-8.52
1027.572	-11.92
1027.996	-3.82
1028.42	-1.62
1028.843	-2.82
1029.267	-2.92
1029.691	-2.52
1030.115	-9.62
1030.539	-4.32
1030.962	-9.32
1031.386	-8.62
1031.81	-3.52
1032.233	-4.82
1032.657	-3.92
1033.08	1.38
1033.504	-0.12
1033.927	-4.72
1034.351	-6.02
1034.774	-4.52
1035.198	-4.72
1035.621	-10.42
1036.045	-8.42
1036.468	3.08
1036.891	-7.62
1037.315	-8.72
1037.738	-11.62
1038.161	-3.72
1038.584	-1.22
1039.008	-9.32
1039.431	-1.02
1039.854	-2.32
1040.277	-11.52
1040.7	-8.72
1041.123	-1.22
1041.546	-7.62
1041.969	-7.02
1042.392	-2.52
1042.815	-5.02
1043.238	-1.02
1043.661	0.68
1044.084	-7.12
1044.507	-4.52
1044.93	-7.62
1045.352	-10.32
1045.775	-3.92
1046.198	-2.92
1046.621	-2.62
1047.043	0.28
1047.466	-6.22
1047.889	-6.32
1048.311	-5.72
1048.734	-1.02
1049.156	-9.52
1049.579	0.58
1050.001	-5.82
1050.424	-1.12
1050.846	2.38
1051.269	-6.12
1051.691	-4.82
1052.113	-6.82
1052.536	0.18
1052.958	-4.62
1053.38	-8.02
1053.802	-11.42
1054.225	0.28
1054.647	-9.12
1055.069	-9.42
1055.491	-2.02
1055.913	-2.72
1056.335	-3.32
1056.757	-5.22
1057.179	-8.42
1057.601	-3.62
1058.023	-4.52
1058.445	-1.52
1058.867	-8.32
1059.289	-2.12
1059.711	-7.82
1060.133	-7.32
1060.555	-4.72
1060.976	-6.52
1061.398	-5.62
1061.82	-9.82
1062.241	-5.82
1062.663	-12.52
1063.085	-3.22
1063.506	-2.92
1063.928	-3.72
1064.35	3.28
1064.771	-13.62
1065.193	-4.42
1065.614	-11.92
1066.035	1.88
1066.457	-6.12
1066.878	-2.22
1067.3	-2.82
1067.721	-6.92
1068.142	-5.02
1068.564	-8.02
1068.985	-6.02
1069.406	-3.62
1069.827	0.18
1070.248	-0.92
1070.67	-10.52
1071.091	-7.62
1071.512	-8.52
1071.933	-0.62
1072.354	-6.02
1072.775	-4.22
1073.196	-7.72
1073.617	-2.72
1074.038	-11.32
1074.459	-5.22
1074.88	-5.52
1075.3	-4.82
1075.721	-8.12
1076.142	-7.02
1076.563	-7.82
1076.983	-7.52
1077.404	-5.82
1077.825	-13.52
1078.246	-6.22
1078.666	-17.42
1079.087	-13.62
1079.507	-3.62
1079.928	-4.82
1080.348	2.98
1080.769	-6.32
1081.189	1.28
1081.61	0.88
1082.03	-2.72
1082.451	-2.02
1082.871	-0.42
1083.291	-10.52
1083.711	-11.92
1084.132	-7.52
1084.552	-9.92
1084.972	-7.32
1085.392	-9.92
1085.813	-4.92
1086.233	-9.32
1086.653	-4.32
1087.073	-2.92
1087.493	-5.62
1087.913	-7.52
1088.333	-11.02
1088.753	-2.02
1089.173	3.48
1089.593	-7.42
1090.013	-5.82
1090.433	-2.02
1090.852	-2.62
1091.272	-2.82
1091.692	-4.62
1092.112	-3.82
1092.531	-8.42
1092.951	-12.72
1093.371	-6.32
1093.79	-5.32
1094.21	-0.32
1094.63	-4.02
1095.049	-11.62
1095.469	1.68
1095.888	-4.42
1096.308	-2.52
1096.727	4.88
1097.146	-11.32
1097.566	-3.32
1097.985	-3.22
1098.405	-4.82
1098.824	-6.12
1099.243	-4.82
1099.662	-16.82
1100.082	-3.42
1100.501	-3.92
1100.92	-7.92
1101.339	-6.52
1101.758	-2.02
