Data from 20171114-ORNL-Ar_H_NY_Subt18_08-03-56-876.txt Node
Date: Tue Nov 14 08:03:56 EST 2017
User: Ender
Spectrometer: HR+D1039
Trigger mode: 0
Integration Time (sec): 2.730000E-2
Scans to average: 10
Electric dark correction enabled: true
Nonlinearity correction enabled: false
Boxcar width: 0
XAxis mode: Wavelengths
Number of Pixels in Spectrum: 2048
>>>>>Begin Spectral Data<<<<<
187.836	-5.93
188.309	-5.93
188.782	-5.93
189.255	3.17
189.728	-6.93
190.201	4.57
190.674	-0.43
191.147	6.17
191.619	-2.43
192.092	-2.23
192.565	6.07
193.038	-0.03
193.511	5.27
193.984	1.17
194.456	1.47
194.929	-0.23
195.402	-7.83
195.874	-1.83
196.347	-8.53
196.82	-8.83
197.292	5.87
197.765	0.47
198.237	-11.53
198.71	2.97
199.182	-1.83
199.655	2.37
200.127	3.87
200.6	-7.73
201.072	-3.13
201.544	-1.73
202.017	-1.03
202.489	3.47
202.961	-5.43
203.433	-3.03
203.906	-3.93
204.378	-4.33
204.85	1.87
205.322	-8.53
205.794	-1.73
206.266	-9.23
206.739	-9.53
207.211	5.27
207.683	-5.23
208.155	-2.53
208.627	-0.63
209.099	2.27
209.57	-9.73
210.042	-2.73
210.514	-5.43
210.986	-3.23
211.458	-7.43
211.93	-9.53
212.402	3.37
212.873	-8.13
213.345	-6.73
213.817	-15.83
214.288	-6.13
214.76	-12.83
215.232	0.97
215.703	-4.03
216.175	-2.73
216.646	-2.93
217.118	-5.33
217.589	-2.83
218.061	-2.53
218.532	-7.23
219.004	0.27
219.475	-9.23
219.946	-1.63
220.418	-5.33
220.889	1.77
221.36	0.87
221.832	-4.23
222.303	-5.53
222.774	-2.93
223.245	-9.53
223.717	-4.43
224.188	-2.33
224.659	-9.93
225.13	-9.83
225.601	-1.43
226.072	-2.23
226.543	4.87
227.014	1.37
227.485	1.87
227.956	-6.73
228.427	-8.23
228.898	2.37
229.369	2.77
229.839	-5.73
230.31	-5.93
230.781	-1.13
231.252	-11.63
231.722	-6.73
232.193	-8.83
232.664	5.97
233.135	0.17
233.605	-8.23
234.076	-6.63
234.546	-3.43
235.017	1.07
235.487	1.07
235.958	-7.13
236.428	-8.63
236.899	-6.93
237.369	-6.13
237.84	-6.03
238.31	-1.53
238.78	-3.33
239.251	-9.43
239.721	-4.03
240.191	-3.83
240.662	0.87
241.132	0.97
241.602	-7.73
242.072	1.97
242.542	1.67
243.013	-1.13
243.483	-2.23
243.953	3.27
244.423	-5.43
244.893	-7.13
245.363	-0.33
245.833	-1.33
246.303	-4.03
246.773	-2.83
247.243	-0.13
247.712	-1.43
248.182	5.77
248.652	-3.33
249.122	-6.83
249.592	-1.93
250.061	4.17
250.531	4.77
251.001	-6.03
251.471	3.77
251.94	10.37
252.41	-2.23
252.879	-4.63
253.349	9.47
253.818	3.87
254.288	-2.33
254.757	-4.03
255.227	-7.33
255.696	2.87
256.166	-1.43
256.635	2.97
257.105	1.57
257.574	1.57
258.043	-1.13
258.513	-3.73
258.982	1.57
259.451	-5.43
259.92	-1.23
260.389	-1.63
260.859	4.47
261.328	0.87
261.797	2.17
262.266	-0.43
262.735	4.47
263.204	1.07
263.673	-1.23
264.142	5.07
264.611	-8.23
265.08	-3.23
265.549	-11.33
266.018	2.57
266.487	-1.33
266.955	-2.83
267.424	-2.13
267.893	-3.03
268.362	-2.73
268.83	-5.43
269.299	4.87
269.768	-1.13
270.236	0.77
270.705	-2.23
271.174	-5.63
271.642	0.97
272.111	-7.53
272.579	1.17
273.048	1.17
273.516	-1.33
273.985	-2.33
274.453	1.77
274.922	9.17
275.39	4.27
275.858	-1.33
276.327	7.07
276.795	7.57
277.263	-0.23
277.731	14.47
278.2	0.67
278.668	0.57
279.136	7.67
279.604	1.67
280.072	2.57
280.54	4.17
281.008	-2.73
281.477	7.87
281.945	4.67
282.413	4.67
282.881	8.67
283.348	2.77
283.816	11.87
284.284	7.87
284.752	17.27
285.22	7.07
285.688	8.17
286.156	1.87
286.623	8.37
287.091	0.27
287.559	4.47
288.026	7.97
288.494	5.27
288.962	1.17
289.429	10.57
289.897	7.57
290.364	10.27
290.832	-0.43
291.3	7.97
291.767	8.47
292.234	11.37
292.702	4.67
293.169	11.77
293.637	10.37
294.104	8.27
294.571	-2.13
295.039	9.67
295.506	-0.03
295.973	4.57
296.44	11.67
296.908	10.07
297.375	9.87
297.842	6.37
298.309	12.57
298.776	6.07
299.243	13.17
299.71	2.57
300.177	8.87
300.644	12.27
301.111	12.87
301.578	19.57
302.045	7.27
302.512	20.07
302.979	21.27
303.446	21.47
303.913	8.67
304.379	12.07
304.846	15.57
305.313	14.87
305.78	14.17
306.246	15.97
306.713	16.97
307.18	14.47
307.646	20.27
308.113	25.37
308.579	14.37
309.046	18.47
309.512	19.37
309.979	9.47
310.445	23.27
310.912	23.97
311.378	23.37
311.845	17.07
312.311	24.77
312.777	21.57
313.244	21.47
313.71	31.27
314.176	19.77
314.642	19.87
315.109	12.77
315.575	23.57
316.041	26.07
316.507	18.67
316.973	23.87
317.439	21.97
317.905	28.47
318.371	26.07
318.837	20.07
319.303	22.37
319.769	26.77
320.235	18.87
320.701	25.07
321.167	23.47
321.633	20.57
322.099	26.07
322.564	32.37
323.03	26.57
323.496	22.17
323.962	31.27
324.427	27.17
324.893	31.97
325.359	29.47
325.824	29.37
326.29	27.37
326.755	28.57
327.221	31.47
327.686	34.27
328.152	39.77
328.617	36.27
329.083	32.67
329.548	44.17
330.014	43.97
330.479	32.47
330.944	30.97
331.41	33.87
331.875	35.87
332.34	35.57
332.805	30.37
333.271	35.57
333.736	28.67
334.201	39.67
334.666	40.37
335.131	40.17
335.596	42.37
336.061	41.97
336.526	37.57
336.991	32.37
337.456	41.77
337.921	43.87
338.386	35.37
338.851	37.37
339.316	35.67
339.781	39.87
340.246	44.37
340.711	31.57
341.175	41.07
341.64	34.87
342.105	43.07
342.569	46.67
343.034	50.37
343.499	47.87
343.963	36.17
344.428	55.47
344.893	43.77
345.357	48.87
345.822	56.27
346.286	50.87
346.751	54.17
347.215	52.37
347.679	52.67
348.144	71.07
348.608	70.37
349.073	59.17
349.537	60.67
350.001	65.77
350.465	74.57
350.93	67.77
351.394	67.17
351.858	57.57
352.322	71.07
352.786	67.97
353.25	80.17
353.715	84.47
354.179	71.47
354.643	93.27
355.107	93.27
355.571	83.87
356.035	85.07
356.498	87.57
356.962	81.97
357.426	96.07
357.89	86.87
358.354	81.67
358.818	71.37
359.281	68.87
359.745	61.17
360.209	68.17
360.673	58.97
361.136	72.37
361.6	74.47
362.064	75.57
362.527	76.37
362.991	77.27
363.454	69.47
363.918	60.87
364.381	70.77
364.845	77.27
365.308	79.47
365.772	76.17
366.235	78.87
366.698	71.27
367.162	75.17
367.625	77.87
368.088	76.07
368.552	77.57
369.015	82.77
369.478	84.07
369.941	84.97
370.404	80.07
370.867	84.97
371.331	88.47
371.794	96.17
372.257	86.57
372.72	99.77
373.183	91.37
373.646	89.37
374.109	86.67
374.572	85.37
375.035	89.27
375.497	88.77
375.96	91.77
376.423	97.77
376.886	97.97
377.349	96.57
377.811	92.87
378.274	88.17
378.737	92.27
379.199	91.97
379.662	96.87
380.125	102.37
380.587	98.77
381.05	94.47
381.512	102.87
381.975	112.67
382.437	100.97
382.9	113.67
383.362	112.17
383.825	127.67
384.287	112.07
384.75	107.47
385.212	110.57
385.674	119.17
386.136	122.87
386.599	114.07
387.061	116.47
387.523	111.87
387.985	119.37
388.447	117.87
388.91	116.37
389.372	114.37
389.834	115.97
390.296	119.77
390.758	117.67
391.22	133.27
391.682	130.97
392.144	129.57
392.606	134.57
393.068	126.87
393.529	139.37
393.991	133.07
394.453	126.47
394.915	122.37
395.377	119.37
395.838	128.67
396.3	128.37
396.762	128.47
397.224	122.17
397.685	124.27
398.147	126.07
398.608	132.07
399.07	126.27
399.531	126.87
399.993	130.97
400.454	148.87
400.916	137.67
401.377	127.87
401.839	145.37
402.3	141.37
402.762	150.87
403.223	167.07
403.684	157.97
404.145	148.27
404.607	151.97
405.068	153.57
405.529	157.77
405.99	172.17
406.451	153.47
406.913	160.07
407.374	156.77
407.835	153.67
408.296	156.37
408.757	163.87
409.218	170.47
409.679	172.07
410.14	169.27
410.601	160.97
411.062	169.27
411.522	168.87
411.983	168.27
412.444	165.67
412.905	172.87
413.366	169.57
413.826	187.67
414.287	215.57
414.748	261.17
415.208	246.57
415.669	209.87
416.13	203.27
416.59	192.67
417.051	209.47
417.511	218.87
417.972	232.27
418.432	245.57
418.893	288.57
419.353	252.77
419.814	200.77
420.274	184.77
420.734	181.07
421.195	193.07
421.655	180.57
422.115	194.47
422.576	195.97
423.036	201.67
423.496	209.47
423.956	212.27
424.416	222.87
424.876	255.77
425.336	246.57
425.797	248.47
426.257	241.07
426.717	233.97
427.177	224.07
427.637	218.37
428.097	226.47
428.556	233.87
429.016	245.87
429.476	240.27
429.936	257.47
430.396	260.87
430.856	261.07
431.315	287.67
431.775	316.07
432.235	346.77
432.694	318.37
433.154	330.67
433.614	340.67
434.073	300.27
434.533	264.07
434.993	242.67
435.452	253.07
435.912	259.57
436.371	253.57
436.83	249.67
437.29	241.67
437.749	221.37
438.209	228.87
438.668	241.07
439.127	247.07
439.587	245.47
440.046	221.57
440.505	236.97
440.964	237.17
441.424	276.87
441.883	269.97
442.342	236.37
442.801	212.67
443.26	219.57
443.719	217.07
444.178	211.87
444.637	205.27
445.096	214.17
445.555	213.57
446.014	219.87
446.473	220.07
446.932	221.27
447.391	219.67
447.849	225.07
448.308	212.97
448.767	214.77
449.226	236.27
449.685	234.17
450.143	242.27
450.602	228.47
451.061	214.87
451.519	226.47
451.978	222.37
452.436	226.17
452.895	230.17
453.353	228.07
453.812	233.37
454.27	225.97
454.729	228.37
455.187	225.97
455.646	224.27
456.104	227.97
456.562	240.97
457.021	250.07
457.479	239.77
457.937	250.67
458.395	241.27
458.854	238.37
459.312	239.07
459.77	255.47
460.228	239.47
460.686	229.07
461.144	240.77
461.602	236.67
462.06	236.87
462.518	249.27
462.976	245.67
463.434	244.67
463.892	250.87
464.35	261.17
464.808	269.17
465.266	257.77
465.724	264.57
466.181	262.97
466.639	260.37
467.097	278.27
467.555	288.47
468.012	281.17
468.47	285.47
468.928	305.47
469.385	315.37
469.843	319.07
470.3	320.27
470.758	330.47
471.215	345.17
471.673	361.77
472.13	363.87
472.588	379.27
473.045	354.07
473.503	352.17
473.96	373.47
474.417	377.77
474.875	395.87
475.332	431.47
475.789	421.77
476.246	436.67
476.704	444.07
477.161	467.47
477.618	479.07
478.075	492.97
478.532	550.27
478.989	594.97
479.446	677.77
479.903	672.27
480.36	714.47
480.817	754.57
481.274	823.87
481.731	909.07
482.188	973.67
482.645	1097.97
483.102	1177.97
483.558	1272.57
484.015	1339.77
484.472	1302.97
484.929	1264.17
485.385	1236.87
485.842	1207.27
486.299	1163.67
486.755	1098.67
487.212	947.67
487.668	816.37
488.125	761.77
488.582	714.87
489.038	671.77
489.494	640.57
489.951	636.57
490.407	611.37
490.864	581.47
491.32	586.87
491.776	587.37
492.233	586.67
492.689	554.17
493.145	557.17
493.602	553.77
494.058	554.27
494.514	558.17
494.97	568.47
495.426	572.77
495.882	565.37
496.338	553.97
496.794	573.67
497.251	557.27
497.707	574.77
498.163	566.07
498.618	567.77
499.074	581.07
499.53	584.97
499.986	588.47
500.442	576.27
500.898	559.57
501.354	563.77
501.809	562.57
502.265	556.77
502.721	554.97
503.177	577.97
503.632	577.77
504.088	584.77
504.543	599.37
504.999	604.77
505.455	582.57
505.91	574.67
506.366	576.47
506.821	574.07
507.277	576.17
507.732	572.87
508.187	577.77
508.643	587.17
509.098	577.87
509.553	606.57
510.009	593.47
510.464	600.87
510.919	620.97
511.375	620.07
511.83	630.87
512.285	635.47
512.74	658.07
513.195	679.87
513.65	682.57
514.105	684.87
514.56	683.17
515.015	700.07
515.47	712.57
515.925	694.17
516.38	707.47
516.835	699.57
517.29	696.77
517.745	699.87
518.2	691.37
518.655	676.77
519.109	655.17
519.564	669.07
520.019	647.37
520.474	638.97
520.928	633.97
521.383	639.57
521.838	630.47
522.292	629.17
522.747	635.87
523.201	626.97
523.656	624.77
524.11	614.27
524.565	611.17
525.019	609.97
525.474	615.27
525.928	615.97
526.382	616.17
526.837	608.97
527.291	606.67
527.745	601.17
528.2	607.17
528.654	599.07
529.108	608.27
529.562	598.77
530.016	606.67
530.47	597.17
530.925	597.57
531.379	605.17
531.833	610.97
532.287	608.87
532.741	605.77
533.195	603.97
533.649	615.27
534.103	630.27
534.556	605.97
535.01	614.47
535.464	606.57
535.918	615.77
536.372	619.97
536.826	616.77
537.279	603.77
537.733	617.67
538.187	610.77
538.64	609.87
539.094	613.47
539.548	620.57
540.001	620.37
540.455	615.47
540.908	627.57
541.362	629.27
541.815	640.97
542.269	642.17
542.722	657.07
543.175	658.07
543.629	656.07
544.082	676.07
544.536	673.87
544.989	674.37
545.442	676.87
545.895	680.07
546.349	678.17
546.802	678.97
547.255	683.97
547.708	693.57
548.161	693.07
548.614	697.77
549.067	704.77
549.52	704.47
549.973	685.77
550.426	691.67
550.879	676.47
551.332	680.17
551.785	684.27
552.238	678.87
552.691	691.57
553.144	700.47
553.596	714.17
554.049	719.07
554.502	742.97
554.955	768.97
555.407	768.47
555.86	750.57
556.313	744.57
556.765	729.27
557.218	737.77
557.67	732.17
558.123	724.07
558.576	724.87
559.028	734.37
559.48	736.87
559.933	741.47
560.385	704.97
560.838	676.77
561.29	658.27
561.742	653.57
562.195	638.37
562.647	629.87
563.099	649.47
563.551	640.57
564.004	651.97
564.456	631.87
564.908	627.67
565.36	611.37
565.812	597.57
566.264	590.57
566.716	576.77
567.168	579.77
567.62	583.87
568.072	567.47
568.524	566.37
568.976	563.27
569.428	562.67
569.88	553.47
570.332	556.27
570.784	561.77
571.235	559.27
571.687	571.67
572.139	574.97
572.59	579.27
573.042	574.17
573.494	573.67
573.945	568.67
574.397	552.47
574.849	564.27
575.3	557.47
575.752	554.37
576.203	554.17
576.655	546.57
577.106	541.57
577.557	538.17
578.009	547.97
578.46	531.57
578.912	524.17
579.363	532.07
579.814	525.07
580.265	527.07
580.717	531.57
581.168	526.87
581.619	535.67
582.07	543.97
582.521	541.17
582.972	531.17
583.423	530.97
583.875	534.57
584.326	531.87
584.777	552.07
585.227	563.17
585.678	574.87
586.129	580.97
586.58	603.77
587.031	614.77
587.482	638.27
587.933	661.37
588.384	646.47
588.834	608.27
589.285	607.67
589.736	611.37
590.186	616.37
590.637	607.37
591.088	581.87
591.538	580.27
591.989	567.67
592.439	573.07
592.89	566.27
593.34	554.97
593.791	549.47
594.241	546.97
594.692	543.27
595.142	549.47
595.593	545.47
596.043	539.77
596.493	542.27
596.943	555.77
597.394	554.87
597.844	562.77
598.294	571.77
598.744	582.27
599.195	600.37
599.645	636.97
600.095	666.07
600.545	696.77
600.995	746.27
601.445	782.27
601.895	839.47
602.345	880.17
602.795	869.57
603.245	830.07
603.695	784.07
604.145	745.57
604.594	715.97
605.044	667.67
605.494	613.77
605.944	576.57
606.393	568.17
606.843	554.77
607.293	565.27
607.743	550.67
608.192	563.27
608.642	555.97
609.091	560.87
609.541	577.07
609.99	571.27
610.44	571.67
610.889	546.87
611.339	525.87
611.788	519.97
612.238	513.87
612.687	533.07
613.136	520.77
613.586	534.47
614.035	528.47
614.484	528.27
614.933	541.17
615.383	528.57
615.832	532.47
616.281	527.77
616.73	505.17
617.179	496.77
617.628	493.67
618.077	474.57
618.526	471.37
618.975	462.17
619.424	460.97
619.873	453.37
620.322	468.27
620.771	448.77
621.22	449.77
621.669	442.17
622.118	435.17
622.567	434.27
623.015	419.47
623.464	426.57
623.913	423.87
624.361	411.17
624.81	409.27
625.259	420.57
625.707	425.87
626.156	424.97
626.604	425.47
627.053	423.37
627.501	418.07
627.95	425.87
628.398	429.37
628.847	424.07
629.295	423.47
629.744	435.47
630.192	414.07
630.64	415.77
631.089	400.07
631.537	402.87
631.985	393.87
632.433	401.67
632.881	388.27
633.33	393.47
633.778	380.27
634.226	384.67
634.674	389.27
635.122	391.07
635.57	402.77
636.018	405.57
636.466	408.37
636.914	406.67
637.362	424.77
637.81	425.37
638.258	419.67
638.705	424.57
639.153	436.37
639.601	450.37
640.049	458.87
640.497	487.67
640.944	512.57
641.392	466.17
641.84	453.87
642.287	431.37
642.735	412.87
643.182	409.47
643.63	410.67
644.078	406.07
644.525	423.77
644.973	424.77
645.42	427.47
645.867	440.77
646.315	463.47
646.762	466.87
647.21	494.37
647.657	494.97
648.104	527.07
648.551	531.67
648.999	578.47
649.446	631.77
649.893	681.57
650.34	773.57
650.787	918.27
651.234	1124.17
651.682	1422.37
652.129	1921.97
652.576	2704.87
653.023	3960.57
653.47	5485.07
653.917	6933.87
654.363	8143.77
654.81	9211.37
655.257	8745.47
655.704	5794.97
656.151	3422.17
656.598	2245.67
657.044	1612.37
657.491	1245.67
657.938	1006.37
658.385	841.37
658.831	740.67
659.278	666.97
659.724	596.47
660.171	539.87
660.618	501.07
661.064	480.67
661.511	448.37
661.957	445.47
662.404	437.67
662.85	445.57
663.296	428.77
663.743	398.07
664.189	377.27
664.635	379.47
665.082	365.07
665.528	376.27
665.974	364.87
666.42	355.97
666.867	355.37
667.313	336.07
667.759	324.17
668.205	325.57
668.651	328.57
669.097	315.67
669.543	318.97
669.989	311.97
670.435	319.47
670.881	315.27
671.327	318.27
671.773	336.37
672.219	352.17
672.665	391.97
673.11	413.67
673.556	449.07
674.002	492.97
674.448	483.27
674.893	401.27
675.339	350.87
675.785	323.07
676.23	307.77
676.676	288.87
677.122	274.97
677.567	266.87
678.013	264.47
678.458	259.07
678.904	264.07
679.349	246.77
679.794	249.47
680.24	251.47
680.685	248.67
681.131	247.37
681.576	253.37
682.021	248.67
682.466	246.47
682.912	242.87
683.357	252.77
683.802	269.87
684.247	291.67
684.692	319.87
685.137	347.27
685.583	388.77
686.028	413.57
686.473	381.27
686.918	317.37
687.363	299.87
687.807	285.57
688.252	259.57
688.697	250.87
689.142	231.67
689.587	235.47
690.032	225.87
690.477	248.47
690.921	246.17
691.366	265.67
691.811	282.77
692.255	300.47
692.7	321.77
693.145	353.97
693.589	477.47
694.034	783.97
694.478	1089.97
694.923	1283.67
695.367	1719.47
695.812	893.67
696.256	359.67
696.701	272.47
697.145	242.77
697.59	231.87
698.034	223.67
698.478	240.77
698.922	231.37
699.367	227.97
699.811	243.47
700.255	253.57
700.699	266.07
701.143	292.57
701.588	333.27
702.032	371.27
702.476	368.17
702.92	347.87
703.364	349.17
703.808	438.17
704.252	707.47
704.696	1022.77
705.14	1225.17
705.584	1615.87
706.027	783.97
706.471	373.17
706.915	283.97
707.359	256.57
707.803	226.07
708.246	218.27
708.69	218.57
709.134	225.87
709.577	224.47
710.021	223.37
710.465	218.67
710.908	208.87
711.352	210.97
711.795	216.57
712.239	246.17
712.682	265.47
713.126	292.17
713.569	322.47
714.012	249.77
714.456	221.27
714.899	208.17
715.342	199.67
715.786	186.57
716.229	177.17
716.672	183.67
717.115	175.67
717.558	182.07
718.002	174.67
718.445	181.77
718.888	199.67
719.331	201.47
719.774	207.97
720.217	216.27
720.66	198.17
721.103	191.47
721.546	179.07
721.989	167.07
722.432	158.77
722.874	165.87
723.317	162.87
723.76	160.67
724.203	180.27
724.645	217.77
725.088	301.07
725.531	404.27
725.974	472.17
726.416	391.87
726.859	217.27
727.301	166.47
727.744	168.77
728.187	162.87
728.629	169.77
729.071	171.77
729.514	183.57
729.956	187.67
730.399	203.87
730.841	205.17
731.283	194.17
731.726	194.27
732.168	190.07
732.61	189.27
733.053	200.37
733.495	213.67
733.937	242.47
734.379	274.67
734.821	312.87
735.263	375.57
735.705	577.17
736.148	1088.17
736.59	1839.37
737.032	2308.77
737.474	1904.57
737.916	587.37
738.357	312.97
738.799	233.67
739.241	211.37
739.683	199.27
740.125	207.07
740.567	217.17
741.008	226.47
741.45	233.77
741.892	228.37
742.334	248.57
742.775	265.47
743.217	259.57
743.658	193.87
744.1	184.57
744.542	185.47
744.983	233.77
745.425	263.77
745.866	254.57
746.307	202.27
746.749	198.97
747.19	227.27
747.632	310.87
748.073	591.57
748.514	1276.07
748.956	2063.47
749.397	2609.57
749.838	2152.67
750.279	2238.17
750.72	1134.87
751.162	397.07
751.603	229.47
752.044	181.37
752.485	152.07
752.926	150.47
753.367	145.37
753.808	135.27
754.249	139.47
754.69	139.27
755.131	124.87
755.572	125.87
756.013	122.47
756.453	130.67
756.894	132.37
757.335	131.57
757.776	135.57
758.216	132.37
758.657	136.37
759.098	138.07
759.538	155.27
759.979	185.67
760.42	261.57
760.86	480.17
761.301	1247.97
761.741	3157.67
762.182	4997.87
762.622	3529.87
763.063	978.87
763.503	387.67
763.943	237.57
764.384	189.27
764.824	179.17
765.264	167.87
765.705	144.07
766.145	118.97
766.585	121.27
767.025	117.47
767.465	115.27
767.906	123.57
768.346	137.37
768.786	146.47
769.226	150.17
769.666	207.77
770.106	409.17
770.546	1071.67
770.986	1962.37
771.426	1815.67
771.866	587.17
772.306	230.67
772.745	143.57
773.185	107.87
773.625	120.47
774.065	98.17
774.505	113.17
774.944	144.97
775.384	262.57
775.824	458.47
776.263	451.77
776.703	209.27
777.142	110.37
777.582	93.87
778.021	86.97
778.461	83.87
778.9	89.17
779.34	88.17
779.779	80.77
780.219	79.07
780.658	74.27
781.097	75.97
781.537	77.67
781.976	74.77
782.415	68.07
782.855	63.27
783.294	69.37
783.733	72.67
784.172	71.07
784.611	66.57
785.05	76.47
785.489	79.27
785.928	78.37
786.367	88.07
786.806	79.87
787.245	79.27
787.684	85.47
788.123	105.77
788.562	94.97
789.001	82.07
789.44	81.87
789.879	75.07
790.317	87.57
790.756	90.07
791.195	83.77
791.634	103.57
792.072	137.77
792.511	249.77
792.95	679.27
793.388	1553.07
793.827	1480.57
794.265	495.67
794.704	202.47
795.142	126.87
795.581	105.77
796.019	101.17
796.458	89.37
796.896	83.87
797.334	89.27
797.773	98.77
798.211	157.87
798.649	291.97
799.087	718.07
799.526	1147.77
799.964	1450.57
800.402	1545.47
800.84	560.17
801.278	223.27
801.716	135.87
802.154	106.07
802.592	102.77
803.03	99.87
803.468	93.57
803.906	100.47
804.344	112.57
804.782	97.27
805.22	90.67
805.658	93.07
806.096	105.17
806.533	117.07
806.971	125.47
807.409	153.17
807.847	218.97
808.284	459.17
808.722	1333.37
809.16	2480.67
809.597	2284.37
810.035	4065.47
810.472	4630.47
810.91	1636.67
811.347	599.87
811.785	298.27
812.222	195.27
812.66	137.57
813.097	120.07
813.535	100.47
813.972	92.57
814.409	84.87
814.846	74.87
815.284	81.47
815.721	68.37
816.158	72.17
816.595	77.57
817.032	111.57
817.47	136.97
817.907	103.07
818.344	70.47
818.781	64.97
819.218	61.87
819.655	91.37
820.092	143.97
820.529	176.87
820.966	135.37
821.403	90.27
821.839	69.47
822.276	68.07
822.713	90.87
823.15	106.27
823.587	85.97
824.023	102.67
824.46	212.87
824.897	639.67
825.333	1023.57
825.77	439.87
826.206	163.17
826.643	102.17
827.08	73.97
827.516	57.07
827.953	51.77
828.389	63.37
828.825	48.47
829.262	45.97
829.698	43.67
830.135	49.87
830.571	37.67
831.007	36.37
831.443	45.97
831.88	36.47
832.316	42.87
832.752	42.77
833.188	41.77
833.624	44.67
834.06	45.37
834.497	51.57
834.933	47.37
835.369	57.37
835.805	52.27
836.241	56.67
836.677	53.37
837.112	64.77
837.548	71.97
837.984	90.97
838.42	140.97
838.856	343.97
839.292	1095.27
839.727	1780.97
840.163	821.27
840.599	664.57
841.034	1497.77
841.47	1685.67
841.906	594.47
842.341	234.87
842.777	147.87
843.212	142.57
843.648	144.37
844.083	80.17
844.519	61.07
844.954	51.77
845.39	36.47
845.825	39.57
846.261	36.57
846.696	35.07
847.131	34.77
847.566	33.77
848.002	39.17
848.437	35.77
848.872	44.67
849.307	38.57
849.742	63.97
850.177	121.77
850.613	397.07
851.048	661.17
851.483	286.27
851.918	113.47
852.353	65.07
852.788	31.37
853.223	36.87
853.657	38.67
854.092	32.27
854.527	31.27
854.962	33.17
855.397	37.27
855.832	36.97
856.266	28.37
856.701	26.77
857.136	24.87
857.57	23.27
858.005	34.07
858.44	44.57
858.874	30.07
859.309	39.67
859.743	30.17
860.178	34.17
860.612	27.07
861.047	36.47
861.481	47.77
861.915	55.67
862.35	32.87
862.784	18.87
863.218	24.67
863.653	22.17
864.087	34.17
864.521	40.77
864.955	48.17
865.39	108.37
865.824	125.87
866.258	80.37
866.692	128.37
867.126	148.87
867.56	86.67
867.994	44.27
868.428	23.67
868.862	31.57
869.296	46.97
869.73	50.87
870.164	41.57
870.598	36.67
871.031	31.07
871.465	19.57
871.899	17.77
872.333	12.47
872.766	18.97
873.2	13.57
873.634	22.87
874.067	18.27
874.501	15.37
874.935	23.07
875.368	20.97
875.802	17.87
876.235	17.37
876.669	16.07
877.102	16.17
877.535	20.37
877.969	12.07
878.402	13.37
878.836	10.17
879.269	13.77
879.702	16.77
880.135	17.17
880.569	8.57
881.002	18.57
881.435	17.37
881.868	16.57
882.301	15.17
882.734	7.97
883.167	18.87
883.601	6.87
884.034	12.77
884.467	4.77
884.899	6.77
885.332	11.07
885.765	8.87
886.198	16.57
886.631	9.57
887.064	7.67
887.497	10.87
887.929	11.27
888.362	10.57
888.795	7.57
889.228	10.27
889.66	12.97
890.093	10.97
890.526	7.87
890.958	8.47
891.391	11.77
891.823	11.17
892.256	6.47
892.688	4.57
893.121	9.27
893.553	10.37
893.985	12.57
894.418	7.07
894.85	9.57
895.282	13.77
895.715	14.57
896.147	10.97
896.579	10.87
897.011	10.27
897.444	9.07
897.876	7.77
898.308	6.57
898.74	10.57
899.172	6.37
899.604	16.37
900.036	18.07
900.468	6.97
900.9	4.57
901.332	15.17
901.764	10.67
902.196	11.57
902.628	11.67
903.06	8.97
903.491	20.37
903.923	15.67
904.355	14.27
904.787	17.37
905.218	12.57
905.65	9.77
906.082	2.47
906.513	8.37
906.945	5.77
907.376	7.77
907.808	10.17
908.239	11.17
908.671	14.17
909.102	15.97
909.534	18.67
909.965	36.47
910.397	70.07
910.828	232.37
911.259	378.47
911.691	167.27
912.122	76.07
912.553	39.77
912.984	22.97
913.415	22.37
913.847	16.87
914.278	9.77
914.709	8.77
915.14	10.07
915.571	14.27
916.002	10.87
916.433	17.87
916.864	12.47
917.295	9.07
917.726	8.47
918.157	8.27
918.587	17.87
919.018	13.07
919.449	13.87
919.88	17.97
920.311	22.87
920.741	33.27
921.172	121.57
921.603	113.47
922.033	41.57
922.464	35.17
922.895	21.67
923.325	13.07
923.756	11.87
924.186	7.27
924.617	23.67
925.047	15.77
925.478	17.27
925.908	12.87
926.338	13.07
926.769	9.57
927.199	10.87
927.629	9.97
928.06	8.77
928.49	11.47
928.92	12.57
929.35	9.97
929.78	11.77
930.21	8.87
930.641	4.37
931.071	5.57
931.501	3.57
931.931	5.17
932.361	6.07
932.791	0.67
933.221	4.07
933.651	1.37
934.08	14.57
934.51	28.57
934.94	5.27
935.37	6.97
935.8	6.87
936.229	8.07
936.659	3.87
937.089	1.67
937.519	11.67
937.948	15.97
938.378	12.57
938.807	5.57
939.237	1.97
939.666	1.27
940.096	-5.33
940.525	-2.73
940.955	1.17
941.384	7.27
941.814	-8.23
942.243	-5.33
942.672	0.87
943.102	-4.63
943.531	-4.53
943.96	2.67
944.39	3.27
944.819	0.97
945.248	1.27
945.677	-3.73
946.106	2.27
946.535	5.47
946.964	5.87
947.393	1.87
947.822	3.47
948.251	-5.63
948.68	5.47
949.109	0.07
949.538	3.87
949.967	-3.63
950.396	2.07
950.825	1.77
951.254	-3.43
951.682	-6.03
952.111	1.97
952.54	6.07
952.969	-11.83
953.397	-5.53
953.826	-2.83
954.254	-8.13
954.683	1.67
955.112	-9.33
955.54	-0.13
955.969	4.67
956.397	-1.03
956.826	-6.33
957.254	6.37
957.682	0.07
958.111	6.47
958.539	0.17
958.967	2.07
959.396	-0.43
959.824	-5.63
960.252	-4.43
960.68	-6.43
961.109	-2.43
961.537	-1.13
961.965	1.37
962.393	-2.33
962.821	-7.23
963.249	-5.83
963.677	4.07
964.105	3.97
964.533	31.97
964.961	34.57
965.389	12.17
965.817	4.47
966.245	-3.53
966.672	-3.73
967.1	-6.73
967.528	-1.03
967.956	-3.53
968.383	-3.53
968.811	-0.23
969.239	-2.83
969.666	-9.13
970.094	0.47
970.522	2.77
970.949	-3.03
971.377	-3.03
971.804	-3.63
972.232	-1.93
972.659	-8.13
973.087	-9.23
973.514	-1.53
973.941	-5.53
974.369	2.17
974.796	0.17
975.223	-2.03
975.651	-2.73
976.078	-2.43
976.505	-1.53
976.932	-0.13
977.359	9.07
977.786	10.07
978.214	-0.63
978.641	-1.33
979.068	-3.83
979.495	-2.43
979.922	-3.73
980.349	-2.73
980.776	3.27
981.202	-2.93
981.629	8.47
982.056	2.67
982.483	-8.33
982.91	2.47
983.337	-1.43
983.763	1.97
984.19	-6.93
984.617	-2.23
985.043	-6.13
985.47	1.37
985.897	-3.43
986.323	-9.83
986.75	0.17
987.176	0.17
987.603	-4.23
988.029	0.07
988.456	-4.93
988.882	0.77
989.308	-4.83
989.735	-0.63
990.161	3.77
990.587	-4.73
991.014	-4.93
991.44	1.97
991.866	-6.93
992.292	-5.03
992.719	-4.03
993.145	4.47
993.571	-5.63
993.997	-1.83
994.423	-0.03
994.849	-9.23
995.275	1.77
995.701	4.97
996.127	-6.13
996.553	1.47
996.979	-1.03
997.405	-3.93
997.83	-2.13
998.256	-9.33
998.682	-5.13
999.108	-8.83
999.534	-0.73
999.959	1.57
1000.385	-5.53
1000.811	-6.43
1001.236	-12.33
1001.662	-5.53
1002.087	-5.13
1002.513	-3.73
1002.938	4.77
1003.364	-1.43
1003.789	-1.33
1004.215	7.47
1004.64	-6.13
1005.066	3.17
1005.491	-2.23
1005.916	0.17
1006.342	-4.33
1006.767	-8.23
1007.192	8.77
1007.617	-5.23
1008.042	-4.23
1008.468	-7.43
1008.893	-4.43
1009.318	-5.23
1009.743	-1.13
1010.168	6.57
1010.593	-0.63
1011.018	-9.63
1011.443	-4.23
1011.868	0.47
1012.293	-3.93
1012.718	-5.23
1013.143	0.57
1013.567	-0.73
1013.992	0.47
1014.417	-14.13
1014.842	-1.33
1015.267	-8.03
1015.691	-5.93
1016.116	4.37
1016.541	1.27
1016.965	5.97
1017.39	2.27
1017.814	-1.43
1018.239	-3.53
1018.663	-3.73
1019.088	-5.33
1019.512	-4.73
1019.937	-5.83
1020.361	-1.73
1020.785	-9.83
1021.21	-4.93
1021.634	-0.33
1022.058	-2.53
1022.483	2.07
1022.907	-1.93
1023.331	-5.83
1023.755	-2.03
1024.179	-0.03
1024.604	-7.53
1025.028	-2.13
1025.452	-4.53
1025.876	-1.23
1026.3	0.27
1026.724	-11.63
1027.148	-6.43
1027.572	-10.93
1027.996	-4.93
1028.42	-5.73
1028.843	-8.13
1029.267	-4.23
1029.691	0.37
1030.115	-8.53
1030.539	-9.13
1030.962	-4.73
1031.386	-10.83
1031.81	-6.73
1032.233	-8.33
1032.657	-0.03
1033.08	-5.53
1033.504	-5.43
1033.927	-2.73
1034.351	-0.13
1034.774	-2.03
1035.198	-0.13
1035.621	-7.53
1036.045	-0.73
1036.468	2.17
1036.891	-7.43
1037.315	-12.13
1037.738	-12.13
1038.161	-2.83
1038.584	-10.23
1039.008	-13.13
1039.431	-5.93
1039.854	-0.43
1040.277	-4.43
1040.7	-11.63
1041.123	-1.93
1041.546	-6.53
1041.969	-4.53
1042.392	-5.33
1042.815	-6.93
1043.238	-2.13
1043.661	2.17
1044.084	-10.23
1044.507	-8.43
1044.93	-5.53
1045.352	0.57
1045.775	-6.83
1046.198	-1.43
1046.621	-3.43
1047.043	2.37
1047.466	2.47
1047.889	-4.73
1048.311	-10.23
1048.734	-0.13
1049.156	-8.03
1049.579	-1.23
1050.001	2.37
1050.424	-7.33
1050.846	-8.73
1051.269	-5.33
1051.691	-0.03
1052.113	-8.23
1052.536	-0.63
1052.958	-4.33
1053.38	-3.63
1053.802	-9.13
1054.225	3.87
1054.647	-6.73
1055.069	-2.73
1055.491	-1.23
1055.913	-6.83
1056.335	-3.93
1056.757	1.77
1057.179	-5.33
1057.601	-6.63
1058.023	-3.13
1058.445	-3.73
1058.867	-6.33
1059.289	-3.33
1059.711	-10.43
1060.133	0.07
1060.555	-4.83
1060.976	-8.73
1061.398	-0.33
1061.82	-2.93
1062.241	-3.63
1062.663	-5.33
1063.085	-4.33
1063.506	-0.53
1063.928	-0.23
1064.35	-5.63
1064.771	-7.73
1065.193	-2.43
1065.614	-8.03
1066.035	1.47
1066.457	-2.63
1066.878	-2.43
1067.3	-2.73
1067.721	-0.53
1068.142	-5.63
1068.564	-1.73
1068.985	-6.33
1069.406	-11.03
1069.827	0.57
1070.248	-1.53
1070.67	-9.03
1071.091	-0.63
1071.512	-1.13
1071.933	-6.93
1072.354	-4.13
1072.775	-6.03
1073.196	-4.93
1073.617	0.47
1074.038	-8.63
1074.459	-2.83
1074.88	-13.53
1075.3	-6.33
1075.721	-8.03
1076.142	-2.13
1076.563	0.27
1076.983	-10.63
1077.404	-5.63
1077.825	-6.73
1078.246	6.17
1078.666	-8.83
1079.087	-5.53
1079.507	-2.13
1079.928	1.67
1080.348	-2.53
1080.769	-3.83
1081.189	4.77
1081.61	-4.23
1082.03	-9.93
1082.451	-5.63
1082.871	-0.03
1083.291	-6.43
1083.711	-6.73
1084.132	-7.83
1084.552	-6.13
1084.972	-3.03
1085.392	-8.13
1085.813	-10.73
1086.233	-9.63
1086.653	2.57
1087.073	0.57
1087.493	-8.83
1087.913	-4.83
1088.333	-3.93
1088.753	0.97
1089.173	-1.73
1089.593	-6.23
1090.013	4.17
1090.433	-1.33
1090.852	-2.33
1091.272	0.97
1091.692	0.47
1092.112	-8.73
1092.531	-10.43
1092.951	-11.13
1093.371	-7.23
1093.79	2.57
1094.21	-4.63
1094.63	-9.83
1095.049	-8.03
1095.469	-0.23
1095.888	-1.83
1096.308	2.47
1096.727	4.57
1097.146	-9.93
1097.566	-5.03
1097.985	-5.73
1098.405	-0.53
1098.824	-8.23
1099.243	-7.73
1099.662	-6.73
1100.082	-6.33
1100.501	-5.33
1100.92	-6.13
1101.339	-8.93
1101.758	-9.53
