Data from 20171114-ORNL-Ar_H_NY_Subt18_08-03-36-675.txt Node
Date: Tue Nov 14 08:03:36 EST 2017
User: Ender
Spectrometer: HR+D1039
Trigger mode: 0
Integration Time (sec): 2.730000E-2
Scans to average: 10
Electric dark correction enabled: true
Nonlinearity correction enabled: false
Boxcar width: 0
XAxis mode: Wavelengths
Number of Pixels in Spectrum: 2048
>>>>>Begin Spectral Data<<<<<
187.836	0.41
188.309	0.41
188.782	0.41
189.255	0.61
189.728	-2.49
190.201	4.51
190.674	1.81
191.147	5.11
191.619	-6.49
192.092	4.51
192.565	1.81
193.038	0.21
193.511	0.91
193.984	1.41
194.456	-2.79
194.929	-2.69
195.402	-1.59
195.874	-5.29
196.347	-2.59
196.82	-5.39
197.292	6.21
197.765	0.51
198.237	-2.99
198.71	1.71
199.182	-0.59
199.655	1.71
200.127	-1.49
200.6	-1.29
201.072	-2.79
201.544	-1.49
202.017	-1.49
202.489	2.81
202.961	-5.79
203.433	1.11
203.906	-9.79
204.378	-4.69
204.85	-1.99
205.322	-9.09
205.794	-1.79
206.266	-0.69
206.739	-2.29
207.211	3.61
207.683	-4.69
208.155	-6.69
208.627	-5.79
209.099	-2.69
209.57	-8.79
210.042	-4.89
210.514	-3.99
210.986	-0.69
211.458	-11.29
211.93	-3.39
212.402	4.01
212.873	-5.89
213.345	-3.99
213.817	-12.89
214.288	-1.89
214.76	-10.49
215.232	-3.49
215.703	-6.69
216.175	-5.29
216.646	-3.29
217.118	-6.89
217.589	-8.59
218.061	-5.59
218.532	-2.19
219.004	1.31
219.475	0.41
219.946	1.01
220.418	-5.79
220.889	5.01
221.36	1.91
221.832	2.11
222.303	-6.99
222.774	-0.59
223.245	-6.09
223.717	-0.19
224.188	-12.99
224.659	-6.09
225.13	-2.89
225.601	-2.39
226.072	6.81
226.543	1.11
227.014	8.41
227.485	-7.39
227.956	-4.49
228.427	-4.19
228.898	0.61
229.369	3.91
229.839	2.41
230.31	-8.19
230.781	5.11
231.252	-6.69
231.722	-6.49
232.193	-7.39
232.664	-5.79
233.135	1.21
233.605	-4.89
234.076	-7.29
234.546	0.01
235.017	9.71
235.487	-0.29
235.958	-1.69
236.428	-9.99
236.899	-3.39
237.369	4.11
237.84	-6.79
238.31	0.41
238.78	2.01
239.251	-6.89
239.721	-5.49
240.191	-7.19
240.662	-4.99
241.132	-1.69
241.602	-5.09
242.072	-3.69
242.542	2.71
243.013	-4.09
243.483	-2.49
243.953	3.31
244.423	-4.49
244.893	-3.19
245.363	4.41
245.833	1.01
246.303	-6.59
246.773	2.71
247.243	0.91
247.712	-6.29
248.182	8.81
248.652	4.51
249.122	-6.99
249.592	-3.99
250.061	4.71
250.531	3.61
251.001	-4.69
251.471	4.81
251.94	0.51
252.41	-1.29
252.879	-7.49
253.349	10.21
253.818	3.91
254.288	0.31
254.757	-0.99
255.227	-6.39
255.696	-7.59
256.166	2.51
256.635	-1.69
257.105	2.01
257.574	0.21
258.043	2.51
258.513	-1.69
258.982	1.71
259.451	-5.09
259.92	1.71
260.389	1.31
260.859	10.31
261.328	1.11
261.797	-0.99
262.266	-10.89
262.735	7.01
263.204	-4.89
263.673	3.91
264.142	2.41
264.611	-7.79
265.08	-2.09
265.549	-4.79
266.018	2.81
266.487	-4.99
266.955	0.21
267.424	-11.09
267.893	0.41
268.362	-1.29
268.83	3.81
269.299	1.61
269.768	0.41
270.236	2.61
270.705	-6.79
271.174	2.41
271.642	2.21
272.111	-1.39
272.579	-0.29
273.048	0.01
273.516	-3.59
273.985	6.61
274.453	7.01
274.922	4.91
275.39	-0.99
275.858	-7.19
276.327	-2.39
276.795	5.81
277.263	-2.99
277.731	5.21
278.2	-2.09
278.668	-1.49
279.136	-0.09
279.604	-0.39
280.072	-1.79
280.54	5.51
281.008	1.71
281.477	0.41
281.945	2.41
282.413	5.81
282.881	5.31
283.348	-2.19
283.816	7.31
284.284	9.51
284.752	14.31
285.22	3.71
285.688	6.71
286.156	0.51
286.623	9.11
287.091	2.61
287.559	4.81
288.026	0.51
288.494	1.71
288.962	-2.39
289.429	-3.29
289.897	8.61
290.364	3.61
290.832	9.71
291.3	5.71
291.767	-0.49
292.234	11.81
292.702	-1.39
293.169	8.41
293.637	10.11
294.104	10.81
294.571	-1.09
295.039	0.21
295.506	3.51
295.973	4.71
296.44	0.41
296.908	7.21
297.375	5.31
297.842	7.21
298.309	2.01
298.776	-0.59
299.243	8.41
299.71	-0.79
300.177	12.41
300.644	6.71
301.111	5.41
301.578	8.21
302.045	4.41
302.512	10.51
302.979	16.51
303.446	10.81
303.913	2.21
304.379	6.51
304.846	11.01
305.313	4.41
305.78	7.31
306.246	9.81
306.713	13.01
307.18	13.41
307.646	15.21
308.113	17.91
308.579	8.21
309.046	7.71
309.512	20.41
309.979	8.71
310.445	19.41
310.912	11.81
311.378	17.41
311.845	16.31
312.311	12.41
312.777	14.31
313.244	10.01
313.71	21.81
314.176	8.81
314.642	9.01
315.109	13.81
315.575	10.61
316.041	13.61
316.507	13.21
316.973	20.11
317.439	17.41
317.905	12.71
318.371	13.91
318.837	14.81
319.303	10.31
319.769	12.81
320.235	15.81
320.701	18.01
321.167	18.01
321.633	10.71
322.099	14.81
322.564	24.21
323.03	17.01
323.496	15.71
323.962	21.61
324.427	14.11
324.893	21.61
325.359	20.81
325.824	12.61
326.29	14.01
326.755	21.21
327.221	18.41
327.686	8.91
328.152	18.51
328.617	19.41
329.083	27.61
329.548	29.01
330.014	26.41
330.479	22.61
330.944	20.01
331.41	27.81
331.875	28.31
332.34	23.91
332.805	20.01
333.271	19.91
333.736	15.81
334.201	27.31
334.666	23.11
335.131	22.61
335.596	24.21
336.061	23.91
336.526	16.11
336.991	21.61
337.456	34.51
337.921	26.91
338.386	22.41
338.851	31.81
339.316	25.01
339.781	28.31
340.246	30.71
340.711	27.11
341.175	22.71
341.64	18.81
342.105	25.01
342.569	27.31
343.034	26.71
343.499	26.91
343.963	25.01
344.428	35.81
344.893	38.51
345.357	31.11
345.822	34.51
346.286	34.11
346.751	38.01
347.215	41.01
347.679	36.41
348.144	53.41
348.608	42.61
349.073	40.31
349.537	45.31
350.001	42.71
350.465	52.31
350.93	45.31
351.394	49.91
351.858	35.61
352.322	44.21
352.786	49.91
353.25	52.21
353.715	56.61
354.179	50.61
354.643	61.01
355.107	62.31
355.571	62.11
356.035	51.01
356.498	60.71
356.962	57.51
357.426	66.11
357.89	55.51
358.354	50.81
358.818	50.81
359.281	49.01
359.745	42.21
360.209	43.21
360.673	40.81
361.136	44.01
361.6	61.81
362.064	53.91
362.527	48.31
362.991	60.51
363.454	49.31
363.918	43.71
364.381	42.41
364.845	46.21
365.308	53.41
365.772	59.71
366.235	52.91
366.698	47.71
367.162	45.31
367.625	51.81
368.088	56.71
368.552	54.61
369.015	51.61
369.478	59.61
369.941	64.41
370.404	53.31
370.867	64.31
371.331	57.81
371.794	60.41
372.257	56.01
372.72	66.11
373.183	63.21
373.646	60.21
374.109	58.61
374.572	60.31
375.035	60.01
375.497	64.11
375.96	67.01
376.423	66.31
376.886	71.91
377.349	64.61
377.811	64.01
378.274	62.61
378.737	69.61
379.199	72.41
379.662	63.81
380.125	70.81
380.587	64.51
381.05	61.51
381.512	73.31
381.975	76.71
382.437	78.31
382.9	81.91
383.362	77.91
383.825	86.61
384.287	82.51
384.75	75.21
385.212	84.61
385.674	92.01
386.136	87.31
386.599	83.41
387.061	77.91
387.523	82.11
387.985	80.81
388.447	90.11
388.91	78.71
389.372	90.51
389.834	87.01
390.296	75.61
390.758	82.71
391.22	85.01
391.682	95.51
392.144	87.11
392.606	92.41
393.068	84.31
393.529	102.81
393.991	99.41
394.453	87.01
394.915	86.21
395.377	86.91
395.838	84.81
396.3	89.11
396.762	103.41
397.224	96.41
397.685	87.31
398.147	100.21
398.608	88.71
399.07	94.81
399.531	93.81
399.993	92.81
400.454	103.41
400.916	103.71
401.377	101.31
401.839	101.91
402.3	103.61
402.762	106.01
403.223	124.81
403.684	121.41
404.145	116.81
404.607	106.61
405.068	107.11
405.529	108.11
405.99	111.41
406.451	105.11
406.913	118.11
407.374	113.11
407.835	104.31
408.296	111.81
408.757	109.31
409.218	118.41
409.679	116.81
410.14	118.61
410.601	122.61
411.062	125.61
411.522	125.21
411.983	120.51
412.444	118.81
412.905	128.81
413.366	133.51
413.826	149.71
414.287	159.11
414.748	201.71
415.208	189.91
415.669	163.91
416.13	160.51
416.59	164.21
417.051	160.91
417.511	175.31
417.972	193.61
418.432	200.21
418.893	236.61
419.353	205.71
419.814	161.91
420.274	142.51
420.734	138.21
421.195	143.71
421.655	143.31
422.115	136.21
422.576	139.31
423.036	146.41
423.496	155.71
423.956	158.31
424.416	168.71
424.876	192.51
425.336	185.81
425.797	188.91
426.257	175.51
426.717	163.91
427.177	154.71
427.637	142.01
428.097	145.11
428.556	153.31
429.016	161.81
429.476	149.31
429.936	152.61
430.396	157.41
430.856	168.01
431.315	174.71
431.775	190.61
432.235	218.61
432.694	197.21
433.154	199.61
433.614	206.91
434.073	185.61
434.533	159.31
434.993	153.31
435.452	167.61
435.912	161.71
436.371	164.91
436.83	168.11
437.29	167.71
437.749	154.21
438.209	154.81
438.668	179.21
439.127	185.51
439.587	171.11
440.046	164.71
440.505	169.81
440.964	182.91
441.424	200.61
441.883	196.21
442.342	185.01
442.801	164.11
443.26	168.91
443.719	171.51
444.178	164.51
444.637	161.41
445.096	167.21
445.555	164.41
446.014	165.61
446.473	171.31
446.932	169.41
447.391	169.71
447.849	171.81
448.308	168.61
448.767	164.41
449.226	180.61
449.685	178.11
450.143	184.51
450.602	179.31
451.061	167.51
451.519	171.51
451.978	167.31
452.436	168.91
452.895	175.51
453.353	177.21
453.812	176.11
454.27	176.51
454.729	174.41
455.187	169.21
455.646	169.91
456.104	177.31
456.562	188.21
457.021	187.41
457.479	188.91
457.937	187.31
458.395	192.21
458.854	176.31
459.312	181.21
459.77	187.91
460.228	176.31
460.686	181.11
461.144	180.21
461.602	181.51
462.06	183.11
462.518	185.81
462.976	187.61
463.434	180.41
463.892	183.71
464.35	189.41
464.808	202.41
465.266	189.51
465.724	196.51
466.181	190.31
466.639	193.31
467.097	205.71
467.555	206.41
468.012	216.31
468.47	215.91
468.928	225.41
469.385	231.91
469.843	232.61
470.3	233.11
470.758	241.21
471.215	252.41
471.673	254.11
472.13	265.11
472.588	264.11
473.045	252.21
473.503	253.41
473.96	259.11
474.417	260.61
474.875	280.31
475.332	290.11
475.789	293.11
476.246	289.91
476.704	293.81
477.161	299.21
477.618	295.01
478.075	306.71
478.532	327.91
478.989	341.91
479.446	372.11
479.903	347.01
480.36	323.61
480.817	320.51
481.274	334.31
481.731	329.21
482.188	334.81
482.645	344.31
483.102	358.81
483.558	379.91
484.015	383.31
484.472	382.31
484.929	379.01
485.385	381.71
485.842	390.51
486.299	399.01
486.755	428.81
487.212	399.31
487.668	372.91
488.125	371.71
488.582	369.71
489.038	361.41
489.494	356.41
489.951	354.31
490.407	363.61
490.864	359.91
491.32	373.01
491.776	378.31
492.233	388.21
492.689	363.91
493.145	372.11
493.602	375.41
494.058	380.71
494.514	381.31
494.97	382.21
495.426	392.91
495.882	382.71
496.338	379.91
496.794	388.51
497.251	380.11
497.707	395.41
498.163	393.31
498.618	397.61
499.074	396.41
499.53	408.31
499.986	408.81
500.442	402.21
500.898	394.91
501.354	396.61
501.809	402.01
502.265	390.51
502.721	399.71
503.177	408.21
503.632	426.51
504.088	413.51
504.543	421.21
504.999	435.11
505.455	414.51
505.91	413.41
506.366	412.31
506.821	413.21
507.277	407.21
507.732	404.31
508.187	411.71
508.643	413.51
509.098	406.51
509.553	432.61
510.009	427.01
510.464	420.01
510.919	439.61
511.375	435.81
511.83	450.51
512.285	449.81
512.74	468.81
513.195	482.21
513.65	482.31
514.105	479.21
514.56	482.01
515.015	495.51
515.47	504.31
515.925	494.51
516.38	496.21
516.835	498.01
517.29	488.51
517.745	490.01
518.2	485.81
518.655	468.71
519.109	466.21
519.564	461.41
520.019	449.01
520.474	445.31
520.928	451.71
521.383	442.81
521.838	440.31
522.292	446.71
522.747	453.91
523.201	444.81
523.656	440.11
524.11	432.71
524.565	431.01
525.019	423.01
525.474	427.21
525.928	435.41
526.382	422.01
526.837	432.21
527.291	421.31
527.745	421.21
528.2	427.51
528.654	418.41
529.108	413.91
529.562	415.51
530.016	419.81
530.47	414.21
530.925	414.91
531.379	425.51
531.833	414.31
532.287	413.61
532.741	412.81
533.195	417.21
533.649	416.41
534.103	423.01
534.556	412.81
535.01	418.41
535.464	403.01
535.918	425.31
536.372	425.81
536.826	427.81
537.279	416.51
537.733	416.51
538.187	416.21
538.64	422.21
539.094	428.21
539.548	432.31
540.001	422.51
540.455	423.21
540.908	425.01
541.362	429.91
541.815	437.51
542.269	440.61
542.722	442.31
543.175	446.21
543.629	445.71
544.082	465.81
544.536	454.91
544.989	453.71
545.442	466.91
545.895	467.31
546.349	472.31
546.802	462.81
547.255	477.51
547.708	470.11
548.161	477.71
548.614	480.41
549.067	481.91
549.52	479.91
549.973	476.21
550.426	471.21
550.879	459.71
551.332	462.81
551.785	463.91
552.238	469.41
552.691	479.01
553.144	474.31
553.596	486.01
554.049	495.31
554.502	507.91
554.955	515.11
555.407	519.41
555.86	502.01
556.313	495.91
556.765	497.41
557.218	503.21
557.67	495.61
558.123	490.41
558.576	488.31
559.028	497.41
559.48	497.01
559.933	503.51
560.385	482.31
560.838	459.11
561.29	441.21
561.742	446.61
562.195	426.31
562.647	430.91
563.099	434.81
563.551	438.81
564.004	444.11
564.456	429.11
564.908	422.51
565.36	409.71
565.812	402.81
566.264	396.01
566.716	399.11
567.168	389.41
567.62	394.81
568.072	387.41
568.524	385.81
568.976	374.51
569.428	363.01
569.88	364.51
570.332	368.01
570.784	368.51
571.235	372.61
571.687	378.91
572.139	383.61
572.59	389.31
573.042	386.91
573.494	378.61
573.945	380.31
574.397	367.41
574.849	375.11
575.3	369.91
575.752	356.01
576.203	361.31
576.655	366.71
577.106	360.21
577.557	345.31
578.009	357.21
578.46	354.41
578.912	348.51
579.363	346.41
579.814	353.61
580.265	347.21
580.717	351.91
581.168	348.51
581.619	358.81
582.07	356.71
582.521	355.41
582.972	348.61
583.423	351.41
583.875	350.81
584.326	352.71
584.777	358.91
585.227	371.21
585.678	375.71
586.129	372.71
586.58	387.51
587.031	395.51
587.482	404.91
587.933	414.51
588.384	408.41
588.834	409.81
589.285	412.41
589.736	404.01
590.186	406.91
590.637	402.91
591.088	383.41
591.538	384.61
591.989	383.51
592.439	378.01
592.89	371.81
593.34	361.51
593.791	363.61
594.241	365.41
594.692	357.61
595.142	349.51
595.593	350.41
596.043	361.01
596.493	363.01
596.943	359.71
597.394	368.51
597.844	363.81
598.294	370.71
598.744	393.11
599.195	400.31
599.645	425.31
600.095	442.21
600.545	469.71
600.995	499.21
601.445	534.61
601.895	558.11
602.345	597.51
602.795	589.51
603.245	563.51
603.695	530.51
604.145	496.01
604.594	468.41
605.044	435.11
605.494	400.31
605.944	376.41
606.393	364.11
606.843	364.01
607.293	368.71
607.743	354.01
608.192	365.71
608.642	387.81
609.091	380.31
609.541	390.31
609.99	384.01
610.44	371.01
610.889	354.01
611.339	349.61
611.788	340.21
612.238	344.51
612.687	359.81
613.136	355.31
613.586	350.21
614.035	349.71
614.484	351.51
614.933	356.91
615.383	347.71
615.832	356.81
616.281	339.61
616.73	335.11
617.179	326.51
617.628	318.71
618.077	312.31
618.526	299.71
618.975	299.71
619.424	293.01
619.873	297.51
620.322	297.71
620.771	283.11
621.22	291.31
621.669	287.31
622.118	282.21
622.567	277.81
623.015	269.31
623.464	267.91
623.913	272.51
624.361	255.71
624.81	259.11
625.259	262.01
625.707	268.21
626.156	269.21
626.604	268.81
627.053	272.01
627.501	260.91
627.95	273.81
628.398	279.71
628.847	274.71
629.295	269.11
629.744	276.81
630.192	267.51
630.64	267.51
631.089	255.51
631.537	245.11
631.985	243.91
632.433	240.91
632.881	245.01
633.33	244.81
633.778	234.11
634.226	230.81
634.674	244.41
635.122	245.51
635.57	248.61
636.018	252.31
636.466	258.51
636.914	255.51
637.362	259.01
637.81	266.21
638.258	257.31
638.705	259.21
639.153	278.91
639.601	272.51
640.049	284.21
640.497	304.31
640.944	319.31
641.392	279.81
641.84	261.81
642.287	246.31
642.735	236.91
643.182	233.31
643.63	234.81
644.078	221.81
644.525	228.51
644.973	225.21
645.42	219.61
645.867	226.71
646.315	236.41
646.762	234.21
647.21	238.21
647.657	229.41
648.104	228.01
648.551	219.31
648.999	218.71
649.446	218.21
649.893	207.41
650.34	210.31
650.787	212.21
651.234	226.11
651.682	223.61
652.129	230.91
652.576	244.21
653.023	276.61
653.47	297.91
653.917	306.31
654.363	329.01
654.81	354.31
655.257	342.71
655.704	288.41
656.151	243.21
656.598	231.11
657.044	210.01
657.491	211.01
657.938	208.91
658.385	213.01
658.831	211.31
659.278	227.31
659.724	205.61
660.171	207.81
660.618	203.31
661.064	207.01
661.511	194.31
661.957	207.81
662.404	210.41
662.85	225.11
663.296	217.21
663.743	206.51
664.189	203.21
664.635	211.51
665.082	205.81
665.528	215.31
665.974	210.91
666.42	200.71
666.867	198.91
667.313	189.81
667.759	194.51
668.205	186.31
668.651	190.81
669.097	184.71
669.543	182.01
669.989	187.91
670.435	190.91
670.881	186.51
671.327	192.21
671.773	202.31
672.219	211.31
672.665	244.91
673.11	259.01
673.556	279.81
674.002	320.41
674.448	304.51
674.893	250.21
675.339	217.41
675.785	203.81
676.23	187.51
676.676	175.21
677.122	176.01
677.567	167.11
678.013	173.91
678.458	155.21
678.904	162.71
679.349	154.71
679.794	158.01
680.24	161.31
680.685	148.21
681.131	153.51
681.576	157.81
682.021	157.01
682.466	152.51
682.912	153.11
683.357	152.71
683.802	170.31
684.247	185.41
684.692	208.11
685.137	223.81
685.583	256.91
686.028	274.51
686.473	243.31
686.918	206.91
687.363	194.71
687.807	188.21
688.252	166.31
688.697	162.41
689.142	157.01
689.587	151.81
690.032	141.71
690.477	152.01
690.921	153.01
691.366	178.01
691.811	182.01
692.255	200.81
692.7	213.81
693.145	225.21
693.589	321.51
694.034	533.81
694.478	757.81
694.923	904.21
695.367	1186.21
695.812	621.71
696.256	237.71
696.701	164.21
697.145	154.51
697.59	148.41
698.034	142.71
698.478	154.71
698.922	148.51
699.367	145.01
699.811	152.91
700.255	160.21
700.699	171.81
701.143	195.51
701.588	221.01
702.032	253.51
702.476	243.11
702.92	229.11
703.364	227.41
703.808	296.81
704.252	477.01
704.696	708.51
705.14	849.41
705.584	1109.31
706.027	539.81
706.471	242.81
706.915	186.01
707.359	159.91
707.803	143.81
708.246	145.31
708.69	143.01
709.134	148.11
709.577	147.51
710.021	148.61
710.465	137.91
710.908	137.51
711.352	137.31
711.795	139.01
712.239	155.71
712.682	167.21
713.126	192.71
713.569	219.71
714.012	163.21
714.456	134.01
714.899	133.31
715.342	126.71
715.786	121.11
716.229	117.51
716.672	117.31
717.115	109.61
717.558	109.21
718.002	109.71
718.445	119.01
718.888	130.81
719.331	130.41
719.774	145.51
720.217	133.41
720.66	128.71
721.103	119.71
721.546	110.21
721.989	114.41
722.432	95.71
722.874	102.41
723.317	98.21
723.76	101.11
724.203	115.81
724.645	144.61
725.088	203.41
725.531	264.41
725.974	320.01
726.416	267.31
726.859	140.71
727.301	104.71
727.744	108.01
728.187	97.01
728.629	104.21
729.071	107.51
729.514	116.71
729.956	115.91
730.399	131.71
730.841	139.41
731.283	129.41
731.726	122.31
732.168	116.81
732.61	119.81
733.053	133.01
733.495	141.81
733.937	159.21
734.379	190.81
734.821	202.81
735.263	250.91
735.705	396.91
736.148	745.21
736.59	1267.51
737.032	1594.31
737.474	1295.41
737.916	407.71
738.357	200.51
738.799	148.61
739.241	133.81
739.683	125.01
740.125	130.81
740.567	139.81
741.008	152.31
741.45	155.91
741.892	148.61
742.334	167.81
742.775	175.61
743.217	164.41
743.658	126.71
744.1	116.31
744.542	116.61
744.983	148.11
745.425	171.31
745.866	164.61
746.307	137.41
746.749	127.71
747.19	135.91
747.632	204.01
748.073	397.91
748.514	879.41
748.956	1416.31
749.397	1778.91
749.838	1490.21
750.279	1562.51
750.72	781.51
751.162	265.11
751.603	155.61
752.044	123.71
752.485	104.01
752.926	95.21
753.367	95.41
753.808	81.11
754.249	84.61
754.69	78.01
755.131	78.61
755.572	77.91
756.013	75.91
756.453	87.71
756.894	75.91
757.335	82.11
757.776	87.71
758.216	84.81
758.657	87.81
759.098	86.41
759.538	102.81
759.979	117.61
760.42	170.01
760.86	314.21
761.301	842.71
761.741	2121.71
762.182	3367.71
762.622	2401.11
763.063	679.51
763.503	268.01
763.943	150.71
764.384	125.21
764.824	108.41
765.264	97.61
765.705	91.81
766.145	78.31
766.585	69.81
767.025	74.81
767.465	63.61
767.906	79.41
768.346	82.21
768.786	81.91
769.226	91.61
769.666	131.91
770.106	267.31
770.546	717.21
770.986	1351.21
771.426	1242.01
771.866	401.01
772.306	156.31
772.745	92.31
773.185	77.21
773.625	73.11
774.065	67.41
774.505	74.01
774.944	94.51
775.384	159.11
775.824	292.31
776.263	298.51
776.703	137.71
777.142	67.41
777.582	57.31
778.021	49.91
778.461	48.41
778.9	54.91
779.34	54.81
779.779	42.41
780.219	44.31
780.658	41.91
781.097	47.81
781.537	47.91
781.976	41.81
782.415	43.51
782.855	43.11
783.294	46.41
783.733	42.01
784.172	45.31
784.611	40.51
785.05	44.11
785.489	44.51
785.928	56.11
786.367	56.41
786.806	49.61
787.245	54.01
787.684	54.81
788.123	68.11
788.562	54.81
789.001	54.41
789.44	50.11
789.879	54.71
790.317	50.51
790.756	54.11
791.195	53.71
791.634	62.31
792.072	93.01
792.511	165.31
792.95	463.11
793.388	1070.01
793.827	1018.81
794.265	335.61
794.704	133.61
795.142	89.81
795.581	74.21
796.019	65.41
796.458	56.91
796.896	45.11
797.334	54.51
797.773	65.91
798.211	106.61
798.649	201.11
799.087	497.41
799.526	798.91
799.964	1006.01
800.402	1066.81
800.84	391.91
801.278	142.71
801.716	85.11
802.154	70.71
802.592	65.41
803.03	54.31
803.468	60.61
803.906	66.71
804.344	69.51
804.782	62.01
805.22	61.31
805.658	53.51
806.096	66.81
806.533	74.51
806.971	76.21
807.409	108.91
807.847	143.81
808.284	303.91
808.722	903.01
809.16	1696.91
809.597	1550.71
810.035	2706.61
810.472	3110.61
810.91	1130.61
811.347	415.11
811.785	203.41
812.222	129.91
812.66	94.21
813.097	76.41
813.535	62.11
813.972	63.91
814.409	53.11
814.846	43.61
815.284	60.71
815.721	42.71
816.158	45.31
816.595	51.71
817.032	73.61
817.47	90.61
817.907	67.61
818.344	44.91
818.781	40.71
819.218	36.31
819.655	50.61
820.092	93.51
820.529	110.11
820.966	86.71
821.403	59.91
821.839	48.11
822.276	43.21
822.713	53.41
823.15	67.21
823.587	53.61
824.023	67.91
824.46	135.31
824.897	439.41
825.333	701.11
825.77	307.61
826.206	112.91
826.643	63.91
827.08	50.51
827.516	39.61
827.953	35.21
828.389	38.11
828.825	33.31
829.262	26.51
829.698	27.81
830.135	35.01
830.571	20.61
831.007	27.91
831.443	21.11
831.88	28.11
832.316	26.61
832.752	30.61
833.188	30.61
833.624	29.61
834.06	25.11
834.497	29.11
834.933	29.71
835.369	31.61
835.805	27.81
836.241	31.71
836.677	26.01
837.112	37.01
837.548	45.01
837.984	66.21
838.42	89.31
838.856	224.81
839.292	743.01
839.727	1227.31
840.163	560.51
840.599	452.01
841.034	1024.41
841.47	1149.01
841.906	405.81
842.341	163.31
842.777	99.31
843.212	92.61
843.648	94.71
844.083	45.51
844.519	41.11
844.954	29.91
845.39	22.71
845.825	26.71
846.261	23.11
846.696	23.81
847.131	24.31
847.566	28.71
848.002	26.31
848.437	23.61
848.872	28.01
849.307	21.31
849.742	40.11
850.177	74.51
850.613	265.51
851.048	457.11
851.483	197.01
851.918	68.81
852.353	36.21
852.788	19.31
853.223	21.01
853.657	25.81
854.092	22.21
854.527	22.51
854.962	14.71
855.397	24.81
855.832	18.21
856.266	18.31
856.701	17.71
857.136	16.81
857.57	12.01
858.005	21.81
858.44	27.61
858.874	16.51
859.309	22.51
859.743	17.81
860.178	20.91
860.612	15.61
861.047	30.71
861.481	25.11
861.915	28.11
862.35	24.41
862.784	14.91
863.218	18.41
863.653	5.41
864.087	20.11
864.521	25.11
864.955	34.61
865.39	72.61
865.824	88.51
866.258	53.81
866.692	86.11
867.126	95.31
867.56	60.01
867.994	27.61
868.428	16.41
868.862	25.51
869.296	25.41
869.73	30.91
870.164	28.71
870.598	16.41
871.031	17.11
871.465	16.61
871.899	18.21
872.333	4.81
872.766	11.91
873.2	5.91
873.634	16.91
874.067	14.41
874.501	10.71
874.935	16.91
875.368	17.01
875.802	12.61
876.235	5.51
876.669	11.01
877.102	11.51
877.535	12.81
877.969	8.11
878.402	6.71
878.836	3.81
879.269	10.31
879.702	8.11
880.135	13.11
880.569	8.51
881.002	14.71
881.435	7.51
881.868	0.71
882.301	2.61
882.734	2.71
883.167	6.11
883.601	8.51
884.034	9.91
884.467	-0.49
884.899	4.21
885.332	6.61
885.765	7.61
886.198	2.91
886.631	6.51
887.064	14.11
887.497	5.61
887.929	10.91
888.362	3.71
888.795	1.01
889.228	11.71
889.66	7.21
890.093	10.61
890.526	7.81
890.958	6.91
891.391	11.01
891.823	6.01
892.256	7.01
892.688	2.01
893.121	9.51
893.553	1.71
893.985	10.91
894.418	4.11
894.85	7.71
895.282	1.41
895.715	3.21
896.147	6.01
896.579	8.61
897.011	6.31
897.444	11.81
897.876	-1.19
898.308	4.91
898.74	-1.99
899.172	3.91
899.604	16.61
900.036	7.01
900.468	3.31
900.9	6.11
901.332	4.71
901.764	2.51
902.196	2.91
902.628	6.31
903.06	8.81
903.491	14.61
903.923	7.31
904.355	9.71
904.787	13.01
905.218	13.91
905.65	16.31
906.082	3.81
906.513	1.11
906.945	4.51
907.376	6.51
907.808	9.31
908.239	6.11
908.671	3.01
909.102	9.61
909.534	6.71
909.965	18.61
910.397	44.81
910.828	164.51
911.259	249.31
911.691	112.81
912.122	51.71
912.553	22.81
912.984	22.31
913.415	14.51
913.847	5.91
914.278	6.01
914.709	5.81
915.14	9.21
915.571	7.01
916.002	13.21
916.433	13.61
916.864	5.31
917.295	2.21
917.726	5.21
918.157	1.61
918.587	10.31
919.018	8.61
919.449	13.21
919.88	12.51
920.311	14.61
920.741	15.81
921.172	81.91
921.603	81.61
922.033	30.91
922.464	27.01
922.895	6.51
923.325	7.61
923.756	9.41
924.186	5.61
924.617	3.71
925.047	5.61
925.478	8.21
925.908	18.11
926.338	8.01
926.769	7.41
927.199	12.01
927.629	1.51
928.06	11.71
928.49	8.91
928.92	6.21
929.35	7.81
929.78	0.51
930.21	0.41
930.641	2.51
931.071	2.71
931.501	-3.29
931.931	8.31
932.361	2.31
932.791	-2.09
933.221	1.71
933.651	1.31
934.08	8.11
934.51	16.81
934.94	2.21
935.37	3.01
935.8	7.51
936.229	3.81
936.659	7.31
937.089	-8.99
937.519	12.41
937.948	15.51
938.378	16.21
938.807	1.01
939.237	-3.19
939.666	9.71
940.096	-9.49
940.525	0.01
940.955	-0.59
941.384	0.51
941.814	-5.29
942.243	-2.79
942.672	-0.19
943.102	-2.69
943.531	-4.99
943.96	2.51
944.39	2.71
944.819	-0.79
945.248	-2.69
945.677	-3.59
946.106	7.91
946.535	5.31
946.964	0.41
947.393	2.31
947.822	0.51
948.251	-5.79
948.68	5.51
949.109	3.61
949.538	8.01
949.967	-1.69
950.396	-3.79
950.825	-3.69
951.254	-4.39
951.682	-10.29
952.111	-0.59
952.54	5.51
952.969	-2.99
953.397	-6.49
953.826	-0.49
954.254	-13.19
954.683	-2.69
955.112	-5.49
955.54	1.21
955.969	2.31
956.397	-2.59
956.826	1.21
957.254	0.31
957.682	3.31
958.111	0.11
958.539	-6.19
958.967	-1.19
959.396	3.31
959.824	6.41
960.252	1.31
960.68	-8.29
961.109	-1.99
961.537	-7.29
961.965	-2.89
962.393	6.61
962.821	-3.79
963.249	-1.79
963.677	-0.89
964.105	-6.59
964.533	17.01
964.961	24.81
965.389	14.31
965.817	4.31
966.245	-3.29
966.672	-2.39
967.1	-11.39
967.528	0.31
967.956	-7.79
968.383	-2.79
968.811	-0.59
969.239	-4.29
969.666	-1.59
970.094	0.91
970.522	-2.69
970.949	-6.09
971.377	-5.09
971.804	-5.89
972.232	-4.89
972.659	-4.49
973.087	-4.99
973.514	4.61
973.941	-2.29
974.369	1.71
974.796	1.61
975.223	1.11
975.651	-6.09
976.078	1.71
976.505	-1.89
976.932	-1.79
977.359	6.01
977.786	11.71
978.214	-3.89
978.641	-2.99
979.068	-5.19
979.495	-1.89
979.922	0.11
980.349	-0.89
980.776	2.71
981.202	2.51
981.629	-0.59
982.056	4.31
982.483	-2.49
982.91	3.31
983.337	-4.19
983.763	3.11
984.19	1.61
984.617	-3.19
985.043	-3.69
985.47	0.21
985.897	-3.89
986.323	-7.49
986.75	4.91
987.176	3.71
987.603	0.31
988.029	-1.69
988.456	-2.29
988.882	4.61
989.308	-9.69
989.735	-2.29
990.161	1.21
990.587	-4.09
991.014	-1.59
991.44	3.31
991.866	-5.49
992.292	-4.79
992.719	2.01
993.145	3.21
993.571	-7.89
993.997	-2.99
994.423	-2.69
994.849	-0.59
995.275	-2.99
995.701	2.61
996.127	-3.49
996.553	-2.39
996.979	1.51
997.405	-5.09
997.83	-4.99
998.256	-3.79
998.682	-3.89
999.108	-2.99
999.534	1.91
999.959	0.31
1000.385	-5.19
1000.811	-0.49
1001.236	-4.39
1001.662	-6.69
1002.087	-13.09
1002.513	0.41
1002.938	-1.49
1003.364	-1.59
1003.789	-0.19
1004.215	4.31
1004.64	-1.19
1005.066	1.21
1005.491	3.61
1005.916	-5.89
1006.342	-8.79
1006.767	-3.49
1007.192	4.21
1007.617	-6.29
1008.042	0.11
1008.468	-6.59
1008.893	-4.59
1009.318	-2.49
1009.743	-3.49
1010.168	0.21
1010.593	1.51
1011.018	-10.09
1011.443	-1.39
1011.868	0.21
1012.293	-0.99
1012.718	-7.79
1013.143	6.01
1013.567	-0.89
1013.992	-2.69
1014.417	-12.19
1014.842	-0.49
1015.267	-4.99
1015.691	-4.39
1016.116	4.91
1016.541	-2.49
1016.965	2.91
1017.39	-0.59
1017.814	1.91
1018.239	-2.59
1018.663	-6.99
1019.088	-11.19
1019.512	-6.29
1019.937	-0.59
1020.361	-1.69
1020.785	-7.89
1021.21	-0.49
1021.634	-0.79
1022.058	2.41
1022.483	5.01
1022.907	-1.79
1023.331	-3.79
1023.755	-4.39
1024.179	2.51
1024.604	-3.19
1025.028	-0.49
1025.452	-3.39
1025.876	-0.99
1026.3	4.91
1026.724	-7.59
1027.148	2.91
1027.572	-5.69
1027.996	0.41
1028.42	1.91
1028.843	-6.99
1029.267	-7.99
1029.691	0.41
1030.115	-6.39
1030.539	-5.79
1030.962	-3.49
1031.386	-2.09
1031.81	0.01
1032.233	5.31
1032.657	2.41
1033.08	0.11
1033.504	-2.49
1033.927	-5.19
1034.351	-0.29
1034.774	-2.29
1035.198	-7.69
1035.621	-0.59
1036.045	-8.79
1036.468	-2.09
1036.891	-13.09
1037.315	-12.49
1037.738	-6.49
1038.161	-2.09
1038.584	-5.49
1039.008	-3.59
1039.431	0.41
1039.854	0.31
1040.277	-8.99
1040.7	-7.79
1041.123	0.01
1041.546	-4.89
1041.969	-4.59
1042.392	-3.09
1042.815	-0.39
1043.238	0.21
1043.661	5.21
1044.084	-3.29
1044.507	-1.59
1044.93	-3.39
1045.352	-0.89
1045.775	-0.89
1046.198	0.81
1046.621	-0.79
1047.043	-1.29
1047.466	1.21
1047.889	0.81
1048.311	-7.19
1048.734	-3.09
1049.156	-5.69
1049.579	-5.09
1050.001	-6.59
1050.424	3.51
1050.846	-1.79
1051.269	-3.79
1051.691	-5.79
1052.113	-4.39
1052.536	2.21
1052.958	-1.99
1053.38	-5.39
1053.802	-8.29
1054.225	1.21
1054.647	-1.79
1055.069	-5.39
1055.491	3.11
1055.913	-9.29
1056.335	-0.69
1056.757	-5.29
1057.179	-7.19
1057.601	-7.49
1058.023	-4.89
1058.445	1.71
1058.867	-1.39
1059.289	-6.19
1059.711	-3.89
1060.133	-0.39
1060.555	-2.39
1060.976	-3.49
1061.398	0.81
1061.82	-9.99
1062.241	-1.79
1062.663	-5.69
1063.085	-2.49
1063.506	2.01
1063.928	-3.39
1064.35	-2.09
1064.771	-10.29
1065.193	-5.99
1065.614	-12.49
1066.035	-3.89
1066.457	-1.99
1066.878	8.81
1067.3	-1.29
1067.721	-2.19
1068.142	-3.59
1068.564	-1.29
1068.985	-2.79
1069.406	-4.39
1069.827	-1.39
1070.248	7.41
1070.67	-3.79
1071.091	-4.69
1071.512	-0.89
1071.933	-0.59
1072.354	-6.09
1072.775	-3.49
1073.196	-9.19
1073.617	1.11
1074.038	-3.09
1074.459	-0.09
1074.88	-4.49
1075.3	4.31
1075.721	-7.79
1076.142	4.51
1076.563	0.51
1076.983	-10.59
1077.404	-0.99
1077.825	-8.39
1078.246	-5.39
1078.666	-7.39
1079.087	-6.19
1079.507	-3.19
1079.928	1.01
1080.348	-1.39
1080.769	-5.29
1081.189	-1.49
1081.61	-0.79
1082.03	-4.39
1082.451	-4.99
1082.871	-3.29
1083.291	-1.49
1083.711	-8.29
1084.132	-6.69
1084.552	-8.79
1084.972	-1.59
1085.392	-9.99
1085.813	-12.39
1086.233	-9.89
1086.653	0.21
1087.073	-1.39
1087.493	-8.69
1087.913	-10.69
1088.333	-4.39
1088.753	-4.89
1089.173	1.31
1089.593	-1.19
1090.013	-0.09
1090.433	3.61
1090.852	-4.79
1091.272	1.21
1091.692	0.11
1092.112	-2.99
1092.531	-6.49
1092.951	-8.69
1093.371	3.11
1093.79	1.91
1094.21	-3.89
1094.63	-2.29
1095.049	-1.09
1095.469	-3.39
1095.888	-4.09
1096.308	5.11
1096.727	6.51
1097.146	-1.69
1097.566	2.91
1097.985	-5.29
1098.405	-0.59
1098.824	-2.19
1099.243	-6.59
1099.662	-5.49
1100.082	-0.69
1100.501	1.31
1100.92	-5.49
1101.339	-3.29
1101.758	-3.59
