Data from 20171114-ORNL-Ar_H_NY_Subt18_08-03-41-589.txt Node
Date: Tue Nov 14 08:03:41 EST 2017
User: Ender
Spectrometer: HR+D1039
Trigger mode: 0
Integration Time (sec): 2.730000E-2
Scans to average: 10
Electric dark correction enabled: true
Nonlinearity correction enabled: false
Boxcar width: 0
XAxis mode: Wavelengths
Number of Pixels in Spectrum: 2048
>>>>>Begin Spectral Data<<<<<
187.836	-2.81
188.309	-2.81
188.782	-2.81
189.255	-1.41
189.728	0.29
190.201	5.09
190.674	0.99
191.147	5.09
191.619	-8.51
192.092	0.79
192.565	5.39
193.038	-3.91
193.511	8.49
193.984	-1.11
194.456	-5.81
194.929	-3.41
195.402	1.29
195.874	-0.41
196.347	0.49
196.82	-6.61
197.292	7.29
197.765	-1.11
198.237	-3.21
198.71	1.99
199.182	-3.31
199.655	3.39
200.127	6.59
200.6	-2.01
201.072	-4.61
201.544	-3.21
202.017	-5.21
202.489	8.79
202.961	3.29
203.433	-0.91
203.906	-4.41
204.378	-5.61
204.85	-2.31
205.322	-3.41
205.794	3.69
206.266	-1.61
206.739	-8.91
207.211	8.49
207.683	-4.51
208.155	-4.01
208.627	-5.61
209.099	-2.71
209.57	-7.31
210.042	-2.01
210.514	0.79
210.986	4.49
211.458	-0.21
211.93	-1.11
212.402	0.39
212.873	-3.61
213.345	-4.61
213.817	-8.91
214.288	-5.11
214.76	-9.11
215.232	3.69
215.703	-2.81
216.175	-4.41
216.646	-9.31
217.118	-6.61
217.589	-2.81
218.061	0.19
218.532	-3.21
219.004	2.59
219.475	-1.01
219.946	1.99
220.418	-5.41
220.889	-0.61
221.36	1.59
221.832	-2.41
222.303	-6.51
222.774	-3.91
223.245	-9.41
223.717	-6.71
224.188	-2.21
224.659	-3.51
225.13	-0.11
225.601	-0.61
226.072	-0.51
226.543	-1.81
227.014	3.69
227.485	-5.41
227.956	-5.91
228.427	2.69
228.898	-2.31
229.369	7.89
229.839	-1.91
230.31	-10.31
230.781	3.29
231.252	2.19
231.722	-10.31
232.193	-10.61
232.664	-1.01
233.135	-3.81
233.605	0.59
234.076	-5.01
234.546	2.59
235.017	5.19
235.487	3.99
235.958	-3.61
236.428	-3.91
236.899	4.59
237.369	-3.11
237.84	-2.01
238.31	2.29
238.78	-3.41
239.251	-3.81
239.721	1.59
240.191	-5.01
240.662	2.29
241.132	2.79
241.602	-3.71
242.072	-3.61
242.542	5.19
243.013	-5.21
243.483	1.49
243.953	0.29
244.423	0.39
244.893	-3.81
245.363	1.29
245.833	-1.11
246.303	0.59
246.773	2.19
247.243	-2.31
247.712	-0.41
248.182	0.79
248.652	2.79
249.122	-7.11
249.592	0.79
250.061	3.29
250.531	11.69
251.001	-2.51
251.471	8.29
251.94	5.69
252.41	-2.11
252.879	0.99
253.349	13.39
253.818	7.09
254.288	6.29
254.757	1.19
255.227	-4.11
255.696	6.59
256.166	4.09
256.635	4.69
257.105	4.99
257.574	-1.01
258.043	3.39
258.513	-1.41
258.982	5.29
259.451	2.69
259.92	-0.41
260.389	2.39
260.859	10.19
261.328	3.69
261.797	7.29
262.266	0.49
262.735	11.39
263.204	4.39
263.673	-5.91
264.142	7.09
264.611	-5.41
265.08	-0.81
265.549	2.19
266.018	0.99
266.487	-2.31
266.955	-0.51
267.424	1.49
267.893	10.49
268.362	8.29
268.83	5.19
269.299	9.09
269.768	1.89
270.236	5.19
270.705	0.59
271.174	2.39
271.642	3.69
272.111	2.19
272.579	6.49
273.048	-1.01
273.516	4.89
273.985	0.49
274.453	6.09
274.922	11.09
275.39	4.89
275.858	-2.31
276.327	7.99
276.795	10.09
277.263	-1.11
277.731	11.19
278.2	0.99
278.668	1.79
279.136	5.39
279.604	7.19
280.072	14.49
280.54	7.99
281.008	5.69
281.477	5.39
281.945	6.19
282.413	11.49
282.881	13.49
283.348	-1.81
283.816	9.89
284.284	11.19
284.752	11.69
285.22	2.49
285.688	14.79
286.156	11.49
286.623	14.89
287.091	8.29
287.559	11.19
288.026	10.69
288.494	11.09
288.962	1.99
289.429	9.49
289.897	12.79
290.364	16.69
290.832	12.99
291.3	11.89
291.767	14.19
292.234	7.79
292.702	10.29
293.169	12.09
293.637	14.69
294.104	15.09
294.571	4.79
295.039	7.69
295.506	7.99
295.973	9.69
296.44	8.69
296.908	9.69
297.375	9.39
297.842	15.19
298.309	10.99
298.776	4.39
299.243	20.69
299.71	9.39
300.177	17.99
300.644	21.39
301.111	13.99
301.578	17.79
302.045	10.09
302.512	18.39
302.979	18.59
303.446	16.69
303.913	16.49
304.379	9.29
304.846	21.79
305.313	20.39
305.78	25.39
306.246	22.59
306.713	23.19
307.18	15.19
307.646	21.49
308.113	22.59
308.579	18.29
309.046	18.89
309.512	20.39
309.979	11.19
310.445	17.79
310.912	20.99
311.378	28.79
311.845	27.69
312.311	26.89
312.777	29.89
313.244	26.39
313.71	28.89
314.176	23.49
314.642	21.79
315.109	18.19
315.575	27.29
316.041	31.49
316.507	26.99
316.973	31.99
317.439	26.09
317.905	28.69
318.371	30.19
318.837	28.99
319.303	26.19
319.769	28.19
320.235	26.69
320.701	33.89
321.167	31.99
321.633	27.69
322.099	31.39
322.564	31.49
323.03	29.49
323.496	29.49
323.962	41.59
324.427	30.99
324.893	40.09
325.359	34.39
325.824	38.29
326.29	40.09
326.755	33.09
327.221	32.39
327.686	39.49
328.152	41.79
328.617	38.79
329.083	48.29
329.548	43.69
330.014	44.49
330.479	40.49
330.944	42.49
331.41	37.79
331.875	42.89
332.34	39.49
332.805	42.59
333.271	42.69
333.736	41.59
334.201	48.29
334.666	47.89
335.131	49.49
335.596	52.19
336.061	42.49
336.526	39.19
336.991	42.79
337.456	51.99
337.921	46.59
338.386	46.79
338.851	39.99
339.316	49.69
339.781	44.29
340.246	57.59
340.711	47.89
341.175	52.19
341.64	43.69
342.105	49.59
342.569	53.49
343.034	52.69
343.499	54.29
343.963	47.49
344.428	57.29
344.893	55.09
345.357	65.69
345.822	63.09
346.286	64.09
346.751	68.19
347.215	66.49
347.679	77.69
348.144	88.49
348.608	73.49
349.073	69.49
349.537	67.09
350.001	76.29
350.465	83.69
350.93	82.39
351.394	84.29
351.858	75.79
352.322	83.59
352.786	81.59
353.25	93.49
353.715	100.89
354.179	87.79
354.643	108.39
355.107	113.19
355.571	102.19
356.035	100.39
356.498	111.19
356.962	105.89
357.426	118.99
357.89	107.19
358.354	89.09
358.818	83.69
359.281	82.89
359.745	86.39
360.209	78.29
360.673	72.69
361.136	82.19
361.6	89.09
362.064	86.29
362.527	91.19
362.991	91.09
363.454	81.59
363.918	86.49
364.381	87.19
364.845	85.89
365.308	94.89
365.772	94.09
366.235	95.29
366.698	95.39
367.162	93.39
367.625	92.19
368.088	91.79
368.552	100.99
369.015	97.29
369.478	101.09
369.941	102.09
370.404	102.29
370.867	104.39
371.331	112.19
371.794	114.89
372.257	104.69
372.72	111.79
373.183	113.69
373.646	104.29
374.109	107.69
374.572	111.39
375.035	103.89
375.497	113.49
375.96	122.79
376.423	112.99
376.886	121.99
377.349	123.49
377.811	109.19
378.274	116.09
378.737	117.29
379.199	121.59
379.662	112.79
380.125	127.29
380.587	117.79
381.05	124.19
381.512	121.69
381.975	143.89
382.437	132.09
382.9	135.89
383.362	133.69
383.825	143.09
384.287	136.79
384.75	129.09
385.212	142.39
385.674	146.09
386.136	142.89
386.599	135.89
387.061	138.49
387.523	136.49
387.985	143.29
388.447	154.89
388.91	141.09
389.372	148.39
389.834	147.49
390.296	140.39
390.758	145.49
391.22	154.09
391.682	160.99
392.144	163.19
392.606	161.19
393.068	162.19
393.529	166.89
393.991	158.69
394.453	150.39
394.915	155.39
395.377	152.69
395.838	155.59
396.3	152.69
396.762	158.09
397.224	158.69
397.685	155.69
398.147	151.89
398.608	160.89
399.07	153.59
399.531	164.89
399.993	170.29
400.454	178.29
400.916	168.89
401.377	167.59
401.839	175.69
402.3	178.79
402.762	188.89
403.223	199.39
403.684	199.89
404.145	185.69
404.607	185.79
405.068	195.39
405.529	190.29
405.99	201.09
406.451	196.59
406.913	199.09
407.374	198.49
407.835	193.89
408.296	196.49
408.757	196.09
409.218	215.29
409.679	207.69
410.14	199.19
410.601	203.79
411.062	205.19
411.522	210.49
411.983	207.09
412.444	207.89
412.905	214.49
413.366	215.89
413.826	228.39
414.287	253.29
414.748	308.39
415.208	298.79
415.669	247.79
416.13	249.19
416.59	241.19
417.051	258.09
417.511	266.89
417.972	286.99
418.432	303.79
418.893	341.39
419.353	319.19
419.814	235.09
420.274	213.69
420.734	214.99
421.195	236.69
421.655	218.09
422.115	231.89
422.576	229.39
423.036	233.69
423.496	247.09
423.956	250.99
424.416	272.09
424.876	299.49
425.336	297.79
425.797	298.29
426.257	297.29
426.717	279.99
427.177	265.89
427.637	259.09
428.097	268.29
428.556	282.59
429.016	309.39
429.476	299.39
429.936	302.69
430.396	309.09
430.856	325.19
431.315	343.59
431.775	378.79
432.235	416.59
432.694	396.89
433.154	390.69
433.614	414.69
434.073	363.29
434.533	321.29
434.993	297.59
435.452	307.09
435.912	319.59
436.371	307.79
436.83	297.19
437.29	285.99
437.749	276.59
438.209	278.59
438.668	295.49
439.127	302.69
439.587	283.29
440.046	270.39
440.505	280.59
440.964	299.79
441.424	332.79
441.883	331.59
442.342	285.39
442.801	260.99
443.26	258.49
443.719	255.79
444.178	252.29
444.637	248.79
445.096	258.69
445.555	267.59
446.014	263.39
446.473	261.19
446.932	267.39
447.391	261.09
447.849	264.29
448.308	256.19
448.767	254.99
449.226	274.29
449.685	270.59
450.143	287.59
450.602	272.39
451.061	261.99
451.519	261.89
451.978	267.89
452.436	264.69
452.895	271.79
453.353	276.19
453.812	265.09
454.27	269.99
454.729	273.49
455.187	272.59
455.646	269.99
456.104	280.79
456.562	278.89
457.021	290.69
457.479	287.49
457.937	298.99
458.395	289.29
458.854	281.89
459.312	282.89
459.77	294.69
460.228	287.79
460.686	268.79
461.144	286.79
461.602	283.59
462.06	274.59
462.518	282.19
462.976	286.39
463.434	285.29
463.892	289.49
464.35	303.99
464.808	318.99
465.266	294.59
465.724	300.29
466.181	305.59
466.639	309.59
467.097	320.19
467.555	342.39
468.012	326.39
468.47	337.29
468.928	351.59
469.385	365.59
469.843	366.19
470.3	368.99
470.758	386.09
471.215	394.49
471.673	427.19
472.13	421.59
472.588	446.39
473.045	405.49
473.503	419.59
473.96	435.69
474.417	428.89
474.875	459.59
475.332	489.79
475.789	491.59
476.246	492.69
476.704	514.89
477.161	527.49
477.618	539.39
478.075	580.69
478.532	624.69
478.989	686.79
479.446	772.39
479.903	762.79
480.36	793.79
480.817	839.19
481.274	924.29
481.731	1011.19
482.188	1089.29
482.645	1215.19
483.102	1297.69
483.558	1409.59
484.015	1467.59
484.472	1439.89
484.929	1405.99
485.385	1356.09
485.842	1343.89
486.299	1300.69
486.755	1223.59
487.212	1082.09
487.668	935.09
488.125	873.19
488.582	803.09
489.038	774.89
489.494	737.59
489.951	711.29
490.407	697.79
490.864	679.59
491.32	671.79
491.776	662.49
492.233	661.49
492.689	636.49
493.145	636.59
493.602	627.29
494.058	631.29
494.514	625.99
494.97	647.19
495.426	655.09
495.882	618.79
496.338	615.79
496.794	627.49
497.251	625.69
497.707	626.49
498.163	637.69
498.618	633.49
499.074	648.49
499.53	671.39
499.986	658.29
500.442	642.59
500.898	625.69
501.354	627.49
501.809	637.89
502.265	626.49
502.721	634.49
503.177	654.49
503.632	650.49
504.088	647.89
504.543	668.49
504.999	673.39
505.455	655.49
505.91	651.59
506.366	653.69
506.821	644.99
507.277	642.39
507.732	637.99
508.187	638.59
508.643	653.19
509.098	644.89
509.553	662.79
510.009	659.79
510.464	675.59
510.919	684.49
511.375	693.39
511.83	693.89
512.285	715.39
512.74	738.59
513.195	747.59
513.65	753.79
514.105	744.69
514.56	749.59
515.015	761.19
515.47	772.29
515.925	762.59
516.38	770.89
516.835	771.09
517.29	760.39
517.745	763.29
518.2	746.19
518.655	732.89
519.109	723.99
519.564	728.29
520.019	712.99
520.474	704.09
520.928	704.19
521.383	699.39
521.838	685.09
522.292	694.29
522.747	692.69
523.201	686.49
523.656	680.59
524.11	687.79
524.565	680.09
525.019	677.09
525.474	684.39
525.928	671.79
526.382	668.99
526.837	678.89
527.291	665.39
527.745	665.49
528.2	668.39
528.654	658.89
529.108	665.29
529.562	663.79
530.016	658.19
530.47	655.19
530.925	652.29
531.379	657.89
531.833	672.09
532.287	663.29
532.741	662.79
533.195	657.49
533.649	668.59
534.103	665.49
534.556	651.89
535.01	653.49
535.464	668.79
535.918	670.39
536.372	665.39
536.826	661.99
537.279	658.29
537.733	653.79
538.187	663.99
538.64	661.49
539.094	675.69
539.548	670.79
540.001	663.19
540.455	661.49
540.908	680.09
541.362	677.09
541.815	694.19
542.269	694.99
542.722	696.99
543.175	707.89
543.629	703.89
544.082	731.29
544.536	720.69
544.989	728.89
545.442	732.89
545.895	737.09
546.349	724.79
546.802	728.89
547.255	737.99
547.708	737.59
548.161	742.59
548.614	746.09
549.067	751.09
549.52	749.19
549.973	737.39
550.426	732.79
550.879	720.39
551.332	721.39
551.785	734.09
552.238	727.79
552.691	741.99
553.144	764.09
553.596	753.29
554.049	771.99
554.502	795.09
554.955	817.29
555.407	810.79
555.86	795.09
556.313	790.29
556.765	779.09
557.218	773.79
557.67	771.09
558.123	772.79
558.576	764.39
559.028	770.89
559.48	784.19
559.933	775.59
560.385	748.79
560.838	739.39
561.29	706.29
561.742	697.39
562.195	689.09
562.647	681.49
563.099	697.89
563.551	682.89
564.004	686.39
564.456	672.09
564.908	669.49
565.36	654.29
565.812	646.09
566.264	641.79
566.716	629.49
567.168	609.99
567.62	622.59
568.072	606.29
568.524	606.79
568.976	610.89
569.428	584.99
569.88	592.49
570.332	600.39
570.784	600.69
571.235	608.19
571.687	605.29
572.139	611.29
572.59	610.59
573.042	618.49
573.494	625.39
573.945	604.49
574.397	590.39
574.849	595.59
575.3	599.09
575.752	577.49
576.203	574.09
576.655	585.39
577.106	569.39
577.557	570.99
578.009	573.79
578.46	559.79
578.912	557.69
579.363	562.19
579.814	558.29
580.265	550.09
580.717	563.59
581.168	559.19
581.619	570.09
582.07	576.49
582.521	566.29
582.972	556.69
583.423	570.39
583.875	560.29
584.326	571.29
584.777	599.69
585.227	601.39
585.678	603.79
586.129	625.39
586.58	645.69
587.031	663.29
587.482	691.89
587.933	720.09
588.384	703.99
588.834	658.09
589.285	647.69
589.736	642.69
590.186	650.79
590.637	640.49
591.088	625.19
591.538	615.79
591.989	608.29
592.439	600.89
592.89	584.89
593.34	582.59
593.791	575.29
594.241	578.29
594.692	571.99
595.142	574.09
595.593	575.29
596.043	579.29
596.493	576.09
596.943	575.99
597.394	589.19
597.844	590.39
598.294	605.89
598.744	616.59
599.195	629.19
599.645	662.59
600.095	700.79
600.545	730.39
600.995	775.59
601.445	811.79
601.895	860.79
602.345	910.79
602.795	890.09
603.245	863.29
603.695	827.79
604.145	772.99
604.594	735.79
605.044	702.29
605.494	656.29
605.944	602.29
606.393	604.79
606.843	583.59
607.293	581.59
607.743	578.79
608.192	584.19
608.642	596.09
609.091	603.39
609.541	601.59
609.99	613.69
610.44	596.09
610.889	569.39
611.339	552.69
611.788	539.99
612.238	547.49
612.687	559.19
613.136	560.49
613.586	563.19
614.035	560.09
614.484	563.99
614.933	558.79
615.383	571.59
615.832	559.99
616.281	557.89
616.73	539.09
617.179	525.39
617.628	511.99
618.077	507.59
618.526	496.59
618.975	485.99
619.424	486.19
619.873	481.69
620.322	490.49
620.771	478.09
621.22	474.19
621.669	463.79
622.118	461.09
622.567	459.99
623.015	441.59
623.464	443.19
623.913	433.09
624.361	432.79
624.81	432.39
625.259	427.59
625.707	436.39
626.156	434.69
626.604	446.49
627.053	437.29
627.501	437.59
627.95	440.29
628.398	447.79
628.847	444.49
629.295	434.99
629.744	442.99
630.192	439.49
630.64	438.39
631.089	416.39
631.537	418.49
631.985	405.49
632.433	412.79
632.881	405.99
633.33	407.69
633.778	392.69
634.226	396.39
634.674	422.59
635.122	408.69
635.57	420.19
636.018	430.09
636.466	431.39
636.914	418.79
637.362	444.69
637.81	440.39
638.258	431.89
638.705	436.69
639.153	455.99
639.601	463.89
640.049	481.99
640.497	509.49
640.944	531.79
641.392	497.39
641.84	480.59
642.287	449.19
642.735	433.49
643.182	429.69
643.63	437.89
644.078	425.69
644.525	436.69
644.973	448.49
645.42	449.19
645.867	468.89
646.315	479.29
646.762	488.89
647.21	509.59
647.657	522.89
648.104	563.09
648.551	561.39
648.999	596.69
649.446	659.69
649.893	710.49
650.34	804.69
650.787	954.59
651.234	1148.99
651.682	1468.49
652.129	1947.29
652.576	2729.79
653.023	3960.99
653.47	5473.29
653.917	6923.49
654.363	8080.79
654.81	9141.79
655.257	8695.79
655.704	5808.59
656.151	3493.59
656.598	2290.29
657.044	1643.79
657.491	1288.89
657.938	1031.79
658.385	876.59
658.831	762.89
659.278	686.79
659.724	609.99
660.171	567.69
660.618	513.49
661.064	491.39
661.511	473.19
661.957	467.99
662.404	459.99
662.85	452.39
663.296	449.39
663.743	419.69
664.189	399.09
664.635	400.99
665.082	391.99
665.528	387.99
665.974	376.19
666.42	386.29
666.867	370.39
667.313	350.69
667.759	345.39
668.205	327.79
668.651	345.79
669.097	333.29
669.543	325.09
669.989	331.19
670.435	333.79
670.881	325.09
671.327	341.79
671.773	362.09
672.219	371.29
672.665	410.99
673.11	426.49
673.556	467.29
674.002	503.19
674.448	495.89
674.893	417.39
675.339	364.59
675.785	333.59
676.23	309.79
676.676	293.69
677.122	287.69
677.567	280.49
678.013	273.29
678.458	271.19
678.904	276.69
679.349	258.29
679.794	254.49
680.24	256.89
680.685	253.89
681.131	258.99
681.576	258.09
682.021	264.99
682.466	259.39
682.912	256.99
683.357	264.59
683.802	283.59
684.247	297.39
684.692	326.29
685.137	361.99
685.583	400.59
686.028	418.09
686.473	391.59
686.918	331.69
687.363	310.19
687.807	284.69
688.252	263.29
688.697	261.99
689.142	250.49
689.587	247.49
690.032	244.89
690.477	253.59
690.921	264.99
691.366	286.79
691.811	291.59
692.255	314.19
692.7	344.69
693.145	367.59
693.589	480.89
694.034	795.79
694.478	1104.69
694.923	1304.49
695.367	1734.29
695.812	910.49
696.256	373.39
696.701	275.39
697.145	251.69
697.59	245.99
698.034	239.89
698.478	236.49
698.922	236.79
699.367	231.39
699.811	243.99
700.255	252.99
700.699	272.59
701.143	304.69
701.588	335.29
702.032	377.19
702.476	389.99
702.92	362.69
703.364	356.59
703.808	446.19
704.252	724.69
704.696	1030.79
705.14	1236.69
705.584	1613.89
706.027	800.09
706.471	391.59
706.915	292.19
707.359	262.49
707.803	236.39
708.246	230.59
708.69	227.39
709.134	240.79
709.577	229.99
710.021	230.29
710.465	220.29
710.908	223.29
711.352	220.99
711.795	219.59
712.239	252.69
712.682	277.29
713.126	297.89
713.569	332.29
714.012	260.69
714.456	221.09
714.899	220.89
715.342	200.29
715.786	192.39
716.229	192.99
716.672	194.09
717.115	181.79
717.558	186.49
718.002	185.69
718.445	187.19
718.888	204.39
719.331	205.09
719.774	221.79
720.217	218.39
720.66	210.59
721.103	192.09
721.546	187.09
721.989	182.79
722.432	169.59
722.874	174.49
723.317	158.39
723.76	170.29
724.203	188.09
724.645	229.09
725.088	315.09
725.531	412.59
725.974	475.19
726.416	405.79
726.859	223.09
727.301	176.89
727.744	170.19
728.187	171.79
728.629	179.99
729.071	167.59
729.514	189.79
729.956	186.59
730.399	200.19
730.841	208.89
731.283	203.69
731.726	200.39
732.168	183.59
732.61	188.99
733.053	205.29
733.495	221.89
733.937	253.69
734.379	287.39
734.821	310.59
735.263	386.49
735.705	572.29
736.148	1075.49
736.59	1843.99
737.032	2309.29
737.474	1909.69
737.916	619.59
738.357	317.09
738.799	236.89
739.241	227.09
739.683	215.09
740.125	219.89
740.567	228.09
741.008	246.19
741.45	245.99
741.892	242.79
742.334	265.69
742.775	280.89
743.217	280.39
743.658	208.09
744.1	193.09
744.542	198.69
744.983	257.89
745.425	285.49
745.866	281.79
746.307	214.79
746.749	206.49
747.19	237.59
747.632	310.79
748.073	593.89
748.514	1289.09
748.956	2069.19
749.397	2619.39
749.838	2187.09
750.279	2264.39
750.72	1146.99
751.162	424.59
751.603	242.99
752.044	191.19
752.485	159.89
752.926	157.99
753.367	153.49
753.808	141.59
754.249	139.19
754.69	131.39
755.131	135.99
755.572	138.39
756.013	128.09
756.453	127.59
756.894	136.19
757.335	133.49
757.776	142.89
758.216	144.49
758.657	146.59
759.098	147.89
759.538	165.19
759.979	199.29
760.42	262.19
760.86	484.49
761.301	1254.19
761.741	3161.09
762.182	5008.19
762.622	3570.99
763.063	1015.19
763.503	411.29
763.943	243.79
764.384	206.19
764.824	184.39
765.264	177.19
765.705	156.79
766.145	140.09
766.585	125.79
767.025	125.79
767.465	111.79
767.906	128.89
768.346	145.29
768.786	148.19
769.226	156.79
769.666	217.39
770.106	415.29
770.546	1052.99
770.986	1955.89
771.426	1828.19
771.866	593.69
772.306	240.09
772.745	149.19
773.185	121.49
773.625	119.59
774.065	106.89
774.505	120.89
774.944	163.29
775.384	293.89
775.824	537.99
776.263	538.69
776.703	237.19
777.142	126.59
777.582	101.39
778.021	92.49
778.461	95.79
778.9	95.99
779.34	92.29
779.779	79.79
780.219	79.79
780.658	75.59
781.097	83.29
781.537	78.79
781.976	81.19
782.415	79.39
782.855	72.49
783.294	70.69
783.733	80.29
784.172	75.09
784.611	76.09
785.05	76.69
785.489	85.59
785.928	85.79
786.367	84.79
786.806	79.39
787.245	89.99
787.684	95.49
788.123	107.89
788.562	88.39
789.001	90.19
789.44	86.39
789.879	86.79
790.317	87.19
790.756	91.09
791.195	97.59
791.634	103.39
792.072	143.69
792.511	252.89
792.95	681.09
793.388	1559.59
793.827	1495.99
794.265	512.09
794.704	208.29
795.142	137.39
795.581	116.09
796.019	99.09
796.458	91.79
796.896	90.09
797.334	96.79
797.773	115.39
798.211	154.49
798.649	299.09
799.087	724.39
799.526	1159.09
799.964	1461.09
800.402	1554.79
800.84	581.29
801.278	231.09
801.716	134.89
802.154	115.19
802.592	106.09
803.03	94.19
803.468	95.69
803.906	103.89
804.344	111.19
804.782	102.39
805.22	99.99
805.658	96.89
806.096	106.29
806.533	114.09
806.971	126.59
807.409	161.89
807.847	229.59
808.284	460.09
808.722	1314.49
809.16	2496.99
809.597	2303.69
810.035	4049.39
810.472	4662.39
810.91	1669.99
811.347	619.09
811.785	308.19
812.222	195.09
812.66	148.89
813.097	130.99
813.535	103.09
813.972	96.99
814.409	93.79
814.846	80.09
815.284	82.89
815.721	78.59
816.158	78.69
816.595	83.79
817.032	122.39
817.47	156.89
817.907	128.19
818.344	81.49
818.781	77.19
819.218	80.59
819.655	98.59
820.092	167.89
820.529	202.89
820.966	153.89
821.403	108.49
821.839	79.59
822.276	74.69
822.713	104.79
823.15	111.39
823.587	86.89
824.023	108.49
824.46	205.79
824.897	631.19
825.333	1037.99
825.77	455.89
826.206	172.19
826.643	106.49
827.08	74.89
827.516	62.99
827.953	57.69
828.389	62.69
828.825	54.19
829.262	51.19
829.698	48.29
830.135	45.09
830.571	45.89
831.007	46.89
831.443	44.99
831.88	43.59
832.316	46.59
832.752	43.59
833.188	44.89
833.624	50.89
834.06	53.89
834.497	49.29
834.933	57.79
835.369	56.99
835.805	48.29
836.241	53.39
836.677	57.09
837.112	62.39
837.548	77.99
837.984	101.19
838.42	143.19
838.856	343.99
839.292	1099.89
839.727	1788.69
840.163	829.69
840.599	667.09
841.034	1491.19
841.47	1686.39
841.906	607.29
842.341	248.09
842.777	155.19
843.212	169.69
843.648	165.59
844.083	87.19
844.519	68.39
844.954	57.29
845.39	38.79
845.825	44.59
846.261	43.89
846.696	43.89
847.131	44.29
847.566	47.69
848.002	36.79
848.437	38.29
848.872	43.89
849.307	41.39
849.742	56.79
850.177	129.19
850.613	396.59
851.048	664.19
851.483	284.99
851.918	110.49
852.353	63.29
852.788	40.39
853.223	42.39
853.657	33.39
854.092	40.49
854.527	28.19
854.962	26.89
855.397	37.69
855.832	40.59
856.266	32.79
856.701	37.89
857.136	25.49
857.57	35.29
858.005	38.09
858.44	47.99
858.874	29.49
859.309	41.69
859.743	26.99
860.178	40.69
860.612	25.59
861.047	36.59
861.481	56.99
861.915	57.49
862.35	43.89
862.784	26.29
863.218	29.79
863.653	26.99
864.087	32.59
864.521	38.89
864.955	46.69
865.39	116.29
865.824	136.49
866.258	96.09
866.692	157.69
867.126	183.49
867.56	98.59
867.994	43.49
868.428	32.29
868.862	36.69
869.296	52.59
869.73	54.29
870.164	47.59
870.598	43.89
871.031	33.89
871.465	26.89
871.899	22.09
872.333	16.79
872.766	20.79
873.2	19.09
873.634	26.99
874.067	20.79
874.501	20.59
874.935	24.09
875.368	22.69
875.802	19.59
876.235	19.29
876.669	17.39
877.102	18.99
877.535	18.69
877.969	14.39
878.402	15.09
878.836	12.69
879.269	18.39
879.702	16.39
880.135	18.39
880.569	13.09
881.002	16.79
881.435	16.39
881.868	10.39
882.301	16.19
882.734	5.49
883.167	19.89
883.601	18.49
884.034	20.59
884.467	4.39
884.899	12.59
885.332	11.79
885.765	6.09
886.198	15.69
886.631	12.89
887.064	17.69
887.497	14.49
887.929	19.09
888.362	8.59
888.795	6.49
889.228	9.79
889.66	16.69
890.093	10.29
890.526	10.79
890.958	17.19
891.391	14.19
891.823	20.29
892.256	14.69
892.688	10.69
893.121	8.49
893.553	14.99
893.985	19.49
894.418	12.89
894.85	10.29
895.282	14.09
895.715	13.19
896.147	5.89
896.579	14.19
897.011	10.89
897.444	8.69
897.876	14.09
898.308	13.19
898.74	11.39
899.172	7.29
899.604	17.29
900.036	13.39
900.468	17.19
900.9	11.69
901.332	15.49
901.764	10.79
902.196	13.79
902.628	16.39
903.06	11.59
903.491	26.19
903.923	21.79
904.355	15.49
904.787	20.09
905.218	18.39
905.65	16.59
906.082	6.89
906.513	6.19
906.945	10.39
907.376	11.79
907.808	10.09
908.239	13.59
908.671	13.49
909.102	15.99
909.534	20.09
909.965	31.79
910.397	65.09
910.828	230.19
911.259	368.69
911.691	165.39
912.122	78.79
912.553	39.49
912.984	32.89
913.415	19.79
913.847	16.49
914.278	10.19
914.709	9.69
915.14	8.79
915.571	9.69
916.002	9.09
916.433	18.89
916.864	10.29
917.295	6.39
917.726	16.79
918.157	9.99
918.587	19.29
919.018	16.99
919.449	11.99
919.88	19.49
920.311	20.09
920.741	32.69
921.172	117.19
921.603	116.09
922.033	52.69
922.464	33.39
922.895	10.89
923.325	16.39
923.756	7.49
924.186	12.39
924.617	19.49
925.047	17.59
925.478	19.69
925.908	21.59
926.338	8.29
926.769	11.69
927.199	12.29
927.629	-4.01
928.06	10.49
928.49	13.79
928.92	10.29
929.35	12.99
929.78	15.39
930.21	5.99
930.641	6.89
931.071	9.29
931.501	9.19
931.931	5.59
932.361	5.49
932.791	2.89
933.221	1.49
933.651	-1.81
934.08	12.29
934.51	21.29
934.94	7.79
935.37	11.19
935.8	8.59
936.229	4.99
936.659	2.59
937.089	-1.01
937.519	14.99
937.948	23.49
938.378	15.19
938.807	5.19
939.237	5.99
939.666	10.59
940.096	-1.71
940.525	1.39
940.955	6.29
941.384	2.09
941.814	1.89
942.243	-2.21
942.672	6.09
943.102	1.99
943.531	2.99
943.96	4.79
944.39	1.49
944.819	-1.91
945.248	-1.21
945.677	5.29
946.106	2.59
946.535	6.59
946.964	0.19
947.393	4.09
947.822	0.39
948.251	-1.11
948.68	7.49
949.109	4.89
949.538	4.59
949.967	5.29
950.396	1.79
950.825	-0.71
951.254	2.79
951.682	-5.21
952.111	4.99
952.54	6.09
952.969	-4.31
953.397	-4.71
953.826	-2.51
954.254	-4.21
954.683	-1.51
955.112	-3.31
955.54	2.49
955.969	3.99
956.397	-0.71
956.826	-1.61
957.254	5.79
957.682	-0.71
958.111	3.89
958.539	-4.01
958.967	2.99
959.396	-7.41
959.824	-2.21
960.252	3.89
960.68	-4.41
961.109	-1.01
961.537	-1.51
961.965	-4.61
962.393	1.99
962.821	-2.61
963.249	0.79
963.677	5.59
964.105	3.09
964.533	28.49
964.961	33.29
965.389	21.09
965.817	16.29
966.245	2.39
966.672	-0.91
967.1	-8.51
967.528	4.89
967.956	0.59
968.383	6.49
968.811	0.59
969.239	-5.01
969.666	-2.41
970.094	2.09
970.522	1.09
970.949	1.29
971.377	-5.41
971.804	-1.41
972.232	-7.01
972.659	0.89
973.087	-6.21
973.514	-0.71
973.941	-3.31
974.369	4.99
974.796	0.19
975.223	0.39
975.651	0.49
976.078	5.39
976.505	2.69
976.932	-0.01
977.359	8.69
977.786	11.49
978.214	4.09
978.641	-2.41
979.068	-0.41
979.495	-2.41
979.922	-4.61
980.349	-5.71
980.776	4.59
981.202	1.19
981.629	2.99
982.056	2.09
982.483	1.79
982.91	7.49
983.337	-2.81
983.763	0.89
984.19	-4.21
984.617	-6.91
985.043	-7.71
985.47	-2.41
985.897	-5.51
986.323	-3.11
986.75	5.79
987.176	-2.11
987.603	-0.01
988.029	-2.01
988.456	-6.01
988.882	3.19
989.308	-6.91
989.735	-4.21
990.161	0.19
990.587	0.59
991.014	-0.31
991.44	2.19
991.866	-0.01
992.292	-3.91
992.719	0.49
993.145	9.69
993.571	-4.51
993.997	-2.21
994.423	-2.01
994.849	-1.71
995.275	3.09
995.701	0.49
996.127	-3.61
996.553	3.29
996.979	-2.61
997.405	2.69
997.83	-6.81
998.256	-2.31
998.682	-3.61
999.108	-5.91
999.534	4.49
999.959	-2.71
1000.385	0.59
1000.811	0.99
1001.236	-0.41
1001.662	-7.11
1002.087	-8.91
1002.513	4.79
1002.938	6.29
1003.364	-7.71
1003.789	-1.41
1004.215	6.29
1004.64	-0.31
1005.066	3.59
1005.491	2.99
1005.916	0.99
1006.342	-0.51
1006.767	-9.31
1007.192	5.59
1007.617	-8.41
1008.042	-3.71
1008.468	-7.91
1008.893	1.09
1009.318	1.19
1009.743	-5.31
1010.168	2.59
1010.593	1.89
1011.018	-1.01
1011.443	-1.61
1011.868	4.99
1012.293	-4.41
1012.718	-5.11
1013.143	-2.31
1013.567	6.89
1013.992	-3.11
1014.417	-11.21
1014.842	3.69
1015.267	-2.31
1015.691	-3.01
1016.116	7.39
1016.541	5.69
1016.965	2.49
1017.39	2.19
1017.814	-1.11
1018.239	-2.11
1018.663	-6.01
1019.088	-12.61
1019.512	0.09
1019.937	-6.21
1020.361	-0.31
1020.785	-10.71
1021.21	-2.11
1021.634	-0.21
1022.058	3.79
1022.483	7.59
1022.907	-5.21
1023.331	-3.71
1023.755	2.19
1024.179	5.29
1024.604	-3.51
1025.028	-6.41
1025.452	-8.91
1025.876	-6.81
1026.3	-0.21
1026.724	-8.71
1027.148	-1.71
1027.572	-6.21
1027.996	1.59
1028.42	1.49
1028.843	1.39
1029.267	-6.21
1029.691	-0.61
1030.115	-3.71
1030.539	-3.81
1030.962	-4.31
1031.386	-6.51
1031.81	6.69
1032.233	3.69
1032.657	1.19
1033.08	-3.21
1033.504	-0.71
1033.927	-0.41
1034.351	1.29
1034.774	-2.81
1035.198	-0.51
1035.621	-4.01
1036.045	-0.91
1036.468	6.19
1036.891	-10.51
1037.315	-5.81
1037.738	-7.11
1038.161	1.99
1038.584	-4.41
1039.008	-1.51
1039.431	2.99
1039.854	-4.51
1040.277	-3.81
1040.7	-12.71
1041.123	-0.21
1041.546	-10.21
1041.969	-4.71
1042.392	-6.11
1042.815	5.29
1043.238	0.09
1043.661	-1.41
1044.084	-3.01
1044.507	-5.31
1044.93	-6.61
1045.352	-3.51
1045.775	-1.41
1046.198	-4.31
1046.621	-0.91
1047.043	4.99
1047.466	2.29
1047.889	0.19
1048.311	-1.41
1048.734	5.49
1049.156	-1.81
1049.579	-1.91
1050.001	-2.91
1050.424	1.79
1050.846	-0.31
1051.269	2.59
1051.691	-6.81
1052.113	1.99
1052.536	6.49
1052.958	4.79
1053.38	-6.71
1053.802	-5.61
1054.225	-2.51
1054.647	-4.41
1055.069	-7.71
1055.491	3.09
1055.913	-5.61
1056.335	1.39
1056.757	-3.21
1057.179	-4.01
1057.601	-4.31
1058.023	-2.41
1058.445	-5.11
1058.867	1.99
1059.289	1.59
1059.711	-3.21
1060.133	-0.71
1060.555	-0.81
1060.976	-2.91
1061.398	-6.11
1061.82	-5.91
1062.241	-5.81
1062.663	-5.51
1063.085	-1.81
1063.506	4.79
1063.928	1.09
1064.35	1.59
1064.771	-8.81
1065.193	2.09
1065.614	-7.31
1066.035	2.89
1066.457	-1.11
1066.878	0.99
1067.3	-3.31
1067.721	-1.71
1068.142	-0.11
1068.564	-1.21
1068.985	-2.71
1069.406	-2.91
1069.827	-11.71
1070.248	0.69
1070.67	-3.11
1071.091	-8.41
1071.512	-0.51
1071.933	-3.51
1072.354	-4.51
1072.775	-1.91
1073.196	-6.01
1073.617	-4.41
1074.038	-3.51
1074.459	1.29
1074.88	-7.11
1075.3	3.69
1075.721	-3.71
1076.142	2.79
1076.563	-1.31
1076.983	-3.61
1077.404	-6.71
1077.825	-8.01
1078.246	0.19
1078.666	-9.01
1079.087	-0.51
1079.507	-5.21
1079.928	0.19
1080.348	0.99
1080.769	-1.41
1081.189	0.59
1081.61	-1.11
1082.03	-4.61
1082.451	-3.31
1082.871	-5.01
1083.291	-7.01
1083.711	-4.71
1084.132	-6.41
1084.552	-2.91
1084.972	4.49
1085.392	-3.21
1085.813	-5.51
1086.233	-3.61
1086.653	-7.81
1087.073	0.09
1087.493	-4.31
1087.913	-7.21
1088.333	-7.11
1088.753	-2.31
1089.173	11.59
1089.593	-3.71
1090.013	-1.91
1090.433	4.39
1090.852	1.99
1091.272	2.69
1091.692	0.69
1092.112	4.79
1092.531	-5.81
1092.951	-19.11
1093.371	-1.81
1093.79	3.49
1094.21	-1.91
1094.63	-1.61
1095.049	1.89
1095.469	-2.21
1095.888	-4.71
1096.308	0.59
1096.727	2.19
1097.146	-2.41
1097.566	3.79
1097.985	-4.31
1098.405	-0.41
1098.824	-4.61
1099.243	-2.71
1099.662	-6.71
1100.082	-4.71
1100.501	5.69
1100.92	-1.11
1101.339	-0.91
1101.758	-4.21
