Data from 20171114-ORNL-Ar_H_NY_Subt18_08-03-55-238.txt Node
Date: Tue Nov 14 08:03:55 EST 2017
User: Ender
Spectrometer: HR+D1039
Trigger mode: 0
Integration Time (sec): 2.730000E-2
Scans to average: 10
Electric dark correction enabled: true
Nonlinearity correction enabled: false
Boxcar width: 0
XAxis mode: Wavelengths
Number of Pixels in Spectrum: 2048
>>>>>Begin Spectral Data<<<<<
187.836	-4.43
188.309	-4.43
188.782	-4.43
189.255	-2.63
189.728	-2.92
190.201	5.47
190.674	-0.73
191.147	2.87
191.619	-7.43
192.092	-0.73
192.565	4.87
193.038	2.07
193.511	0.27
193.984	-0.53
194.456	-1.62
194.929	1.77
195.402	1.57
195.874	2.07
196.347	-0.33
196.82	-3.03
197.292	11.37
197.765	-1.02
198.237	-4.62
198.71	-0.23
199.182	-2.03
199.655	6.27
200.127	1.37
200.6	-0.03
201.072	-0.33
201.544	-8.02
202.017	-2.93
202.489	5.47
202.961	1.38
203.433	-5.13
203.906	-4.83
204.378	-5.33
204.85	-3.03
205.322	-9.03
205.794	-1.13
206.266	1.67
206.739	-5.53
207.211	10.27
207.683	-1.42
208.155	-6.83
208.627	-2.62
209.099	-1.93
209.57	-8.02
210.042	0.67
210.514	-4.92
210.986	1.17
211.458	-4.93
211.93	-2.83
212.402	0.27
212.873	-6.03
213.345	-5.62
213.817	-9.43
214.288	2.17
214.76	-11.43
215.232	-0.92
215.703	-3.52
216.175	2.07
216.646	-3.52
217.118	-13.73
217.589	-6.12
218.061	-1.33
218.532	-0.52
219.004	-3.43
219.475	-2.12
219.946	-4.93
220.418	-0.92
220.889	4.38
221.36	3.38
221.832	0.87
222.303	-8.23
222.774	-3.23
223.245	-7.23
223.717	-4.03
224.188	-4.12
224.659	-6.33
225.13	-8.23
225.601	-4.23
226.072	-3.02
226.543	-3.73
227.014	1.67
227.485	-0.43
227.956	-7.52
228.427	-2.12
228.898	2.88
229.369	2.37
229.839	-7.83
230.31	-6.23
230.781	0.97
231.252	-0.43
231.722	-7.83
232.193	-6.83
232.664	-3.73
233.135	-3.13
233.605	0.77
234.076	-11.63
234.546	-0.93
235.017	-2.93
235.487	2.88
235.958	-7.93
236.428	-4.53
236.899	-5.02
237.369	1.67
237.84	-1.53
238.31	-2.73
238.78	-3.83
239.251	-4.33
239.721	1.27
240.191	-4.73
240.662	-6.42
241.132	3.17
241.602	-2.83
242.072	-3.03
242.542	4.98
243.013	-3.73
243.483	4.07
243.953	8.38
244.423	-2.12
244.893	-2.63
245.363	2.57
245.833	-1.12
246.303	-7.53
246.773	2.67
247.243	-5.13
247.712	1.67
248.182	2.27
248.652	5.47
249.122	-5.63
249.592	2.47
250.061	7.47
250.531	15.88
251.001	2.27
251.471	1.77
251.94	4.17
252.41	-1.42
252.879	-2.83
253.349	13.87
253.818	7.17
254.288	-1.23
254.757	-0.12
255.227	-6.02
255.696	-2.13
256.166	1.08
256.635	1.67
257.105	1.67
257.574	0.97
258.043	-1.92
258.513	-3.13
258.982	1.27
259.451	-4.73
259.92	1.88
260.389	4.17
260.859	6.27
261.328	5.67
261.797	10.67
262.266	-1.23
262.735	13.58
263.204	0.27
263.673	-5.03
264.142	1.48
264.611	-2.53
265.08	1.17
265.549	2.08
266.018	5.08
266.487	-4.33
266.955	0.47
267.424	2.48
267.893	2.98
268.362	-2.23
268.83	2.47
269.299	3.77
269.768	0.27
270.236	7.27
270.705	-1.33
271.174	1.27
271.642	3.97
272.111	2.07
272.579	2.87
273.048	-1.73
273.516	0.48
273.985	4.38
274.453	1.67
274.922	7.07
275.39	8.07
275.858	-6.53
276.327	1.88
276.795	12.07
277.263	3.87
277.731	8.87
278.2	2.07
278.668	6.77
279.136	4.88
279.604	4.57
280.072	12.57
280.54	6.98
281.008	1.37
281.477	7.27
281.945	1.77
282.413	10.47
282.881	7.67
283.348	-0.12
283.816	9.87
284.284	9.37
284.752	11.67
285.22	4.77
285.688	6.67
286.156	12.07
286.623	10.57
287.091	7.17
287.559	11.67
288.026	9.88
288.494	9.57
288.962	6.97
289.429	2.27
289.897	11.88
290.364	6.47
290.832	16.77
291.3	9.77
291.767	7.38
292.234	8.97
292.702	7.98
293.169	6.58
293.637	14.07
294.104	10.88
294.571	2.67
295.039	4.07
295.506	12.67
295.973	10.17
296.44	7.88
296.908	9.98
297.375	13.57
297.842	20.97
298.309	13.38
298.776	9.48
299.243	15.67
299.71	11.37
300.177	11.57
300.644	14.17
301.111	8.67
301.578	16.57
302.045	4.67
302.512	17.67
302.979	17.07
303.446	12.57
303.913	13.08
304.379	6.77
304.846	14.38
305.313	15.88
305.78	12.27
306.246	14.97
306.713	15.77
307.18	19.58
307.646	20.87
308.113	18.77
308.579	16.97
309.046	18.27
309.512	19.38
309.979	12.37
310.445	19.67
310.912	20.77
311.378	25.17
311.845	22.88
312.311	28.67
312.777	21.87
313.244	20.27
313.71	29.77
314.176	27.77
314.642	10.67
315.109	22.88
315.575	24.27
316.041	34.27
316.507	15.27
316.973	21.47
317.439	29.27
317.905	27.17
318.371	28.27
318.837	25.58
319.303	32.07
319.769	26.08
320.235	22.97
320.701	20.57
321.167	27.97
321.633	20.08
322.099	24.07
322.564	26.77
323.03	30.87
323.496	24.88
323.962	25.58
324.427	30.67
324.893	29.97
325.359	28.27
325.824	30.97
326.29	24.37
326.755	32.07
327.221	28.57
327.686	31.17
328.152	36.58
328.617	33.38
329.083	37.67
329.548	43.07
330.014	36.07
330.479	37.77
330.944	31.97
331.41	32.87
331.875	32.08
332.34	34.07
332.805	35.87
333.271	33.17
333.736	35.07
334.201	37.17
334.666	45.17
335.131	47.17
335.596	47.57
336.061	47.47
336.526	32.97
336.991	39.98
337.456	43.67
337.921	43.97
338.386	34.88
338.851	37.57
339.316	43.67
339.781	32.38
340.246	45.27
340.711	39.17
341.175	38.67
341.64	38.07
342.105	41.67
342.569	47.67
343.034	48.87
343.499	48.97
343.963	43.38
344.428	50.38
344.893	51.67
345.357	49.77
345.822	47.57
346.286	56.47
346.751	54.88
347.215	55.67
347.679	60.17
348.144	71.87
348.608	66.77
349.073	53.67
349.537	63.88
350.001	61.67
350.465	68.98
350.93	65.07
351.394	68.77
351.858	61.88
352.322	75.77
352.786	65.77
353.25	79.27
353.715	89.77
354.179	85.07
354.643	99.67
355.107	98.88
355.571	81.17
356.035	82.17
356.498	90.97
356.962	93.67
357.426	100.77
357.89	87.88
358.354	77.07
358.818	70.88
359.281	66.77
359.745	64.27
360.209	63.17
360.673	65.67
361.136	70.48
361.6	73.07
362.064	80.17
362.527	69.97
362.991	81.27
363.454	71.88
363.918	68.88
364.381	67.37
364.845	73.77
365.308	78.47
365.772	75.87
366.235	76.47
366.698	72.77
367.162	78.07
367.625	77.67
368.088	75.97
368.552	82.17
369.015	80.07
369.478	88.77
369.941	90.27
370.404	78.07
370.867	88.67
371.331	94.47
371.794	92.47
372.257	87.07
372.72	96.57
373.183	89.67
373.646	89.88
374.109	82.88
374.572	91.37
375.035	90.57
375.497	89.77
375.96	96.07
376.423	93.67
376.886	100.08
377.349	101.07
377.811	94.17
378.274	101.48
378.737	98.97
379.199	100.88
379.662	99.47
380.125	102.67
380.587	98.98
381.05	98.67
381.512	106.47
381.975	108.67
382.437	109.77
382.9	112.37
383.362	114.67
383.825	120.38
384.287	118.07
384.75	110.47
385.212	112.67
385.674	121.37
386.136	117.48
386.599	113.17
387.061	118.48
387.523	111.77
387.985	120.17
388.447	122.87
388.91	120.17
389.372	120.08
389.834	122.57
390.296	116.47
390.758	121.07
391.22	128.88
391.682	135.57
392.144	138.27
392.606	133.27
393.068	127.48
393.529	144.17
393.991	131.67
394.453	118.77
394.915	126.37
395.377	125.77
395.838	124.87
396.3	125.07
396.762	131.48
397.224	120.67
397.685	123.37
398.147	129.88
398.608	125.38
399.07	129.98
399.531	132.48
399.993	135.17
400.454	145.17
400.916	141.17
401.377	143.17
401.839	141.17
402.3	144.87
402.762	159.17
403.223	175.07
403.684	161.17
404.145	158.47
404.607	158.17
405.068	152.57
405.529	157.67
405.99	171.57
406.451	161.07
406.913	167.07
407.374	153.97
407.835	158.17
408.296	161.67
408.757	167.47
409.218	170.97
409.679	168.88
410.14	169.08
410.601	165.47
411.062	174.57
411.522	171.77
411.983	166.17
412.444	170.27
412.905	181.38
413.366	181.77
413.826	195.38
414.287	215.87
414.748	266.27
415.208	247.88
415.669	210.77
416.13	205.67
416.59	203.27
417.051	213.38
417.511	216.57
417.972	239.08
418.432	253.98
418.893	294.98
419.353	255.97
419.814	201.57
420.274	178.77
420.734	186.27
421.195	187.87
421.655	184.67
422.115	184.97
422.576	195.38
423.036	197.88
423.496	205.27
423.956	214.28
424.416	229.67
424.876	262.17
425.336	254.38
425.797	254.88
426.257	252.17
426.717	228.38
427.177	225.27
427.637	217.77
428.097	226.97
428.556	237.27
429.016	260.17
429.476	248.17
429.936	255.88
430.396	262.27
430.856	259.77
431.315	286.88
431.775	320.77
432.235	348.37
432.694	334.47
433.154	329.68
433.614	347.47
434.073	303.88
434.533	264.17
434.993	244.77
435.452	266.87
435.912	264.57
436.371	254.08
436.83	251.47
437.29	243.77
437.749	224.77
438.209	228.67
438.668	253.48
439.127	263.77
439.587	237.88
440.046	229.87
440.505	245.88
440.964	244.17
441.424	274.67
441.883	262.67
442.342	242.67
442.801	219.48
443.26	219.87
443.719	217.18
444.178	210.67
444.637	208.78
445.096	212.27
445.555	218.27
446.014	220.38
446.473	224.68
446.932	218.27
447.391	220.67
447.849	226.08
448.308	216.98
448.767	221.58
449.226	231.88
449.685	238.07
450.143	245.37
450.602	221.77
451.061	222.37
451.519	225.78
451.978	217.17
452.436	224.48
452.895	231.67
453.353	225.17
453.812	226.08
454.27	231.77
454.729	233.67
455.187	230.98
455.646	234.58
456.104	232.57
456.562	253.97
457.021	246.37
457.479	246.27
457.937	253.27
458.395	249.67
458.854	235.77
459.312	238.68
459.77	255.37
460.228	238.07
460.686	239.27
461.144	247.57
461.602	233.27
462.06	235.97
462.518	252.67
462.976	248.47
463.434	252.07
463.892	255.77
464.35	258.67
464.808	267.87
465.266	251.98
465.724	265.67
466.181	266.18
466.639	253.57
467.097	280.77
467.555	285.57
468.012	286.48
468.47	296.48
468.928	305.07
469.385	321.97
469.843	324.17
470.3	324.58
470.758	326.68
471.215	340.57
471.673	366.17
472.13	362.38
472.588	383.27
473.045	361.67
473.503	360.58
473.96	360.67
474.417	376.87
474.875	397.07
475.332	434.68
475.789	420.97
476.246	432.47
476.704	436.17
477.161	456.68
477.618	476.27
478.075	508.58
478.532	541.87
478.989	606.87
479.446	684.08
479.903	676.28
480.36	712.87
480.817	749.97
481.274	822.48
481.731	904.08
482.188	976.98
482.645	1105.47
483.102	1175.67
483.558	1282.98
484.015	1331.38
484.472	1313.67
484.929	1281.37
485.385	1247.78
485.842	1211.28
486.299	1168.77
486.755	1098.77
487.212	950.17
487.668	838.47
488.125	751.87
488.582	695.88
489.038	671.17
489.494	643.97
489.951	632.37
490.407	616.47
490.864	596.38
491.32	594.37
491.776	581.87
492.233	590.17
492.689	557.57
493.145	555.27
493.602	553.67
494.058	556.27
494.514	555.17
494.97	569.28
495.426	576.37
495.882	572.68
496.338	550.68
496.794	561.77
497.251	550.37
497.707	568.08
498.163	571.27
498.618	579.27
499.074	572.07
499.53	592.67
499.986	590.77
500.442	577.58
500.898	562.17
501.354	556.17
501.809	569.38
502.265	569.68
502.721	568.47
503.177	578.58
503.632	583.57
504.088	582.08
504.543	598.08
504.999	626.98
505.455	586.17
505.91	571.68
506.366	574.57
506.821	583.97
507.277	567.97
507.732	573.17
508.187	574.98
508.643	584.48
509.098	580.37
509.553	606.07
510.009	603.67
510.464	601.48
510.919	615.48
511.375	627.08
511.83	633.07
512.285	649.17
512.74	681.98
513.195	687.77
513.65	675.28
514.105	682.57
514.56	673.38
515.015	700.47
515.47	698.57
515.925	700.08
516.38	697.57
516.835	703.87
517.29	699.28
517.745	695.47
518.2	689.17
518.655	673.88
519.109	663.78
519.564	657.97
520.019	652.27
520.474	641.97
520.928	648.27
521.383	631.17
521.838	622.37
522.292	635.57
522.747	627.37
523.201	624.67
523.656	622.48
524.11	617.78
524.565	607.57
525.019	606.77
525.474	618.98
525.928	612.97
526.382	618.48
526.837	615.98
527.291	616.27
527.745	609.57
528.2	610.27
528.654	601.37
529.108	600.48
529.562	599.57
530.016	607.97
530.47	601.07
530.925	599.87
531.379	604.87
531.833	610.17
532.287	609.47
532.741	597.78
533.195	611.97
533.649	616.27
534.103	617.37
534.556	613.47
535.01	605.38
535.464	603.98
535.918	614.17
536.372	614.38
536.826	608.17
537.279	603.77
537.733	610.57
538.187	601.87
538.64	615.07
539.094	623.57
539.548	623.38
540.001	610.27
540.455	615.07
540.908	628.67
541.362	631.48
541.815	646.37
542.269	651.97
542.722	642.87
543.175	661.27
543.629	652.97
544.082	665.77
544.536	664.18
544.989	668.47
545.442	680.67
545.895	674.97
546.349	677.67
546.802	676.77
547.255	677.57
547.708	692.07
548.161	700.38
548.614	702.17
549.067	704.87
549.52	697.57
549.973	689.87
550.426	676.17
550.879	666.07
551.332	666.58
551.785	676.67
552.238	679.17
552.691	688.38
553.144	699.27
553.596	708.97
554.049	717.57
554.502	753.17
554.955	761.47
555.407	758.07
555.86	749.37
556.313	746.57
556.765	735.17
557.218	734.47
557.67	727.27
558.123	724.67
558.576	723.87
559.028	733.58
559.48	723.38
559.933	724.48
560.385	699.67
560.838	670.07
561.29	659.87
561.742	649.97
562.195	638.48
562.647	633.38
563.099	643.77
563.551	632.77
564.004	645.57
564.456	630.97
564.908	630.57
565.36	614.17
565.812	608.27
566.264	590.58
566.716	587.97
567.168	570.67
567.62	580.58
568.072	564.27
568.524	557.47
568.976	562.47
569.428	549.98
569.88	557.57
570.332	560.38
570.784	552.88
571.235	559.38
571.687	561.07
572.139	571.67
572.59	574.17
573.042	571.77
573.494	579.88
573.945	568.07
574.397	549.77
574.849	554.07
575.3	553.98
575.752	547.87
576.203	543.88
576.655	556.77
577.106	540.57
577.557	532.88
578.009	545.47
578.46	539.88
578.912	534.38
579.363	532.77
579.814	535.38
580.265	529.17
580.717	519.57
581.168	533.07
581.619	541.67
582.07	539.08
582.521	530.07
582.972	526.47
583.423	521.38
583.875	536.48
584.326	536.77
584.777	548.47
585.227	570.67
585.678	575.87
586.129	586.67
586.58	614.28
587.031	628.98
587.482	651.07
587.933	682.87
588.384	648.97
588.834	627.68
589.285	611.97
589.736	615.87
590.186	606.38
590.637	604.07
591.088	594.78
591.538	578.27
591.989	577.27
592.439	560.67
592.89	547.57
593.34	553.17
593.791	543.47
594.241	539.88
594.692	548.57
595.142	538.68
595.593	535.07
596.043	550.58
596.493	549.27
596.943	549.28
597.394	559.98
597.844	552.68
598.294	566.67
598.744	592.37
599.195	605.48
599.645	635.27
600.095	663.27
600.545	708.67
600.995	746.67
601.445	783.27
601.895	825.78
602.345	874.18
602.795	858.98
603.245	830.27
603.695	783.67
604.145	744.18
604.594	708.78
605.044	668.07
605.494	621.47
605.944	586.27
606.393	563.77
606.843	556.48
607.293	553.88
607.743	555.68
608.192	561.07
608.642	564.57
609.091	562.28
609.541	575.87
609.99	576.58
610.44	568.08
610.889	544.08
611.339	529.97
611.788	512.08
612.238	525.17
612.687	529.77
613.136	521.57
613.586	524.27
614.035	513.58
614.484	535.37
614.933	536.07
615.383	539.57
615.832	521.38
616.281	520.17
616.73	505.48
617.179	492.17
617.628	475.67
618.077	474.87
618.526	472.97
618.975	466.58
619.424	461.57
619.873	452.67
620.322	459.27
620.771	454.57
621.22	449.38
621.669	437.88
622.118	437.17
622.567	428.97
623.015	413.37
623.464	426.87
623.913	415.88
624.361	409.88
624.81	403.48
625.259	415.17
625.707	410.88
626.156	418.87
626.604	431.27
627.053	415.88
627.501	413.88
627.95	425.67
628.398	426.17
628.847	419.28
629.295	416.98
629.744	427.17
630.192	422.97
630.64	426.07
631.089	400.67
631.537	399.68
631.985	382.07
632.433	389.87
632.881	386.28
633.33	384.17
633.778	373.37
634.226	378.17
634.674	388.17
635.122	390.77
635.57	399.07
636.018	410.27
636.466	406.68
636.914	406.07
637.362	421.17
637.81	425.67
638.258	422.47
638.705	426.17
639.153	442.57
639.601	452.98
640.049	463.97
640.497	495.77
640.944	511.47
641.392	468.17
641.84	451.47
642.287	425.37
642.735	406.47
643.182	408.88
643.63	400.37
644.078	399.28
644.525	425.88
644.973	419.27
645.42	427.88
645.867	443.98
646.315	458.38
646.762	483.28
647.21	492.08
647.657	497.77
648.104	523.07
648.551	538.98
648.999	575.07
649.446	625.37
649.893	683.47
650.34	772.67
650.787	914.57
651.234	1121.47
651.682	1422.28
652.129	1912.38
652.576	2698.18
653.023	3940.07
653.47	5457.87
653.917	6912.37
654.363	8090.07
654.81	9179.88
655.257	8742.78
655.704	5790.57
656.151	3438.37
656.598	2235.18
657.044	1608.38
657.491	1246.17
657.938	981.38
658.385	848.17
658.831	735.47
659.278	657.37
659.724	595.08
660.171	542.27
660.618	496.77
661.064	474.67
661.511	453.27
661.957	442.08
662.404	432.87
662.85	441.97
663.296	424.87
663.743	398.07
664.189	377.47
664.635	384.17
665.082	370.17
665.528	367.67
665.974	358.87
666.42	360.17
666.867	353.67
667.313	338.18
667.759	330.27
668.205	322.47
668.651	322.58
669.097	308.07
669.543	310.67
669.989	313.98
670.435	316.47
670.881	315.88
671.327	323.87
671.773	336.07
672.219	349.47
672.665	387.88
673.11	418.57
673.556	454.87
674.002	492.07
674.448	477.97
674.893	396.18
675.339	350.38
675.785	318.07
676.23	293.47
676.676	277.87
677.122	273.88
677.567	263.37
678.013	266.17
678.458	254.68
678.904	262.17
679.349	249.18
679.794	250.77
680.24	253.38
680.685	248.67
681.131	248.98
681.576	248.47
682.021	253.87
682.466	250.58
682.912	244.47
683.357	247.18
683.802	273.78
684.247	285.38
684.692	315.17
685.137	346.67
685.583	379.87
686.028	408.97
686.473	380.67
686.918	316.57
687.363	300.77
687.807	278.27
688.252	253.77
688.697	252.47
689.142	245.37
689.587	238.77
690.032	231.57
690.477	238.97
690.921	238.67
691.366	264.87
691.811	280.97
692.255	305.18
692.7	325.27
693.145	349.17
693.589	473.17
694.034	766.77
694.478	1086.88
694.923	1269.77
695.367	1703.67
695.812	890.38
696.256	366.77
696.701	265.77
697.145	242.68
697.59	236.07
698.034	225.77
698.478	228.28
698.922	230.78
699.367	225.37
699.811	232.77
700.255	249.17
700.699	271.48
701.143	290.97
701.588	330.88
702.032	371.18
702.476	368.58
702.92	350.67
703.364	350.38
703.808	437.57
704.252	716.48
704.696	1021.08
705.14	1225.88
705.584	1594.27
706.027	787.27
706.471	371.88
706.915	286.67
707.359	249.07
707.803	226.77
708.246	221.47
708.69	218.47
709.134	223.27
709.577	218.37
710.021	223.17
710.465	216.38
710.908	211.57
711.352	213.48
711.795	221.27
712.239	246.48
712.682	271.67
713.126	295.07
713.569	325.48
714.012	256.48
714.456	217.08
714.899	210.18
715.342	191.97
715.786	185.98
716.229	183.38
716.672	189.57
717.115	177.38
717.558	177.08
718.002	182.47
718.445	183.67
718.888	198.27
719.331	204.88
719.774	219.27
720.217	211.87
720.66	202.67
721.103	188.57
721.546	175.48
721.989	172.27
722.432	161.17
722.874	170.97
723.317	160.77
723.76	159.27
724.203	181.57
724.645	214.98
725.088	300.17
725.531	399.47
725.974	463.77
726.416	395.88
726.859	218.77
727.301	169.57
727.744	158.77
728.187	164.48
728.629	164.17
729.071	175.57
729.514	179.07
729.956	183.97
730.399	199.48
730.841	209.38
731.283	197.08
731.726	190.08
732.168	186.77
732.61	184.27
733.053	200.88
733.495	219.17
733.937	243.67
734.379	277.57
734.821	302.87
735.263	372.27
735.705	564.57
736.148	1076.38
736.59	1828.88
737.032	2290.07
737.474	1874.28
737.916	587.48
738.357	310.77
738.799	230.77
739.241	204.27
739.683	204.38
740.125	206.48
740.567	210.07
741.008	228.77
741.45	219.68
741.892	222.07
742.334	252.78
742.775	264.47
743.217	254.57
743.658	193.77
744.1	182.27
744.542	186.98
744.983	228.57
745.425	261.97
745.866	260.87
746.307	205.18
746.749	196.57
747.19	223.58
747.632	303.88
748.073	580.27
748.514	1268.68
748.956	2061.37
749.397	2587.67
749.838	2145.98
750.279	2219.58
750.72	1129.17
751.162	405.48
751.603	235.17
752.044	184.57
752.485	153.27
752.926	143.97
753.367	143.07
753.808	139.27
754.249	126.67
754.69	129.67
755.131	125.07
755.572	127.77
756.013	123.47
756.453	126.27
756.894	126.58
757.335	128.67
757.776	136.77
758.216	136.37
758.657	136.27
759.098	142.57
759.538	159.27
759.979	192.07
760.42	255.57
760.86	481.77
761.301	1244.78
761.741	3128.77
762.182	4951.67
762.622	3534.18
763.063	987.97
763.503	388.67
763.943	236.08
764.384	198.88
764.824	184.67
765.264	173.77
765.705	154.57
766.145	127.47
766.585	124.87
767.025	116.17
767.465	114.27
767.906	129.88
768.346	137.77
768.786	142.57
769.226	150.27
769.666	211.77
770.106	408.97
770.546	1044.67
770.986	1941.47
771.426	1798.68
771.866	587.67
772.306	235.48
772.745	152.67
773.185	113.47
773.625	108.47
774.065	106.07
774.505	118.07
774.944	143.57
775.384	255.88
775.824	463.17
776.263	457.27
776.703	210.67
777.142	111.57
777.582	94.67
778.021	81.88
778.461	85.38
778.9	88.27
779.34	91.17
779.779	76.67
780.219	80.27
780.658	71.88
781.097	76.88
781.537	80.67
781.976	77.17
782.415	74.17
782.855	64.88
783.294	69.27
783.733	66.97
784.172	78.17
784.611	74.37
785.05	75.27
785.489	78.98
785.928	82.88
786.367	83.88
786.806	73.47
787.245	92.47
787.684	93.37
788.123	111.67
788.562	91.07
789.001	90.27
789.44	80.27
789.879	76.97
790.317	78.97
790.756	90.17
791.195	83.48
791.634	93.27
792.072	138.08
792.511	245.38
792.95	678.08
793.388	1545.97
793.827	1464.48
794.265	491.17
794.704	200.07
795.142	137.58
795.581	108.67
796.019	95.57
796.458	85.77
796.896	88.38
797.334	93.97
797.773	109.57
798.211	151.67
798.649	296.27
799.087	724.38
799.526	1148.17
799.964	1449.98
800.402	1527.57
800.84	562.57
801.278	213.57
801.716	136.17
802.154	113.57
802.592	107.17
803.03	96.58
803.468	88.88
803.906	102.48
804.344	109.98
804.782	98.07
805.22	98.97
805.658	85.97
806.096	105.88
806.533	110.97
806.971	122.17
807.409	149.67
807.847	218.88
808.284	448.77
808.722	1306.67
809.16	2475.98
809.597	2265.98
810.035	4036.77
810.472	4602.57
810.91	1632.47
811.347	600.17
811.785	300.08
812.222	175.67
812.66	146.88
813.097	115.07
813.535	106.37
813.972	94.38
814.409	87.38
814.846	73.67
815.284	80.57
815.721	69.27
816.158	77.58
816.595	71.17
817.032	118.37
817.47	140.87
817.907	111.48
818.344	77.17
818.781	72.27
819.218	64.07
819.655	91.58
820.092	146.37
820.529	167.97
820.966	131.58
821.403	97.97
821.839	65.57
822.276	71.77
822.713	96.57
823.15	104.08
823.587	88.27
824.023	100.87
824.46	200.78
824.897	625.48
825.333	1025.97
825.77	440.57
826.206	170.77
826.643	93.57
827.08	74.27
827.516	61.98
827.953	48.67
828.389	59.27
828.825	46.77
829.262	47.67
829.698	44.97
830.135	43.98
830.571	44.97
831.007	43.77
831.443	51.47
831.88	47.48
832.316	45.77
832.752	43.88
833.188	43.48
833.624	41.58
834.06	47.88
834.497	45.47
834.933	52.67
835.369	54.47
835.805	45.67
836.241	49.87
836.677	52.48
837.112	63.97
837.548	71.47
837.984	99.17
838.42	137.67
838.856	345.17
839.292	1088.67
839.727	1770.28
840.163	813.08
840.599	660.57
841.034	1507.37
841.47	1663.77
841.906	596.47
842.341	242.07
842.777	147.58
843.212	157.17
843.648	148.47
844.083	76.27
844.519	55.98
844.954	53.38
845.39	33.17
845.825	40.17
846.261	39.77
846.696	37.17
847.131	34.27
847.566	41.77
848.002	35.27
848.437	39.57
848.872	43.57
849.307	36.98
849.742	59.67
850.177	116.77
850.613	399.58
851.048	665.97
851.483	284.97
851.918	109.67
852.353	58.97
852.788	34.77
853.223	30.37
853.657	37.07
854.092	33.38
854.527	28.67
854.962	29.67
855.397	34.38
855.832	33.88
856.266	30.58
856.701	28.98
857.136	26.38
857.57	26.77
858.005	35.38
858.44	51.17
858.874	25.38
859.309	36.88
859.743	26.37
860.178	40.97
860.612	27.07
861.047	41.37
861.481	52.57
861.915	54.88
862.35	40.27
862.784	24.67
863.218	31.88
863.653	25.37
864.087	36.27
864.521	38.17
864.955	45.77
865.39	104.57
865.824	128.27
866.258	85.77
866.692	135.57
867.126	148.37
867.56	90.67
867.994	42.27
868.428	28.57
868.862	35.58
869.296	43.77
869.73	42.37
870.164	43.57
870.598	45.08
871.031	25.47
871.465	17.57
871.899	22.67
872.333	16.88
872.766	15.77
873.2	19.17
873.634	26.67
874.067	19.77
874.501	21.47
874.935	26.77
875.368	19.57
875.802	21.67
876.235	18.47
876.669	19.27
877.102	19.77
877.535	19.48
877.969	13.07
878.402	15.57
878.836	12.77
879.269	21.88
879.702	17.17
880.135	18.27
880.569	17.07
881.002	22.58
881.435	9.37
881.868	8.47
882.301	13.77
882.734	13.87
883.167	11.67
883.601	13.27
884.034	18.07
884.467	7.77
884.899	15.88
885.332	12.98
885.765	13.58
886.198	9.67
886.631	7.97
887.064	15.57
887.497	12.47
887.929	15.57
888.362	10.07
888.795	6.97
889.228	6.67
889.66	13.97
890.093	10.77
890.526	14.07
890.958	7.48
891.391	13.67
891.823	15.57
892.256	8.97
892.688	8.77
893.121	11.98
893.553	7.47
893.985	16.57
894.418	16.97
894.85	4.88
895.282	9.47
895.715	13.77
896.147	9.67
896.579	4.87
897.011	5.48
897.444	11.48
897.876	13.67
898.308	13.77
898.74	13.98
899.172	11.17
899.604	17.77
900.036	11.87
900.468	10.27
900.9	9.37
901.332	17.77
901.764	5.67
902.196	10.08
902.628	8.27
903.06	9.37
903.491	18.97
903.923	16.88
904.355	15.17
904.787	20.97
905.218	17.27
905.65	18.97
906.082	5.67
906.513	6.17
906.945	9.27
907.376	4.37
907.808	12.57
908.239	15.58
908.671	15.27
909.102	12.77
909.534	11.58
909.965	29.27
910.397	65.47
910.828	236.98
911.259	366.08
911.691	160.47
912.122	80.17
912.553	41.88
912.984	26.67
913.415	21.27
913.847	17.07
914.278	8.17
914.709	9.67
915.14	16.08
915.571	12.97
916.002	10.57
916.433	16.58
916.864	11.17
917.295	11.37
917.726	13.57
918.157	11.77
918.587	22.77
919.018	14.98
919.449	13.98
919.88	20.17
920.311	25.67
920.741	31.17
921.172	121.77
921.603	108.97
922.033	48.77
922.464	35.77
922.895	14.17
923.325	18.07
923.756	9.57
924.186	6.67
924.617	15.77
925.047	8.98
925.478	16.88
925.908	13.47
926.338	11.98
926.769	9.27
927.199	15.27
927.629	5.17
928.06	12.47
928.49	9.48
928.92	10.47
929.35	11.77
929.78	7.97
930.21	6.27
930.641	3.17
931.071	7.77
931.501	3.57
931.931	7.67
932.361	3.48
932.791	-3.73
933.221	2.07
933.651	3.38
934.08	10.07
934.51	21.07
934.94	3.07
935.37	3.77
935.8	11.27
936.229	8.47
936.659	6.27
937.089	0.27
937.519	8.88
937.948	22.57
938.378	18.17
938.807	4.67
939.237	0.77
939.666	10.27
940.096	0.17
940.525	-1.63
940.955	5.98
941.384	-0.12
941.814	-9.83
942.243	-3.23
942.672	6.67
943.102	0.67
943.531	0.17
943.96	6.77
944.39	2.67
944.819	4.87
945.248	-1.93
945.677	-1.12
946.106	9.67
946.535	7.27
946.964	-0.43
947.393	3.47
947.822	2.48
948.251	-2.63
948.68	0.88
949.109	0.77
949.538	3.38
949.967	0.67
950.396	2.27
950.825	0.67
951.254	-2.83
951.682	-5.33
952.111	3.98
952.54	4.48
952.969	-6.23
953.397	-4.53
953.826	-2.63
954.254	-3.53
954.683	-3.23
955.112	-2.33
955.54	-1.83
955.969	3.57
956.397	1.67
956.826	-4.93
957.254	3.08
957.682	-0.23
958.111	5.37
958.539	-1.02
958.967	0.98
959.396	-5.73
959.824	-2.92
960.252	-1.53
960.68	-10.83
961.109	1.67
961.537	-6.83
961.965	-3.93
962.393	-4.12
962.821	-9.02
963.249	1.87
963.677	3.67
964.105	9.27
964.533	37.58
964.961	36.37
965.389	12.48
965.817	8.87
966.245	-0.73
966.672	-0.02
967.1	-13.02
967.528	-2.93
967.956	-0.02
968.383	1.37
968.811	-0.23
969.239	-1.73
969.666	-0.33
970.094	1.88
970.522	5.47
970.949	-4.33
971.377	-1.83
971.804	-2.83
972.232	-6.93
972.659	0.17
973.087	-3.43
973.514	-4.93
973.941	-9.12
974.369	5.07
974.796	-0.33
975.223	0.67
975.651	-1.33
976.078	5.77
976.505	4.27
976.932	1.97
977.359	8.57
977.786	7.97
978.214	-0.23
978.641	-6.13
979.068	-4.73
979.495	-5.33
979.922	3.97
980.349	4.67
980.776	2.57
981.202	-5.23
981.629	1.07
982.056	8.47
982.483	-2.73
982.91	-1.52
983.337	-7.03
983.763	5.67
984.19	-4.53
984.617	-5.43
985.043	-8.03
985.47	-3.73
985.897	-0.93
986.323	-4.13
986.75	3.48
987.176	1.37
987.603	-3.63
988.029	0.97
988.456	-4.83
988.882	2.17
989.308	-5.73
989.735	-4.63
990.161	1.97
990.587	0.17
991.014	-1.12
991.44	1.77
991.866	1.58
992.292	-5.42
992.719	-2.23
993.145	1.98
993.571	-8.83
993.997	-7.53
994.423	-2.53
994.849	-5.83
995.275	-0.42
995.701	-2.43
996.127	-0.43
996.553	-0.73
996.979	-3.02
997.405	-3.92
997.83	-4.93
998.256	-9.93
998.682	-8.52
999.108	-6.93
999.534	-1.33
999.959	4.57
1000.385	-1.53
1000.811	-2.93
1001.236	-8.33
1001.662	-7.93
1002.087	-8.42
1002.513	-4.03
1002.938	-0.12
1003.364	-0.83
1003.789	3.67
1004.215	2.77
1004.64	-3.83
1005.066	1.17
1005.491	1.58
1005.916	-0.43
1006.342	-0.42
1006.767	-7.52
1007.192	1.27
1007.617	-2.43
1008.042	-1.62
1008.468	-0.43
1008.893	-3.33
1009.318	1.88
1009.743	-1.83
1010.168	3.47
1010.593	-1.53
1011.018	-11.33
1011.443	-1.53
1011.868	-0.33
1012.293	-5.12
1012.718	-5.23
1013.143	-6.43
1013.567	4.17
1013.992	2.57
1014.417	-8.43
1014.842	3.77
1015.267	-6.73
1015.691	-2.23
1016.116	-2.63
1016.541	-4.83
1016.965	0.27
1017.39	4.17
1017.814	-1.62
1018.239	4.37
1018.663	-9.43
1019.088	-15.03
1019.512	1.07
1019.937	3.27
1020.361	-2.12
1020.785	-10.43
1021.21	-1.53
1021.634	-0.83
1022.058	0.17
1022.483	8.88
1022.907	-1.63
1023.331	-0.33
1023.755	-7.63
1024.179	-2.62
1024.604	-4.83
1025.028	-6.93
1025.452	-8.83
1025.876	-1.03
1026.3	10.47
1026.724	-4.43
1027.148	-5.12
1027.572	-7.93
1027.996	0.77
1028.42	0.47
1028.843	-7.33
1029.267	-1.93
1029.691	-3.43
1030.115	-12.43
1030.539	-7.83
1030.962	-4.63
1031.386	-6.12
1031.81	2.67
1032.233	-4.83
1032.657	-7.83
1033.08	-6.33
1033.504	-0.33
1033.927	-0.02
1034.351	0.27
1034.774	-5.12
1035.198	-3.53
1035.621	-10.83
1036.045	-9.73
1036.468	-0.13
1036.891	-7.23
1037.315	-7.13
1037.738	-12.02
1038.161	1.07
1038.584	-8.12
1039.008	-7.12
1039.431	-4.43
1039.854	-0.83
1040.277	-10.12
1040.7	-5.62
1041.123	0.07
1041.546	-5.23
1041.969	-1.02
1042.392	-5.53
1042.815	-0.83
1043.238	-1.83
1043.661	8.27
1044.084	-3.73
1044.507	-4.43
1044.93	-5.33
1045.352	-7.13
1045.775	-0.73
1046.198	2.98
1046.621	-2.83
1047.043	-1.02
1047.466	10.17
1047.889	-1.63
1048.311	-3.02
1048.734	-6.73
1049.156	-7.12
1049.579	-2.13
1050.001	-6.33
1050.424	4.37
1050.846	-6.13
1051.269	2.27
1051.691	-4.12
1052.113	-1.33
1052.536	-1.62
1052.958	-4.93
1053.38	-4.33
1053.802	-6.43
1054.225	0.17
1054.647	-5.62
1055.069	-4.13
1055.491	-1.93
1055.913	-1.63
1056.335	0.17
1056.757	-2.52
1057.179	-7.13
1057.601	-6.83
1058.023	1.08
1058.445	-2.63
1058.867	-6.33
1059.289	-1.53
1059.711	-2.83
1060.133	-3.03
1060.555	-3.33
1060.976	-6.33
1061.398	-5.43
1061.82	-7.43
1062.241	-3.83
1062.663	-8.83
1063.085	-0.23
1063.506	0.77
1063.928	-1.93
1064.35	2.48
1064.771	-7.93
1065.193	-5.33
1065.614	-7.83
1066.035	-1.73
1066.457	-3.93
1066.878	-0.62
1067.3	-5.73
1067.721	-3.43
1068.142	3.27
1068.564	-1.83
1068.985	-0.93
1069.406	-3.93
1069.827	-3.83
1070.248	0.47
1070.67	-3.23
1071.091	-8.02
1071.512	-2.23
1071.933	-5.63
1072.354	-3.12
1072.775	-5.12
1073.196	-4.23
1073.617	-0.93
1074.038	-6.52
1074.459	-1.23
1074.88	-5.62
1075.3	2.77
1075.721	-5.23
1076.142	1.27
1076.563	-1.53
1076.983	-10.62
1077.404	-5.73
1077.825	-9.42
1078.246	-4.53
1078.666	-6.13
1079.087	-2.73
1079.507	-6.83
1079.928	-4.83
1080.348	-0.73
1080.769	-6.63
1081.189	3.27
1081.61	3.38
1082.03	-2.83
1082.451	-2.43
1082.871	-1.33
1083.291	-8.13
1083.711	-6.62
1084.132	-6.73
1084.552	-1.23
1084.972	5.77
1085.392	-7.13
1085.813	-3.73
1086.233	-5.53
1086.653	-6.52
1087.073	1.27
1087.493	-2.73
1087.913	-6.33
1088.333	-4.83
1088.753	-5.43
1089.173	2.97
1089.593	-2.52
1090.013	1.97
1090.433	0.97
1090.852	-0.03
1091.272	1.27
1091.692	1.57
1092.112	-4.12
1092.531	-8.73
1092.951	-11.23
1093.371	2.37
1093.79	3.48
1094.21	-3.83
1094.63	-7.83
1095.049	0.67
1095.469	-0.73
1095.888	-7.63
1096.308	-2.03
1096.727	2.88
1097.146	-0.62
1097.566	-1.93
1097.985	-1.43
1098.405	1.27
1098.824	-3.33
1099.243	-1.93
1099.662	-5.13
1100.082	-0.73
1100.501	-3.13
1100.92	-6.13
1101.339	-0.23
1101.758	-5.62
