Data from 20171114-ORNL-Ar_H_NY_Subt18_08-04-07-249.txt Node
Date: Tue Nov 14 08:04:07 EST 2017
User: Ender
Spectrometer: HR+D1039
Trigger mode: 0
Integration Time (sec): 2.730000E-2
Scans to average: 10
Electric dark correction enabled: true
Nonlinearity correction enabled: false
Boxcar width: 0
XAxis mode: Wavelengths
Number of Pixels in Spectrum: 2048
>>>>>Begin Spectral Data<<<<<
187.836	-2.48
188.309	-2.48
188.782	-2.48
189.255	0.32
189.728	-1.58
190.201	6.62
190.674	4.02
191.147	1.62
191.619	-7.28
192.092	1.62
192.565	2.82
193.038	-0.68
193.511	3.02
193.984	-0.28
194.456	-2.98
194.929	4.52
195.402	-6.98
195.874	-2.38
196.347	3.22
196.82	-7.08
197.292	4.92
197.765	0.82
198.237	-4.28
198.71	1.82
199.182	-2.18
199.655	-0.78
200.127	0.02
200.6	0.02
201.072	-2.28
201.544	-1.48
202.017	-1.98
202.489	0.52
202.961	7.82
203.433	-3.68
203.906	-5.38
204.378	-10.98
204.85	-2.18
205.322	-6.18
205.794	0.62
206.266	1.72
206.739	-6.48
207.211	2.32
207.683	-5.98
208.155	-6.68
208.627	-7.18
209.099	-2.58
209.57	-8.48
210.042	-0.78
210.514	3.12
210.986	2.72
211.458	-13.58
211.93	-5.78
212.402	2.32
212.873	-5.98
213.345	-6.78
213.817	-10.18
214.288	4.62
214.76	-11.88
215.232	-4.68
215.703	-4.38
216.175	-0.58
216.646	-3.38
217.118	-4.58
217.589	-6.88
218.061	-2.08
218.532	0.22
219.004	-5.08
219.475	1.82
219.946	-1.88
220.418	-5.98
220.889	2.82
221.36	1.22
221.832	-1.38
222.303	-5.28
222.774	-2.98
223.245	-9.08
223.717	-3.58
224.188	-0.38
224.659	-5.18
225.13	-5.28
225.601	-5.08
226.072	2.12
226.543	2.82
227.014	1.72
227.485	-0.58
227.956	0.72
228.427	-0.28
228.898	-0.08
229.369	6.22
229.839	-1.28
230.31	-3.08
230.781	2.92
231.252	-6.48
231.722	-10.98
232.193	-1.78
232.664	2.12
233.135	-2.18
233.605	0.42
234.076	-10.68
234.546	6.92
235.017	5.92
235.487	2.42
235.958	-2.18
236.428	-2.88
236.899	5.82
237.369	-0.08
237.84	-3.48
238.31	9.82
238.78	3.42
239.251	0.82
239.721	-3.08
240.191	1.42
240.662	3.62
241.132	-0.78
241.602	-2.58
242.072	1.92
242.542	6.12
243.013	2.22
243.483	6.42
243.953	7.42
244.423	-2.48
244.893	-1.88
245.363	2.12
245.833	4.42
246.303	-2.68
246.773	3.42
247.243	0.82
247.712	3.82
248.182	4.92
248.652	6.72
249.122	-2.18
249.592	5.72
250.061	22.12
250.531	25.82
251.001	10.22
251.471	17.32
251.94	14.62
252.41	3.22
252.879	-0.58
253.349	12.02
253.818	7.12
254.288	4.32
254.757	4.22
255.227	-1.78
255.696	-3.58
256.166	8.02
256.635	8.02
257.105	8.22
257.574	7.02
258.043	7.12
258.513	14.12
258.982	16.22
259.451	-2.38
259.92	12.02
260.389	4.02
260.859	15.12
261.328	9.22
261.797	11.12
262.266	9.82
262.735	11.92
263.204	10.62
263.673	2.52
264.142	1.52
264.611	-0.88
265.08	-1.58
265.549	3.12
266.018	2.82
266.487	2.32
266.955	-7.48
267.424	-2.28
267.893	8.72
268.362	3.42
268.83	3.62
269.299	8.82
269.768	5.12
270.236	6.22
270.705	0.62
271.174	0.42
271.642	6.32
272.111	8.82
272.579	8.82
273.048	13.82
273.516	17.22
273.985	18.62
274.453	22.62
274.922	15.92
275.39	10.12
275.858	-1.48
276.327	12.92
276.795	14.72
277.263	2.92
277.731	23.92
278.2	40.92
278.668	45.32
279.136	37.72
279.604	17.62
280.072	12.72
280.54	10.42
281.008	9.42
281.477	5.92
281.945	8.82
282.413	8.12
282.881	15.22
283.348	8.32
283.816	11.62
284.284	7.32
284.752	18.42
285.22	16.72
285.688	16.02
286.156	15.42
286.623	31.52
287.091	34.62
287.559	15.62
288.026	10.12
288.494	12.32
288.962	-2.18
289.429	0.32
289.897	17.22
290.364	14.12
290.832	13.62
291.3	14.52
291.767	9.32
292.234	15.42
292.702	10.22
293.169	18.92
293.637	16.62
294.104	17.72
294.571	8.92
295.039	3.22
295.506	12.12
295.973	11.92
296.44	8.72
296.908	22.42
297.375	15.82
297.842	12.42
298.309	15.52
298.776	8.62
299.243	17.72
299.71	9.22
300.177	17.62
300.644	19.12
301.111	15.82
301.578	20.52
302.045	12.62
302.512	19.92
302.979	21.62
303.446	14.22
303.913	12.52
304.379	14.52
304.846	22.02
305.313	19.62
305.78	20.72
306.246	16.22
306.713	16.02
307.18	20.42
307.646	20.12
308.113	21.92
308.579	19.42
309.046	22.12
309.512	20.92
309.979	8.32
310.445	21.52
310.912	20.42
311.378	24.92
311.845	20.92
312.311	21.22
312.777	24.02
313.244	21.82
313.71	28.02
314.176	27.12
314.642	28.82
315.109	28.02
315.575	32.52
316.041	33.42
316.507	20.32
316.973	30.02
317.439	33.82
317.905	33.52
318.371	22.72
318.837	31.02
319.303	31.12
319.769	28.62
320.235	26.02
320.701	27.12
321.167	28.62
321.633	22.02
322.099	28.12
322.564	39.02
323.03	25.72
323.496	29.92
323.962	36.12
324.427	27.52
324.893	33.72
325.359	31.22
325.824	37.12
326.29	31.32
326.755	29.02
327.221	30.52
327.686	30.52
328.152	39.22
328.617	35.32
329.083	36.02
329.548	42.92
330.014	38.12
330.479	31.82
330.944	38.42
331.41	29.32
331.875	35.72
332.34	37.62
332.805	33.12
333.271	33.12
333.736	37.42
334.201	46.42
334.666	40.22
335.131	43.82
335.596	40.22
336.061	38.02
336.526	32.32
336.991	37.82
337.456	51.52
337.921	34.62
338.386	31.92
338.851	40.02
339.316	42.32
339.781	37.12
340.246	43.72
340.711	37.92
341.175	40.52
341.64	32.22
342.105	42.12
342.569	47.12
343.034	48.22
343.499	46.22
343.963	47.32
344.428	47.42
344.893	55.92
345.357	49.32
345.822	57.92
346.286	50.82
346.751	54.22
347.215	52.12
347.679	53.02
348.144	69.22
348.608	62.12
349.073	58.32
349.537	63.12
350.001	66.42
350.465	68.02
350.93	62.42
351.394	64.12
351.858	58.22
352.322	74.32
352.786	63.62
353.25	72.42
353.715	87.02
354.179	78.42
354.643	85.82
355.107	84.72
355.571	89.32
356.035	74.82
356.498	87.62
356.962	92.22
357.426	98.82
357.89	95.82
358.354	72.12
358.818	63.42
359.281	68.02
359.745	67.52
360.209	59.22
360.673	61.52
361.136	65.02
361.6	77.92
362.064	72.22
362.527	76.62
362.991	73.82
363.454	68.32
363.918	61.42
364.381	66.72
364.845	70.52
365.308	71.92
365.772	73.52
366.235	69.82
366.698	68.22
367.162	69.82
367.625	76.82
368.088	76.02
368.552	76.32
369.015	73.32
369.478	86.52
369.941	86.82
370.404	81.42
370.867	85.02
371.331	89.42
371.794	95.72
372.257	91.52
372.72	96.92
373.183	96.52
373.646	85.22
374.109	87.72
374.572	94.52
375.035	93.32
375.497	91.42
375.96	92.92
376.423	78.82
376.886	91.22
377.349	97.52
377.811	88.42
378.274	86.22
378.737	85.42
379.199	92.12
379.662	94.32
380.125	106.12
380.587	100.62
381.05	100.52
381.512	105.82
381.975	115.72
382.437	112.52
382.9	110.02
383.362	112.32
383.825	123.72
384.287	125.12
384.75	120.72
385.212	118.62
385.674	116.12
386.136	120.02
386.599	117.02
387.061	113.02
387.523	113.42
387.985	118.02
388.447	120.92
388.91	121.52
389.372	135.52
389.834	128.82
390.296	120.22
390.758	128.72
391.22	140.22
391.682	171.32
392.144	247.12
392.606	192.92
393.068	144.62
393.529	144.72
393.991	132.52
394.453	127.32
394.915	132.72
395.377	160.82
395.838	189.92
396.3	138.72
396.762	118.92
397.224	122.52
397.685	117.02
398.147	113.62
398.608	110.42
399.07	109.22
399.531	117.02
399.993	121.72
400.454	130.42
400.916	130.22
401.377	128.92
401.839	127.12
402.3	129.32
402.762	140.12
403.223	157.62
403.684	148.12
404.145	141.32
404.607	140.22
405.068	143.12
405.529	145.82
405.99	159.92
406.451	147.62
406.913	146.22
407.374	140.32
407.835	145.12
408.296	144.12
408.757	156.02
409.218	155.82
409.679	153.22
410.14	155.52
410.601	156.52
411.062	161.52
411.522	167.52
411.983	165.02
412.444	149.32
412.905	155.22
413.366	169.42
413.826	177.12
414.287	197.62
414.748	232.02
415.208	222.22
415.669	185.42
416.13	181.42
416.59	176.42
417.051	184.82
417.511	196.92
417.972	211.02
418.432	221.02
418.893	253.52
419.353	226.02
419.814	174.32
420.274	167.42
420.734	160.72
421.195	176.22
421.655	162.42
422.115	166.22
422.576	168.72
423.036	169.12
423.496	175.32
423.956	190.22
424.416	203.32
424.876	227.82
425.336	223.92
425.797	226.32
426.257	219.52
426.717	211.02
427.177	207.82
427.637	189.62
428.097	207.22
428.556	211.12
429.016	238.92
429.476	229.32
429.936	235.12
430.396	235.82
430.856	247.72
431.315	269.22
431.775	299.32
432.235	330.42
432.694	305.32
433.154	304.92
433.614	324.92
434.073	282.62
434.533	244.12
434.993	235.02
435.452	241.12
435.912	249.32
436.371	249.22
436.83	240.22
437.29	234.82
437.749	217.92
438.209	206.62
438.668	226.32
439.127	238.22
439.587	227.12
440.046	215.72
440.505	220.22
440.964	235.42
441.424	268.82
441.883	257.22
442.342	227.82
442.801	199.82
443.26	187.62
443.719	193.02
444.178	194.52
444.637	188.32
445.096	194.12
445.555	193.42
446.014	201.22
446.473	197.02
446.932	211.52
447.391	197.92
447.849	198.12
448.308	195.42
448.767	194.32
449.226	201.02
449.685	211.22
450.143	218.32
450.602	207.92
451.061	202.02
451.519	209.72
451.978	204.82
452.436	203.12
452.895	203.52
453.353	217.02
453.812	213.82
454.27	210.32
454.729	208.02
455.187	201.82
455.646	213.82
456.104	216.82
456.562	227.12
457.021	227.32
457.479	226.92
457.937	226.62
458.395	228.32
458.854	215.62
459.312	220.02
459.77	226.22
460.228	219.52
460.686	212.72
461.144	216.92
461.602	209.72
462.06	214.42
462.518	225.02
462.976	222.12
463.434	230.82
463.892	231.42
464.35	234.22
464.808	243.22
465.266	232.52
465.724	237.12
466.181	244.12
466.639	248.32
467.097	257.32
467.555	263.72
468.012	268.42
468.47	267.92
468.928	278.92
469.385	300.12
469.843	300.62
470.3	300.92
470.758	315.22
471.215	324.62
471.673	340.02
472.13	342.32
472.588	358.42
473.045	324.52
473.503	328.62
473.96	347.62
474.417	352.62
474.875	385.42
475.332	409.22
475.789	401.12
476.246	396.72
476.704	417.92
477.161	443.82
477.618	453.72
478.075	474.02
478.532	523.82
478.989	592.62
479.446	670.92
479.903	660.32
480.36	695.22
480.817	759.02
481.274	844.42
481.731	928.92
482.188	1003.52
482.645	1129.62
483.102	1221.52
483.558	1336.02
484.015	1394.82
484.472	1375.52
484.929	1337.92
485.385	1307.02
485.842	1249.32
486.299	1195.02
486.755	1117.22
487.212	948.22
487.668	808.72
488.125	755.32
488.582	690.72
489.038	655.12
489.494	611.22
489.951	608.42
490.407	581.22
490.864	566.92
491.32	559.62
491.776	550.02
492.233	552.52
492.689	536.12
493.145	523.22
493.602	528.92
494.058	536.82
494.514	529.02
494.97	543.02
495.426	552.32
495.882	543.62
496.338	528.72
496.794	544.92
497.251	542.92
497.707	553.52
498.163	551.42
498.618	554.02
499.074	560.42
499.53	574.72
499.986	571.32
500.442	554.92
500.898	552.32
501.354	541.92
501.809	548.62
502.265	553.62
502.721	570.12
503.177	581.02
503.632	576.12
504.088	591.42
504.543	612.12
504.999	600.42
505.455	568.32
505.91	546.52
506.366	550.12
506.821	552.72
507.277	546.32
507.732	541.22
508.187	539.32
508.643	553.82
509.098	561.92
509.553	555.72
510.009	571.32
510.464	580.52
510.919	588.82
511.375	594.52
511.83	611.62
512.285	630.32
512.74	659.22
513.195	673.62
513.65	662.82
514.105	663.82
514.56	670.42
515.015	685.92
515.47	704.62
515.925	682.62
516.38	681.82
516.835	677.92
517.29	688.32
517.745	674.42
518.2	666.62
518.655	651.82
519.109	648.12
519.564	643.32
520.019	640.42
520.474	628.72
520.928	624.02
521.383	629.22
521.838	616.22
522.292	617.02
522.747	609.12
523.201	608.72
523.656	594.22
524.11	600.32
524.565	594.22
525.019	595.52
525.474	603.12
525.928	604.02
526.382	595.62
526.837	592.92
527.291	602.42
527.745	592.72
528.2	593.72
528.654	590.62
529.108	588.92
529.562	584.32
530.016	588.82
530.47	591.12
530.925	589.22
531.379	597.02
531.833	606.02
532.287	599.62
532.741	604.02
533.195	595.02
533.649	601.92
534.103	614.92
534.556	604.12
535.01	601.82
535.464	602.22
535.918	619.82
536.372	610.32
536.826	602.02
537.279	605.32
537.733	606.92
538.187	605.32
538.64	608.52
539.094	610.92
539.548	614.42
540.001	612.92
540.455	607.32
540.908	625.32
541.362	615.92
541.815	634.72
542.269	645.32
542.722	645.32
543.175	651.82
543.629	652.82
544.082	670.22
544.536	655.82
544.989	653.72
545.442	661.02
545.895	661.92
546.349	664.52
546.802	671.02
547.255	679.02
547.708	677.42
548.161	692.52
548.614	690.92
549.067	697.12
549.52	691.82
549.973	676.12
550.426	670.22
550.879	665.02
551.332	669.42
551.785	683.02
552.238	673.92
552.691	688.52
553.144	696.82
553.596	708.22
554.049	723.02
554.502	745.12
554.955	754.82
555.407	759.02
555.86	752.22
556.313	748.02
556.765	741.22
557.218	741.02
557.67	733.42
558.123	720.52
558.576	715.92
559.028	734.52
559.48	738.32
559.933	730.72
560.385	692.82
560.838	667.22
561.29	657.22
561.742	648.92
562.195	638.12
562.647	629.52
563.099	649.62
563.551	642.42
564.004	646.12
564.456	644.02
564.908	626.12
565.36	618.62
565.812	607.32
566.264	594.52
566.716	600.02
567.168	581.82
567.62	595.82
568.072	580.22
568.524	569.72
568.976	567.72
569.428	562.32
569.88	549.72
570.332	561.62
570.784	561.62
571.235	558.92
571.687	569.02
572.139	574.62
572.59	586.22
573.042	576.92
573.494	579.82
573.945	570.52
574.397	570.72
574.849	565.82
575.3	569.62
575.752	553.12
576.203	553.12
576.655	562.02
577.106	539.42
577.557	550.02
578.009	546.12
578.46	537.12
578.912	537.12
579.363	538.12
579.814	538.22
580.265	534.22
580.717	536.82
581.168	539.62
581.619	554.72
582.07	560.32
582.521	555.32
582.972	547.72
583.423	549.42
583.875	555.82
584.326	569.82
584.777	595.22
585.227	658.72
585.678	731.12
586.129	807.02
586.58	883.12
587.031	944.12
587.482	1078.92
587.933	1250.22
588.384	1078.92
588.834	791.82
589.285	656.02
589.736	636.82
590.186	619.02
590.637	615.32
591.088	599.72
591.538	590.82
591.989	582.22
592.439	586.82
592.89	576.92
593.34	573.02
593.791	564.02
594.241	552.12
594.692	562.12
595.142	560.92
595.593	559.32
596.043	563.72
596.493	570.82
596.943	572.82
597.394	575.32
597.844	565.72
598.294	579.12
598.744	597.02
599.195	612.42
599.645	648.42
600.095	681.32
600.545	723.22
600.995	762.12
601.445	811.12
601.895	870.92
602.345	909.52
602.795	897.72
603.245	862.72
603.695	808.92
604.145	757.72
604.594	720.42
605.044	692.42
605.494	637.02
605.944	592.02
606.393	590.62
606.843	580.02
607.293	582.02
607.743	569.32
608.192	585.62
608.642	595.82
609.091	599.52
609.541	605.42
609.99	607.32
610.44	599.32
610.889	556.42
611.339	547.42
611.788	536.72
612.238	558.72
612.687	569.02
613.136	560.42
613.586	570.12
614.035	578.82
614.484	589.92
614.933	590.32
615.383	581.62
615.832	577.12
616.281	569.72
616.73	535.02
617.179	518.22
617.628	513.12
618.077	493.62
618.526	481.02
618.975	481.12
619.424	478.02
619.873	480.62
620.322	485.32
620.771	469.72
621.22	471.42
621.669	458.02
622.118	463.82
622.567	460.22
623.015	448.02
623.464	438.52
623.913	436.12
624.361	431.12
624.81	427.82
625.259	430.32
625.707	431.72
626.156	431.22
626.604	435.52
627.053	435.22
627.501	435.82
627.95	444.52
628.398	458.32
628.847	445.72
629.295	441.42
629.744	447.62
630.192	441.52
630.64	442.42
631.089	435.72
631.537	438.22
631.985	442.42
632.433	455.62
632.881	463.82
633.33	502.92
633.778	483.62
634.226	433.62
634.674	441.42
635.122	441.82
635.57	461.72
636.018	485.82
636.466	454.02
636.914	433.02
637.362	446.92
637.81	447.22
638.258	445.92
638.705	450.82
639.153	463.42
639.601	472.62
640.049	495.82
640.497	513.12
640.944	530.32
641.392	498.02
641.84	469.02
642.287	448.32
642.735	434.42
643.182	429.52
643.63	439.02
644.078	439.62
644.525	461.12
644.973	461.82
645.42	463.02
645.867	477.22
646.315	488.62
646.762	498.22
647.21	524.92
647.657	544.32
648.104	565.62
648.551	583.72
648.999	643.32
649.446	684.92
649.893	756.02
650.34	865.72
650.787	1038.52
651.234	1285.32
651.682	1656.42
652.129	2275.22
652.576	3251.32
653.023	4810.52
653.47	6693.32
653.917	8490.52
654.363	9969.83
654.81	11291.03
655.257	10756.83
655.704	6956.43
656.151	4077.02
656.598	2634.22
657.044	1866.22
657.491	1436.62
657.938	1135.92
658.385	954.62
658.831	818.52
659.278	735.62
659.724	651.12
660.171	598.12
660.618	547.22
661.064	513.02
661.511	493.52
661.957	483.92
662.404	472.22
662.85	475.42
663.296	456.02
663.743	425.62
664.189	410.22
664.635	415.32
665.082	399.32
665.528	398.32
665.974	392.82
666.42	386.42
666.867	374.12
667.313	367.22
667.759	362.92
668.205	356.52
668.651	361.72
669.097	365.72
669.543	384.52
669.989	356.22
670.435	341.92
670.881	334.82
671.327	340.32
671.773	354.32
672.219	369.52
672.665	408.32
673.11	438.82
673.556	475.12
674.002	504.72
674.448	498.12
674.893	420.92
675.339	355.32
675.785	330.92
676.23	322.02
676.676	297.22
677.122	289.32
677.567	281.32
678.013	270.72
678.458	271.62
678.904	267.12
679.349	258.82
679.794	272.32
680.24	262.22
680.685	270.22
681.131	263.92
681.576	261.62
682.021	268.82
682.466	263.92
682.912	261.42
683.357	255.12
683.802	289.62
684.247	302.72
684.692	332.32
685.137	369.62
685.583	402.82
686.028	419.22
686.473	391.62
686.918	334.92
687.363	308.92
687.807	293.62
688.252	270.52
688.697	263.92
689.142	251.52
689.587	251.62
690.032	240.32
690.477	257.42
690.921	254.82
691.366	290.62
691.811	295.62
692.255	320.82
692.7	356.32
693.145	362.62
693.589	504.72
694.034	816.12
694.478	1135.72
694.923	1332.32
695.367	1783.62
695.812	926.12
696.256	385.62
696.701	280.62
697.145	259.32
697.59	250.42
698.034	240.02
698.478	248.72
698.922	235.42
699.367	245.52
699.811	248.72
700.255	274.72
700.699	292.42
701.143	316.32
701.588	354.92
702.032	388.92
702.476	379.12
702.92	369.82
703.364	362.82
703.808	461.92
704.252	736.12
704.696	1070.22
705.14	1278.42
705.584	1666.62
706.027	815.22
706.471	403.22
706.915	296.02
707.359	257.42
707.803	235.32
708.246	234.52
708.69	230.92
709.134	240.22
709.577	234.72
710.021	235.12
710.465	225.42
710.908	220.22
711.352	223.32
711.795	233.62
712.239	253.92
712.682	277.42
713.126	318.22
713.569	357.42
714.012	278.12
714.456	239.82
714.899	218.42
715.342	201.02
715.786	198.42
716.229	193.02
716.672	194.32
717.115	184.42
717.558	187.12
718.002	184.82
718.445	190.22
718.888	214.62
719.331	219.62
719.774	234.32
720.217	233.32
720.66	207.22
721.103	194.22
721.546	187.52
721.989	188.22
722.432	173.32
722.874	178.72
723.317	170.02
723.76	173.52
724.203	189.32
724.645	226.92
725.088	320.62
725.531	425.92
725.974	493.02
726.416	422.92
726.859	229.32
727.301	184.52
727.744	180.52
728.187	174.52
728.629	180.72
729.071	182.22
729.514	194.22
729.956	198.32
730.399	213.32
730.841	213.92
731.283	207.62
731.726	200.72
732.168	192.92
732.61	201.82
733.053	206.92
733.495	228.42
733.937	260.22
734.379	288.42
734.821	311.62
735.263	397.32
735.705	595.52
736.148	1130.12
736.59	1915.22
737.032	2368.32
737.474	1925.32
737.916	615.12
738.357	318.82
738.799	243.12
739.241	222.62
739.683	207.92
740.125	217.02
740.567	226.32
741.008	237.52
741.45	236.32
741.892	241.72
742.334	262.62
742.775	281.82
743.217	261.52
743.658	200.82
744.1	195.02
744.542	192.62
744.983	238.02
745.425	265.22
745.866	264.42
746.307	214.42
746.749	207.52
747.19	238.82
747.632	328.72
748.073	616.52
748.514	1343.72
748.956	2172.02
749.397	2695.62
749.838	2241.43
750.279	2322.22
750.72	1160.22
751.162	417.02
751.603	241.22
752.044	191.82
752.485	161.02
752.926	164.22
753.367	152.22
753.808	146.42
754.249	148.12
754.69	139.52
755.131	133.42
755.572	136.62
756.013	128.72
756.453	135.92
756.894	138.42
757.335	139.22
757.776	142.62
758.216	148.12
758.657	149.32
759.098	152.22
759.538	166.52
759.979	197.72
760.42	270.82
760.86	506.12
761.301	1302.92
761.741	3276.52
762.182	5099.02
762.622	3629.32
763.063	1013.92
763.503	405.52
763.943	260.32
764.384	256.82
764.824	315.02
765.264	357.62
765.705	237.42
766.145	152.82
766.585	140.12
767.025	137.52
767.465	135.32
767.906	183.52
768.346	250.52
768.786	268.52
769.226	195.42
769.666	224.52
770.106	434.52
770.546	1117.32
770.986	2029.02
771.426	1870.42
771.866	607.12
772.306	250.32
772.745	156.52
773.185	129.62
773.625	127.52
774.065	118.12
774.505	129.82
774.944	219.72
775.384	477.52
775.824	909.72
776.263	903.92
776.703	375.72
777.142	159.62
777.582	119.92
778.021	95.92
778.461	105.92
778.9	98.42
779.34	98.62
779.779	89.02
780.219	85.02
780.658	76.82
781.097	79.82
781.537	82.62
781.976	80.02
782.415	81.62
782.855	73.12
783.294	75.12
783.733	76.52
784.172	67.32
784.611	70.02
785.05	80.72
785.489	83.92
785.928	88.22
786.367	92.42
786.806	90.82
787.245	96.12
787.684	102.62
788.123	111.32
788.562	99.82
789.001	96.02
789.44	92.82
789.879	84.52
790.317	91.62
790.756	98.22
791.195	94.02
791.634	106.52
792.072	147.22
792.511	262.42
792.95	718.32
793.388	1642.72
793.827	1542.62
794.265	524.12
794.704	207.72
795.142	137.52
795.581	117.62
796.019	100.82
796.458	101.82
796.896	86.62
797.334	94.22
797.773	109.32
798.211	159.32
798.649	310.22
799.087	750.42
799.526	1200.32
799.964	1515.62
800.402	1595.02
800.84	586.92
801.278	229.62
801.716	139.42
802.154	121.02
802.592	103.02
803.03	105.02
803.468	97.42
803.906	109.12
804.344	107.72
804.782	101.02
805.22	94.22
805.658	97.82
806.096	117.02
806.533	126.02
806.971	133.72
807.409	168.32
807.847	225.22
808.284	474.22
808.722	1366.82
809.16	2549.52
809.597	2344.72
810.035	4182.52
810.472	4695.32
810.91	1666.32
811.347	608.92
811.785	312.12
812.222	200.52
812.66	151.42
813.097	124.42
813.535	106.72
813.972	95.32
814.409	91.42
814.846	77.82
815.284	81.72
815.721	71.62
816.158	76.82
816.595	96.42
817.032	132.72
817.47	154.42
817.907	137.12
818.344	111.22
818.781	87.92
819.218	73.22
819.655	94.12
820.092	140.22
820.529	172.82
820.966	143.22
821.403	103.92
821.839	86.72
822.276	78.52
822.713	96.02
823.15	100.42
823.587	84.32
824.023	106.82
824.46	216.32
824.897	667.02
825.333	1052.12
825.77	452.72
826.206	170.12
826.643	103.42
827.08	76.52
827.516	61.32
827.953	55.82
828.389	62.32
828.825	52.02
829.262	47.12
829.698	47.82
830.135	44.22
830.571	43.92
831.007	42.02
831.443	47.32
831.88	45.42
832.316	42.42
832.752	52.22
833.188	49.72
833.624	46.12
834.06	53.72
834.497	49.02
834.933	52.12
835.369	54.62
835.805	49.22
836.241	55.82
836.677	56.42
837.112	67.72
837.548	74.92
837.984	97.22
838.42	142.62
838.856	354.72
839.292	1146.12
839.727	1817.12
840.163	835.22
840.599	681.12
841.034	1552.82
841.47	1719.22
841.906	610.62
842.341	256.12
842.777	170.12
843.212	235.72
843.648	239.72
844.083	115.22
844.519	68.42
844.954	65.92
845.39	44.62
845.825	37.62
846.261	44.42
846.696	44.42
847.131	39.02
847.566	43.02
848.002	42.22
848.437	38.22
848.872	45.62
849.307	53.42
849.742	63.52
850.177	136.52
850.613	412.92
851.048	694.12
851.483	294.72
851.918	119.22
852.353	61.32
852.788	40.92
853.223	38.82
853.657	42.92
854.092	38.22
854.527	32.02
854.962	28.02
855.397	32.92
855.832	42.62
856.266	30.62
856.701	26.82
857.136	25.42
857.57	32.22
858.005	39.52
858.44	42.02
858.874	28.22
859.309	36.22
859.743	30.92
860.178	34.82
860.612	27.52
861.047	38.52
861.481	55.42
861.915	52.32
862.35	39.12
862.784	21.42
863.218	37.82
863.653	24.02
864.087	34.52
864.521	44.42
864.955	45.42
865.39	115.12
865.824	135.72
866.258	90.32
866.692	130.32
867.126	142.02
867.56	76.72
867.994	40.72
868.428	29.32
868.862	38.12
869.296	41.32
869.73	48.92
870.164	43.62
870.598	39.52
871.031	27.62
871.465	25.42
871.899	21.72
872.333	18.32
872.766	14.02
873.2	16.72
873.634	22.52
874.067	18.62
874.501	14.22
874.935	23.42
875.368	25.72
875.802	23.42
876.235	19.92
876.669	18.32
877.102	21.72
877.535	19.92
877.969	21.92
878.402	22.12
878.836	14.42
879.269	13.82
879.702	20.42
880.135	17.82
880.569	20.72
881.002	27.52
881.435	14.02
881.868	15.52
882.301	17.32
882.734	9.92
883.167	15.22
883.601	17.32
884.034	19.82
884.467	10.42
884.899	10.62
885.332	15.92
885.765	12.02
886.198	8.62
886.631	9.92
887.064	11.22
887.497	13.72
887.929	22.22
888.362	12.22
888.795	3.82
889.228	8.92
889.66	14.32
890.093	7.62
890.526	15.22
890.958	13.32
891.391	10.32
891.823	19.42
892.256	17.32
892.688	7.02
893.121	13.22
893.553	10.62
893.985	24.32
894.418	16.42
894.85	13.32
895.282	14.92
895.715	9.72
896.147	11.72
896.579	11.72
897.011	4.72
897.444	12.32
897.876	10.32
898.308	6.62
898.74	10.32
899.172	11.32
899.604	19.32
900.036	14.82
900.468	7.42
900.9	8.72
901.332	10.82
901.764	8.52
902.196	8.62
902.628	15.32
903.06	15.22
903.491	15.92
903.923	17.72
904.355	16.22
904.787	20.02
905.218	20.82
905.65	17.02
906.082	7.32
906.513	8.22
906.945	12.22
907.376	8.22
907.808	10.92
908.239	17.72
908.671	15.92
909.102	9.22
909.534	17.72
909.965	33.92
910.397	63.72
910.828	242.72
911.259	382.92
911.691	172.32
912.122	86.72
912.553	41.72
912.984	29.22
913.415	19.12
913.847	23.92
914.278	13.42
914.709	9.22
915.14	20.52
915.571	8.72
916.002	11.72
916.433	9.82
916.864	12.12
917.295	15.12
917.726	17.32
918.157	11.72
918.587	27.32
919.018	20.22
919.449	16.32
919.88	25.62
920.311	25.82
920.741	36.52
921.172	127.72
921.603	117.32
922.033	54.22
922.464	35.22
922.895	18.02
923.325	17.42
923.756	12.42
924.186	12.72
924.617	17.82
925.047	25.62
925.478	35.32
925.908	38.82
926.338	11.22
926.769	9.92
927.199	18.72
927.629	7.32
928.06	11.52
928.49	15.12
928.92	12.92
929.35	14.02
929.78	3.02
930.21	1.72
930.641	12.22
931.071	5.52
931.501	1.52
931.931	5.62
932.361	5.42
932.791	-1.18
933.221	6.22
933.651	7.02
934.08	13.42
934.51	21.52
934.94	1.72
935.37	8.72
935.8	5.02
936.229	9.42
936.659	7.72
937.089	-0.58
937.519	7.92
937.948	14.32
938.378	14.82
938.807	2.52
939.237	2.72
939.666	7.12
940.096	-7.08
940.525	1.12
940.955	-2.98
941.384	3.72
941.814	-2.68
942.243	-2.78
942.672	3.92
943.102	1.72
943.531	5.42
943.96	5.62
944.39	-0.88
944.819	-2.78
945.248	4.22
945.677	2.52
946.106	3.02
946.535	8.72
946.964	5.42
947.393	5.22
947.822	5.72
948.251	-5.18
948.68	0.72
949.109	4.72
949.538	1.22
949.967	-1.68
950.396	1.52
950.825	-4.48
951.254	0.12
951.682	-4.38
952.111	3.52
952.54	6.62
952.969	-7.18
953.397	-6.68
953.826	0.32
954.254	-3.98
954.683	0.32
955.112	-2.28
955.54	-2.08
955.969	-3.28
956.397	-1.88
956.826	-2.48
957.254	-0.68
957.682	3.12
958.111	4.82
958.539	-3.98
958.967	0.32
959.396	-0.88
959.824	-1.98
960.252	3.12
960.68	-7.98
961.109	-2.88
961.537	-2.38
961.965	-2.58
962.393	-1.18
962.821	-4.78
963.249	1.52
963.677	1.62
964.105	4.82
964.533	35.42
964.961	34.82
965.389	15.82
965.817	6.62
966.245	1.32
966.672	0.22
967.1	-7.88
967.528	3.72
967.956	-4.68
968.383	0.02
968.811	-3.38
969.239	0.72
969.666	0.62
970.094	2.72
970.522	-0.98
970.949	-1.38
971.377	1.12
971.804	-2.68
972.232	-2.78
972.659	-1.58
973.087	-5.48
973.514	-4.78
973.941	-2.98
974.369	-0.18
974.796	3.12
975.223	-3.98
975.651	-4.98
976.078	3.92
976.505	3.32
976.932	5.52
977.359	12.92
977.786	10.72
978.214	-2.28
978.641	-2.88
979.068	-3.88
979.495	-4.18
979.922	0.52
980.349	-2.18
980.776	-2.68
981.202	0.82
981.629	8.42
982.056	4.62
982.483	-1.78
982.91	4.12
983.337	-8.98
983.763	3.12
984.19	-7.98
984.617	-3.68
985.043	-7.48
985.47	-0.18
985.897	0.22
986.323	-12.18
986.75	0.32
987.176	-0.08
987.603	0.32
988.029	2.02
988.456	-0.68
988.882	0.72
989.308	-4.48
989.735	-1.18
990.161	-1.28
990.587	-3.98
991.014	-1.38
991.44	5.82
991.866	3.32
992.292	-2.98
992.719	-3.78
993.145	0.02
993.571	-10.88
993.997	-6.48
994.423	4.82
994.849	-2.08
995.275	2.02
995.701	0.02
996.127	-2.48
996.553	1.72
996.979	-3.28
997.405	-4.28
997.83	-5.38
998.256	-6.08
998.682	-4.48
999.108	-11.38
999.534	0.02
999.959	0.42
1000.385	-5.18
1000.811	-2.58
1001.236	-9.58
1001.662	-4.68
1002.087	-5.48
1002.513	4.22
1002.938	4.52
1003.364	-5.98
1003.789	-0.98
1004.215	4.72
1004.64	1.22
1005.066	-0.88
1005.491	1.22
1005.916	-1.48
1006.342	-4.58
1006.767	-5.08
1007.192	8.62
1007.617	-3.18
1008.042	0.02
1008.468	-10.28
1008.893	-7.08
1009.318	-1.68
1009.743	-1.88
1010.168	-1.38
1010.593	4.22
1011.018	-1.98
1011.443	4.52
1011.868	1.42
1012.293	-3.78
1012.718	-0.48
1013.143	3.72
1013.567	2.32
1013.992	-5.88
1014.417	-14.78
1014.842	1.42
1015.267	-6.08
1015.691	-3.28
1016.116	4.02
1016.541	-3.88
1016.965	3.12
1017.39	1.32
1017.814	1.22
1018.239	5.02
1018.663	-8.08
1019.088	-7.98
1019.512	1.12
1019.937	0.82
1020.361	-1.88
1020.785	-14.38
1021.21	-5.38
1021.634	-3.48
1022.058	1.72
1022.483	0.22
1022.907	-1.38
1023.331	-1.58
1023.755	-5.28
1024.179	-1.98
1024.604	-5.58
1025.028	-7.78
1025.452	-9.18
1025.876	-0.78
1026.3	5.82
1026.724	-5.58
1027.148	8.12
1027.572	-8.88
1027.996	-0.28
1028.42	-3.08
1028.843	-3.68
1029.267	-0.58
1029.691	-1.58
1030.115	-5.98
1030.539	-4.18
1030.962	-7.98
1031.386	-7.78
1031.81	-0.28
1032.233	-0.88
1032.657	-0.98
1033.08	-1.28
1033.504	-4.18
1033.927	-6.78
1034.351	-4.78
1034.774	-2.68
1035.198	0.82
1035.621	0.52
1036.045	-10.58
1036.468	0.82
1036.891	-6.38
1037.315	-5.58
1037.738	-10.28
1038.161	-4.18
1038.584	-2.88
1039.008	-4.78
1039.431	-6.78
1039.854	-3.68
1040.277	-4.38
1040.7	-3.88
1041.123	-0.68
1041.546	-2.48
1041.969	-6.38
1042.392	-6.98
1042.815	-2.48
1043.238	4.52
1043.661	0.52
1044.084	-0.98
1044.507	0.52
1044.93	-1.38
1045.352	-7.28
1045.775	2.12
1046.198	-3.58
1046.621	-6.58
1047.043	-0.38
1047.466	6.12
1047.889	-1.78
1048.311	-8.08
1048.734	3.22
1049.156	2.12
1049.579	-0.18
1050.001	-2.08
1050.424	-1.68
1050.846	-4.18
1051.269	-1.68
1051.691	-4.78
1052.113	-4.28
1052.536	4.42
1052.958	-2.18
1053.38	-2.18
1053.802	-7.68
1054.225	3.62
1054.647	-7.68
1055.069	-6.38
1055.491	-0.98
1055.913	-11.98
1056.335	3.32
1056.757	-1.88
1057.179	-6.88
1057.601	-2.08
1058.023	-7.88
1058.445	-7.68
1058.867	1.62
1059.289	3.02
1059.711	-5.78
1060.133	-0.88
1060.555	-2.08
1060.976	-4.18
1061.398	-4.98
1061.82	-8.08
1062.241	-3.68
1062.663	-3.48
1063.085	-6.68
1063.506	-1.68
1063.928	-0.58
1064.35	2.32
1064.771	-12.88
1065.193	4.22
1065.614	-14.28
1066.035	-4.18
1066.457	-2.88
1066.878	1.02
1067.3	-5.78
1067.721	-5.88
1068.142	-2.68
1068.564	-6.48
1068.985	-1.68
1069.406	-3.08
1069.827	-5.28
1070.248	0.12
1070.67	2.82
1071.091	-4.48
1071.512	-2.88
1071.933	-11.18
1072.354	2.02
1072.775	-5.78
1073.196	-4.48
1073.617	-6.48
1074.038	-6.78
1074.459	-3.08
1074.88	-6.48
1075.3	1.82
1075.721	-6.98
1076.142	-0.88
1076.563	0.22
1076.983	-5.38
1077.404	-7.28
1077.825	-10.18
1078.246	-7.98
1078.666	-9.08
1079.087	-1.78
1079.507	-4.38
1079.928	5.72
1080.348	0.32
1080.769	-5.88
1081.189	-1.98
1081.61	0.12
1082.03	-1.98
1082.451	-1.48
1082.871	2.12
1083.291	-5.68
1083.711	-8.38
1084.132	-6.58
1084.552	0.72
1084.972	3.72
1085.392	-6.28
1085.813	-10.48
1086.233	-8.58
1086.653	-3.98
1087.073	-5.48
1087.493	-10.08
1087.913	-9.18
1088.333	-6.48
1088.753	-3.98
1089.173	1.52
1089.593	-2.78
1090.013	5.72
1090.433	-1.78
1090.852	-1.88
1091.272	2.32
1091.692	-3.28
1092.112	-2.78
1092.531	-8.98
1092.951	-9.58
1093.371	-1.38
1093.79	2.12
1094.21	-4.48
1094.63	-3.78
1095.049	-1.98
1095.469	2.52
1095.888	-1.18
1096.308	5.12
1096.727	-1.38
1097.146	-3.98
1097.566	-2.68
1097.985	-5.08
1098.405	-5.48
1098.824	-3.98
1099.243	-6.08
1099.662	-7.98
1100.082	-9.28
1100.501	1.32
1100.92	-8.08
1101.339	-3.48
1101.758	-4.48
