Data from 20171114-ORNL-Ar_H_NY_Subt18_08-04-08-887.txt Node
Date: Tue Nov 14 08:04:08 EST 2017
User: Ender
Spectrometer: HR+D1039
Trigger mode: 0
Integration Time (sec): 2.730000E-2
Scans to average: 10
Electric dark correction enabled: true
Nonlinearity correction enabled: false
Boxcar width: 0
XAxis mode: Wavelengths
Number of Pixels in Spectrum: 2048
>>>>>Begin Spectral Data<<<<<
187.836	-7.13
188.309	-7.13
188.782	-7.13
189.255	-1.63
189.728	0.27
190.201	4.37
190.674	3.27
191.147	1.37
191.619	-0.13
192.092	1.47
192.565	7.27
193.038	-6.73
193.511	1.97
193.984	-1.13
194.456	-1.83
194.929	0.77
195.402	-1.73
195.874	-0.43
196.347	0.37
196.82	-5.13
197.292	6.37
197.765	-0.93
198.237	-15.43
198.71	-0.33
199.182	1.37
199.655	2.77
200.127	2.47
200.6	-2.13
201.072	-6.63
201.544	-8.53
202.017	-1.93
202.489	4.57
202.961	-2.73
203.433	-1.33
203.906	-6.33
204.378	-6.93
204.85	-3.13
205.322	-5.53
205.794	-6.43
206.266	-1.33
206.739	-4.43
207.211	0.67
207.683	-11.53
208.155	-5.83
208.627	-5.63
209.099	-4.23
209.57	-9.53
210.042	-7.83
210.514	-5.63
210.986	-7.83
211.458	-8.43
211.93	-6.53
212.402	-1.13
212.873	-6.23
213.345	-9.03
213.817	-9.53
214.288	-6.33
214.76	-12.13
215.232	-4.13
215.703	-1.53
216.175	-6.73
216.646	-0.33
217.118	-5.93
217.589	-2.93
218.061	-1.93
218.532	-5.63
219.004	2.37
219.475	-6.43
219.946	-4.13
220.418	-5.03
220.889	1.77
221.36	1.57
221.832	-5.13
222.303	-4.83
222.774	-3.13
223.245	-7.13
223.717	-10.13
224.188	-2.33
224.659	-5.63
225.13	-6.63
225.601	-4.53
226.072	-2.03
226.543	-2.33
227.014	-4.63
227.485	-4.73
227.956	-3.73
228.427	2.37
228.898	-4.73
229.369	5.67
229.839	-3.73
230.31	-6.73
230.781	6.77
231.252	-7.83
231.722	-8.23
232.193	-1.43
232.664	-2.33
233.135	0.77
233.605	0.17
234.076	-6.03
234.546	-6.13
235.017	-2.03
235.487	-3.63
235.958	0.77
236.428	-0.13
236.899	1.97
237.369	7.27
237.84	3.47
238.31	6.07
238.78	3.37
239.251	-6.23
239.721	-3.63
240.191	-0.33
240.662	-1.03
241.132	-0.33
241.602	-12.93
242.072	-0.63
242.542	6.37
243.013	5.37
243.483	3.57
243.953	0.07
244.423	0.37
244.893	-4.73
245.363	1.07
245.833	-2.83
246.303	-3.23
246.773	7.77
247.243	4.57
247.712	3.27
248.182	6.47
248.652	3.87
249.122	-2.13
249.592	6.07
250.061	13.77
250.531	27.67
251.001	5.57
251.471	15.47
251.94	12.37
252.41	2.87
252.879	-2.93
253.349	11.67
253.818	2.67
254.288	0.07
254.757	0.67
255.227	-5.93
255.696	-0.63
256.166	3.17
256.635	6.47
257.105	3.17
257.574	1.37
258.043	8.07
258.513	2.67
258.982	11.97
259.451	4.67
259.92	7.27
260.389	3.17
260.859	9.77
261.328	5.17
261.797	9.07
262.266	2.57
262.735	8.57
263.204	9.47
263.673	-6.33
264.142	8.17
264.611	-3.83
265.08	-0.53
265.549	2.67
266.018	5.77
266.487	-0.03
266.955	-3.73
267.424	-0.53
267.893	3.17
268.362	-1.63
268.83	-6.33
269.299	6.57
269.768	4.87
270.236	8.17
270.705	0.97
271.174	2.47
271.642	1.27
272.111	3.07
272.579	10.37
273.048	16.67
273.516	18.47
273.985	15.67
274.453	14.87
274.922	18.27
275.39	5.37
275.858	-3.03
276.327	6.67
276.795	14.37
277.263	0.17
277.731	24.17
278.2	31.27
278.668	41.87
279.136	41.37
279.604	11.77
280.072	10.57
280.54	4.57
281.008	8.77
281.477	14.17
281.945	6.27
282.413	7.97
282.881	14.47
283.348	8.37
283.816	9.57
284.284	7.17
284.752	17.97
285.22	8.87
285.688	9.27
286.156	14.87
286.623	37.97
287.091	38.57
287.559	25.37
288.026	14.77
288.494	12.07
288.962	-0.23
289.429	9.17
289.897	16.67
290.364	7.87
290.832	11.17
291.3	2.97
291.767	9.37
292.234	17.47
292.702	4.87
293.169	12.67
293.637	14.37
294.104	7.57
294.571	0.37
295.039	2.77
295.506	8.07
295.973	12.17
296.44	11.67
296.908	12.17
297.375	4.47
297.842	13.07
298.309	11.87
298.776	8.57
299.243	13.07
299.71	12.27
300.177	16.17
300.644	15.87
301.111	7.57
301.578	13.77
302.045	9.77
302.512	16.97
302.979	17.27
303.446	9.17
303.913	12.37
304.379	12.57
304.846	20.87
305.313	16.67
305.78	14.57
306.246	23.27
306.713	18.87
307.18	22.07
307.646	19.57
308.113	24.67
308.579	14.97
309.046	19.37
309.512	16.97
309.979	9.27
310.445	24.47
310.912	18.47
311.378	24.67
311.845	20.87
312.311	27.07
312.777	24.37
313.244	23.47
313.71	31.67
314.176	24.17
314.642	25.97
315.109	20.07
315.575	27.57
316.041	26.57
316.507	24.77
316.973	30.17
317.439	26.27
317.905	26.87
318.371	30.97
318.837	24.27
319.303	27.47
319.769	25.77
320.235	23.47
320.701	28.87
321.167	24.07
321.633	23.67
322.099	30.87
322.564	35.67
323.03	26.97
323.496	22.47
323.962	31.97
324.427	29.47
324.893	40.97
325.359	30.57
325.824	28.37
326.29	27.37
326.755	30.37
327.221	30.47
327.686	31.37
328.152	38.87
328.617	29.87
329.083	41.67
329.548	39.47
330.014	40.07
330.479	30.57
330.944	42.37
331.41	30.27
331.875	36.57
332.34	27.97
332.805	35.27
333.271	41.47
333.736	28.07
334.201	45.17
334.666	40.27
335.131	54.77
335.596	40.17
336.061	38.47
336.526	29.77
336.991	36.37
337.456	43.77
337.921	37.97
338.386	36.47
338.851	32.27
339.316	45.67
339.781	34.17
340.246	43.77
340.711	37.77
341.175	42.07
341.64	32.97
342.105	34.97
342.569	47.47
343.034	44.97
343.499	44.37
343.963	35.57
344.428	53.87
344.893	47.57
345.357	49.87
345.822	47.67
346.286	52.17
346.751	57.97
347.215	48.07
347.679	56.97
348.144	67.27
348.608	63.97
349.073	54.67
349.537	58.97
350.001	58.67
350.465	62.67
350.93	61.67
351.394	69.47
351.858	58.87
352.322	66.47
352.786	67.17
353.25	72.87
353.715	83.97
354.179	76.27
354.643	91.87
355.107	98.47
355.571	83.17
356.035	81.37
356.498	91.17
356.962	96.57
357.426	101.37
357.89	85.57
358.354	71.37
358.818	68.17
359.281	64.07
359.745	69.67
360.209	70.37
360.673	57.67
361.136	59.77
361.6	66.77
362.064	69.97
362.527	65.87
362.991	73.57
363.454	65.97
363.918	56.87
364.381	66.27
364.845	65.97
365.308	72.07
365.772	66.97
366.235	70.77
366.698	64.97
367.162	68.27
367.625	71.27
368.088	70.77
368.552	77.57
369.015	78.57
369.478	81.17
369.941	78.37
370.404	81.07
370.867	86.47
371.331	87.27
371.794	90.97
372.257	93.57
372.72	102.37
373.183	89.77
373.646	91.37
374.109	86.67
374.572	95.17
375.035	90.47
375.497	91.37
375.96	92.47
376.423	88.57
376.886	94.07
377.349	87.87
377.811	84.97
378.274	86.57
378.737	85.47
379.199	98.77
379.662	89.37
380.125	93.87
380.587	101.37
381.05	112.77
381.512	106.67
381.975	119.37
382.437	110.77
382.9	109.07
383.362	108.77
383.825	115.17
384.287	121.27
384.75	124.07
385.212	118.57
385.674	107.67
386.136	112.87
386.599	104.77
387.061	112.27
387.523	112.17
387.985	115.07
388.447	123.37
388.91	119.97
389.372	134.97
389.834	124.37
390.296	133.37
390.758	123.47
391.22	144.07
391.682	173.77
392.144	237.07
392.606	195.27
393.068	140.17
393.529	143.97
393.991	129.17
394.453	126.67
394.915	123.57
395.377	162.17
395.838	176.77
396.3	127.07
396.762	122.07
397.224	108.57
397.685	113.67
398.147	114.77
398.608	115.77
399.07	110.57
399.531	119.67
399.993	118.77
400.454	134.37
400.916	126.07
401.377	118.57
401.839	128.97
402.3	128.27
402.762	138.57
403.223	155.57
403.684	142.77
404.145	132.57
404.607	138.77
405.068	142.07
405.529	142.67
405.99	152.67
406.451	145.97
406.913	150.27
407.374	137.87
407.835	134.87
408.296	144.47
408.757	146.57
409.218	158.27
409.679	148.67
410.14	153.97
410.601	147.97
411.062	162.17
411.522	163.87
411.983	170.47
412.444	153.67
412.905	157.87
413.366	151.97
413.826	169.87
414.287	186.27
414.748	230.17
415.208	209.87
415.669	178.07
416.13	175.27
416.59	181.07
417.051	181.17
417.511	190.07
417.972	206.27
418.432	221.17
418.893	248.27
419.353	220.57
419.814	176.87
420.274	162.37
420.734	159.57
421.195	172.97
421.655	161.57
422.115	170.77
422.576	165.97
423.036	166.77
423.496	180.27
423.956	180.17
424.416	200.47
424.876	230.87
425.336	226.57
425.797	223.67
426.257	224.27
426.717	203.27
427.177	209.37
427.637	197.87
428.097	202.67
428.556	208.27
429.016	236.77
429.476	222.97
429.936	240.27
430.396	233.27
430.856	254.37
431.315	272.67
431.775	297.57
432.235	319.27
432.694	302.17
433.154	301.57
433.614	326.67
434.073	280.07
434.533	245.87
434.993	228.27
435.452	240.47
435.912	250.97
436.371	239.17
436.83	232.77
437.29	230.97
437.749	211.47
438.209	203.97
438.668	224.27
439.127	233.97
439.587	226.37
440.046	210.47
440.505	221.47
440.964	226.67
441.424	262.07
441.883	253.87
442.342	223.27
442.801	189.07
443.26	188.17
443.719	190.17
444.178	186.87
444.637	176.67
445.096	188.77
445.555	192.57
446.014	195.17
446.473	192.17
446.932	196.37
447.391	192.47
447.849	203.67
448.308	191.07
448.767	193.87
449.226	206.47
449.685	203.27
450.143	216.57
450.602	199.07
451.061	200.47
451.519	202.37
451.978	200.57
452.436	199.27
452.895	197.77
453.353	217.47
453.812	206.67
454.27	209.07
454.729	204.67
455.187	201.97
455.646	209.37
456.104	211.27
456.562	216.17
457.021	224.17
457.479	215.97
457.937	228.77
458.395	225.07
458.854	205.47
459.312	224.37
459.77	227.97
460.228	208.77
460.686	204.37
461.144	219.07
461.602	212.67
462.06	213.37
462.518	221.47
462.976	217.37
463.434	224.27
463.892	221.47
464.35	236.97
464.808	249.47
465.266	228.07
465.724	238.97
466.181	231.17
466.639	235.17
467.097	252.07
467.555	256.27
468.012	255.97
468.47	266.57
468.928	282.67
469.385	290.77
469.843	292.77
470.3	295.57
470.758	305.57
471.215	323.07
471.673	343.47
472.13	333.57
472.588	352.27
473.045	308.67
473.503	317.07
473.96	335.97
474.417	348.47
474.875	369.97
475.332	398.97
475.789	395.97
476.246	404.97
476.704	422.27
477.161	429.77
477.618	447.37
478.075	476.17
478.532	517.67
478.989	582.17
479.446	666.67
479.903	651.07
480.36	684.87
480.817	739.47
481.274	836.37
481.731	925.27
482.188	1006.37
482.645	1120.07
483.102	1220.37
483.558	1334.87
484.015	1389.07
484.472	1374.87
484.929	1348.47
485.385	1282.97
485.842	1249.67
486.299	1183.87
486.755	1113.47
487.212	942.07
487.668	805.87
488.125	738.07
488.582	680.97
489.038	647.67
489.494	620.97
489.951	595.77
490.407	572.37
490.864	558.27
491.32	552.07
491.776	549.87
492.233	552.57
492.689	523.17
493.145	518.47
493.602	505.27
494.058	519.17
494.514	531.77
494.97	537.57
495.426	547.07
495.882	530.67
496.338	530.27
496.794	533.87
497.251	532.07
497.707	544.07
498.163	540.67
498.618	548.47
499.074	552.97
499.53	570.57
499.986	573.77
500.442	556.77
500.898	530.97
501.354	537.07
501.809	527.07
502.265	543.57
502.721	564.17
503.177	574.27
503.632	563.47
504.088	565.37
504.543	598.57
504.999	591.27
505.455	555.97
505.91	540.17
506.366	542.67
506.821	540.37
507.277	532.07
507.732	528.17
508.187	529.87
508.643	545.97
509.098	534.17
509.553	559.27
510.009	565.17
510.464	576.47
510.919	590.07
511.375	592.47
511.83	609.97
512.285	617.37
512.74	638.17
513.195	655.47
513.65	656.67
514.105	649.57
514.56	649.17
515.015	673.37
515.47	683.07
515.925	673.17
516.38	670.37
516.835	676.77
517.29	679.17
517.745	667.47
518.2	655.97
518.655	642.47
519.109	636.37
519.564	630.37
520.019	623.77
520.474	618.37
520.928	612.17
521.383	613.37
521.838	603.17
522.292	603.37
522.747	602.97
523.201	590.47
523.656	588.17
524.11	587.97
524.565	591.57
525.019	585.17
525.474	598.37
525.928	590.47
526.382	585.17
526.837	584.17
527.291	580.07
527.745	588.07
528.2	580.87
528.654	587.27
529.108	581.77
529.562	585.47
530.016	583.57
530.47	584.67
530.925	584.57
531.379	591.67
531.833	587.47
532.287	594.67
532.741	600.87
533.195	587.87
533.649	598.97
534.103	611.67
534.556	599.87
535.01	606.27
535.464	583.97
535.918	605.67
536.372	603.07
536.826	603.77
537.279	589.17
537.733	588.97
538.187	591.17
538.64	595.87
539.094	606.47
539.548	603.87
540.001	610.27
540.455	593.37
540.908	609.07
541.362	610.17
541.815	626.07
542.269	635.27
542.722	634.17
543.175	640.37
543.629	643.87
544.082	655.27
544.536	649.07
544.989	652.17
545.442	656.97
545.895	648.47
546.349	666.87
546.802	660.37
547.255	670.37
547.708	667.87
548.161	673.77
548.614	684.17
549.067	689.07
549.52	669.47
549.973	688.67
550.426	670.17
550.879	662.87
551.332	656.17
551.785	669.67
552.238	662.17
552.691	667.37
553.144	681.77
553.596	687.67
554.049	714.17
554.502	734.87
554.955	745.37
555.407	747.07
555.86	744.77
556.313	734.07
556.765	720.77
557.218	731.47
557.67	717.37
558.123	720.47
558.576	724.57
559.028	719.77
559.48	722.77
559.933	716.07
560.385	699.67
560.838	661.97
561.29	647.37
561.742	649.97
562.195	621.57
562.647	627.27
563.099	629.97
563.551	632.97
564.004	638.87
564.456	634.07
564.908	628.17
565.36	609.47
565.812	595.97
566.264	586.37
566.716	596.57
567.168	577.27
567.62	582.67
568.072	573.87
568.524	560.37
568.976	560.57
569.428	547.77
569.88	547.87
570.332	552.97
570.784	550.47
571.235	558.57
571.687	555.87
572.139	562.07
572.59	583.47
573.042	576.27
573.494	575.97
573.945	567.87
574.397	547.07
574.849	555.27
575.3	559.97
575.752	547.57
576.203	548.97
576.655	551.87
577.106	541.37
577.557	534.87
578.009	531.47
578.46	536.07
578.912	524.27
579.363	530.87
579.814	537.07
580.265	532.57
580.717	523.17
581.168	536.67
581.619	541.77
582.07	537.07
582.521	536.87
582.972	539.87
583.423	539.87
583.875	543.77
584.326	560.87
584.777	600.87
585.227	666.17
585.678	733.77
586.129	816.27
586.58	886.57
587.031	949.87
587.482	1104.87
587.933	1256.57
588.384	1075.97
588.834	793.67
589.285	657.77
589.736	636.97
590.186	615.97
590.637	622.67
591.088	597.17
591.538	585.87
591.989	582.27
592.439	589.07
592.89	572.97
593.34	566.77
593.791	563.17
594.241	555.27
594.692	565.37
595.142	549.87
595.593	549.87
596.043	556.07
596.493	555.77
596.943	558.47
597.394	570.37
597.844	568.37
598.294	569.07
598.744	593.87
599.195	617.97
599.645	654.07
600.095	673.17
600.545	722.57
600.995	756.27
601.445	799.17
601.895	852.77
602.345	895.07
602.795	884.47
603.245	836.77
603.695	800.07
604.145	757.67
604.594	721.27
605.044	675.47
605.494	634.07
605.944	580.77
606.393	577.77
606.843	577.27
607.293	575.67
607.743	569.17
608.192	576.27
608.642	591.47
609.091	600.27
609.541	603.77
609.99	598.87
610.44	591.17
610.889	566.67
611.339	550.77
611.788	533.57
612.238	550.97
612.687	565.27
613.136	558.67
613.586	577.27
614.035	577.07
614.484	589.17
614.933	589.87
615.383	583.67
615.832	577.57
616.281	567.27
616.73	538.37
617.179	513.47
617.628	513.97
618.077	496.67
618.526	486.47
618.975	481.37
619.424	485.37
619.873	480.07
620.322	481.07
620.771	472.37
621.22	466.57
621.669	458.77
622.118	449.57
622.567	445.17
623.015	445.57
623.464	447.67
623.913	433.97
624.361	422.47
624.81	423.77
625.259	421.37
625.707	434.77
626.156	421.97
626.604	440.97
627.053	432.77
627.501	434.57
627.95	439.47
628.398	440.97
628.847	444.57
629.295	443.27
629.744	446.77
630.192	436.37
630.64	433.77
631.089	433.27
631.537	440.87
631.985	445.17
632.433	455.77
632.881	457.77
633.33	498.17
633.778	478.77
634.226	431.17
634.674	440.37
635.122	441.57
635.57	455.97
636.018	477.97
636.466	439.17
636.914	431.77
637.362	429.37
637.81	435.47
638.258	437.37
638.705	442.27
639.153	458.27
639.601	470.17
640.049	485.97
640.497	510.77
640.944	533.57
641.392	493.87
641.84	462.67
642.287	444.07
642.735	434.17
643.182	438.47
643.63	438.87
644.078	442.27
644.525	451.77
644.973	451.47
645.42	451.27
645.867	473.17
646.315	479.47
646.762	500.47
647.21	524.97
647.657	549.37
648.104	572.97
648.551	582.37
648.999	636.77
649.446	686.87
649.893	760.77
650.34	874.07
650.787	1038.97
651.234	1292.27
651.682	1683.17
652.129	2297.17
652.576	3282.37
653.023	4850.87
653.47	6772.17
653.917	8564.57
654.363	10096.17
654.81	11409.67
655.257	10833.47
655.704	7032.97
656.151	4078.17
656.598	2633.87
657.044	1865.07
657.491	1438.07
657.938	1153.07
658.385	952.27
658.831	824.17
659.278	734.47
659.724	651.87
660.171	591.87
660.618	545.97
661.064	524.67
661.511	493.77
661.957	487.77
662.404	469.27
662.85	486.97
663.296	455.87
663.743	425.77
664.189	401.37
664.635	399.67
665.082	394.97
665.528	389.27
665.974	384.47
666.42	379.17
666.867	374.57
667.313	363.97
667.759	362.97
668.205	357.77
668.651	360.87
669.097	370.97
669.543	379.87
669.989	355.57
670.435	329.87
670.881	340.07
671.327	335.37
671.773	355.47
672.219	368.07
672.665	404.67
673.11	435.47
673.556	464.17
674.002	505.37
674.448	501.37
674.893	411.57
675.339	361.77
675.785	328.37
676.23	314.47
676.676	299.17
677.122	286.17
677.567	272.77
678.013	272.17
678.458	266.37
678.904	269.17
679.349	260.87
679.794	257.27
680.24	260.67
680.685	267.57
681.131	260.07
681.576	264.87
682.021	265.47
682.466	260.77
682.912	259.67
683.357	255.47
683.802	279.67
684.247	298.67
684.692	335.57
685.137	364.07
685.583	400.17
686.028	416.87
686.473	388.27
686.918	329.67
687.363	308.87
687.807	289.97
688.252	273.37
688.697	264.87
689.142	242.07
689.587	242.67
690.032	243.77
690.477	255.07
690.921	259.07
691.366	284.57
691.811	303.97
692.255	315.97
692.7	344.77
693.145	357.77
693.589	502.77
694.034	810.77
694.478	1138.87
694.923	1310.97
695.367	1739.67
695.812	906.27
696.256	365.47
696.701	278.47
697.145	247.57
697.59	245.47
698.034	239.77
698.478	249.37
698.922	240.47
699.367	241.57
699.811	251.97
700.255	260.57
700.699	290.67
701.143	305.67
701.588	356.87
702.032	385.87
702.476	381.37
702.92	367.77
703.364	353.97
703.808	465.87
704.252	740.27
704.696	1058.37
705.14	1269.17
705.584	1640.87
706.027	806.87
706.471	393.07
706.915	292.67
707.359	255.97
707.803	232.47
708.246	225.27
708.69	233.67
709.134	229.77
709.577	228.97
710.021	233.37
710.465	235.37
710.908	225.77
711.352	217.57
711.795	232.67
712.239	260.77
712.682	283.27
713.126	308.17
713.569	357.07
714.012	275.77
714.456	238.57
714.899	222.07
715.342	204.47
715.786	193.87
716.229	189.67
716.672	186.37
717.115	179.77
717.558	187.27
718.002	186.77
718.445	200.87
718.888	210.07
719.331	213.17
719.774	227.37
720.217	221.17
720.66	211.17
721.103	192.47
721.546	184.17
721.989	184.87
722.432	170.77
722.874	169.57
723.317	161.87
723.76	170.67
724.203	183.27
724.645	235.07
725.088	313.87
725.531	418.37
725.974	485.17
726.416	419.67
726.859	224.67
727.301	184.17
727.744	173.67
728.187	170.97
728.629	177.27
729.071	174.27
729.514	195.87
729.956	199.37
730.399	214.77
730.841	213.47
731.283	197.37
731.726	197.57
732.168	187.47
732.61	196.77
733.053	211.77
733.495	232.87
733.937	255.87
734.379	297.37
734.821	313.37
735.263	398.07
735.705	593.97
736.148	1117.67
736.59	1892.17
737.032	2348.27
737.474	1920.47
737.916	610.27
738.357	318.87
738.799	244.37
739.241	225.87
739.683	211.27
740.125	217.17
740.567	213.77
741.008	234.77
741.45	234.77
741.892	223.97
742.334	259.67
742.775	268.57
743.217	255.07
743.658	196.37
744.1	184.67
744.542	194.87
744.983	232.47
745.425	266.37
745.866	267.47
746.307	213.87
746.749	210.47
747.19	233.07
747.632	321.97
748.073	614.07
748.514	1337.47
748.956	2122.47
749.397	2651.07
749.838	2219.87
750.279	2295.67
750.72	1150.77
751.162	416.07
751.603	238.17
752.044	190.07
752.485	156.37
752.926	152.87
753.367	139.47
753.808	144.57
754.249	135.67
754.69	129.57
755.131	134.87
755.572	133.27
756.013	124.47
756.453	127.07
756.894	139.37
757.335	138.87
757.776	143.27
758.216	138.17
758.657	151.37
759.098	151.07
759.538	162.37
759.979	190.47
760.42	265.07
760.86	489.67
761.301	1285.17
761.741	3255.87
762.182	5048.57
762.622	3556.07
763.063	1004.77
763.503	402.67
763.943	258.77
764.384	254.97
764.824	321.77
765.264	353.27
765.705	239.27
766.145	159.67
766.585	139.87
767.025	136.07
767.465	135.77
767.906	187.07
768.346	246.47
768.786	264.67
769.226	193.47
769.666	228.87
770.106	434.57
770.546	1105.87
770.986	2003.37
771.426	1846.17
771.866	608.27
772.306	241.07
772.745	154.87
773.185	121.87
773.625	127.97
774.065	119.57
774.505	140.47
774.944	226.77
775.384	488.17
775.824	955.17
776.263	955.27
776.703	395.27
777.142	171.77
777.582	111.67
778.021	103.37
778.461	106.77
778.9	105.07
779.34	103.67
779.779	87.87
780.219	77.17
780.658	77.87
781.097	82.37
781.537	84.77
781.976	81.37
782.415	77.67
782.855	78.07
783.294	65.77
783.733	80.77
784.172	81.77
784.611	71.27
785.05	74.87
785.489	77.17
785.928	85.57
786.367	91.37
786.806	93.17
787.245	90.87
787.684	103.57
788.123	107.77
788.562	99.77
789.001	94.27
789.44	84.77
789.879	89.47
790.317	86.27
790.756	95.87
791.195	85.77
791.634	101.97
792.072	141.77
792.511	258.97
792.95	715.17
793.388	1630.77
793.827	1524.77
794.265	519.57
794.704	208.77
795.142	133.17
795.581	111.77
796.019	98.77
796.458	91.27
796.896	84.07
797.334	98.47
797.773	114.37
798.211	158.37
798.649	306.77
799.087	744.07
799.526	1181.47
799.964	1498.27
800.402	1580.97
800.84	578.77
801.278	222.27
801.716	139.17
802.154	106.97
802.592	108.17
803.03	105.37
803.468	94.27
803.906	107.07
804.344	112.77
804.782	95.57
805.22	95.27
805.658	100.37
806.096	111.37
806.533	109.57
806.971	128.77
807.409	158.07
807.847	220.17
808.284	475.37
808.722	1356.47
809.16	2536.37
809.597	2313.07
810.035	4123.77
810.472	4678.17
810.91	1639.17
811.347	604.67
811.785	303.97
812.222	195.97
812.66	141.37
813.097	119.37
813.535	102.67
813.972	93.37
814.409	85.47
814.846	82.77
815.284	82.57
815.721	73.87
816.158	77.67
816.595	84.27
817.032	132.67
817.47	157.97
817.907	133.77
818.344	115.67
818.781	87.77
819.218	72.37
819.655	95.87
820.092	145.17
820.529	167.57
820.966	139.37
821.403	97.77
821.839	84.27
822.276	75.47
822.713	88.47
823.15	107.97
823.587	88.47
824.023	103.07
824.46	211.77
824.897	666.47
825.333	1058.97
825.77	449.37
826.206	172.17
826.643	104.17
827.08	74.47
827.516	57.47
827.953	55.37
828.389	61.57
828.825	52.57
829.262	44.57
829.698	46.07
830.135	47.17
830.571	45.77
831.007	41.67
831.443	45.17
831.88	41.77
832.316	44.47
832.752	47.47
833.188	43.77
833.624	46.47
834.06	47.07
834.497	44.97
834.933	50.87
835.369	59.67
835.805	47.37
836.241	56.57
836.677	55.07
837.112	54.57
837.548	77.07
837.984	93.07
838.42	139.67
838.856	355.27
839.292	1123.87
839.727	1812.67
840.163	832.47
840.599	678.87
841.034	1533.97
841.47	1694.57
841.906	607.17
842.341	251.57
842.777	169.07
843.212	242.27
843.648	242.17
844.083	118.67
844.519	72.67
844.954	57.27
845.39	42.37
845.825	41.87
846.261	46.47
846.696	41.07
847.131	38.57
847.566	40.47
848.002	40.87
848.437	40.47
848.872	42.87
849.307	45.97
849.742	55.37
850.177	124.07
850.613	403.07
851.048	676.57
851.483	290.97
851.918	110.67
852.353	59.17
852.788	39.97
853.223	37.67
853.657	37.27
854.092	33.27
854.527	24.97
854.962	34.97
855.397	34.47
855.832	39.17
856.266	31.67
856.701	29.37
857.136	30.17
857.57	24.07
858.005	38.07
858.44	46.67
858.874	35.97
859.309	36.87
859.743	29.17
860.178	31.97
860.612	26.87
861.047	43.27
861.481	52.97
861.915	55.47
862.35	35.57
862.784	21.07
863.218	30.37
863.653	22.07
864.087	35.37
864.521	47.47
864.955	51.27
865.39	113.87
865.824	141.57
866.258	85.17
866.692	124.57
867.126	143.67
867.56	82.57
867.994	40.47
868.428	23.97
868.862	34.87
869.296	41.37
869.73	46.17
870.164	39.87
870.598	38.57
871.031	26.47
871.465	20.07
871.899	22.77
872.333	19.27
872.766	16.07
873.2	8.77
873.634	23.87
874.067	17.57
874.501	19.87
874.935	24.37
875.368	19.57
875.802	21.77
876.235	13.37
876.669	18.67
877.102	15.97
877.535	14.67
877.969	16.07
878.402	15.97
878.836	11.07
879.269	21.17
879.702	12.67
880.135	12.97
880.569	14.87
881.002	23.17
881.435	15.97
881.868	9.97
882.301	17.27
882.734	3.97
883.167	15.87
883.601	12.57
884.034	12.67
884.467	11.37
884.899	7.47
885.332	11.27
885.765	6.37
886.198	10.27
886.631	10.67
887.064	18.47
887.497	11.67
887.929	18.27
888.362	9.37
888.795	7.07
889.228	7.57
889.66	10.67
890.093	15.47
890.526	14.37
890.958	11.67
891.391	10.37
891.823	14.97
892.256	11.57
892.688	10.87
893.121	8.07
893.553	4.17
893.985	19.57
894.418	13.87
894.85	8.47
895.282	7.27
895.715	13.67
896.147	13.27
896.579	15.47
897.011	11.87
897.444	14.67
897.876	8.57
898.308	4.77
898.74	11.97
899.172	8.47
899.604	18.67
900.036	10.37
900.468	11.47
900.9	8.27
901.332	8.37
901.764	8.57
902.196	14.67
902.628	20.17
903.06	11.07
903.491	23.37
903.923	18.97
904.355	14.57
904.787	15.37
905.218	15.97
905.65	15.47
906.082	6.97
906.513	8.57
906.945	9.87
907.376	9.17
907.808	9.77
908.239	11.27
908.671	9.87
909.102	15.27
909.534	19.47
909.965	31.77
910.397	67.87
910.828	242.77
911.259	383.17
911.691	164.07
912.122	84.27
912.553	38.07
912.984	26.77
913.415	15.97
913.847	13.17
914.278	11.97
914.709	12.77
915.14	15.47
915.571	8.77
916.002	6.67
916.433	16.47
916.864	16.67
917.295	8.07
917.726	11.87
918.157	16.67
918.587	21.27
919.018	15.77
919.449	11.37
919.88	20.57
920.311	24.47
920.741	29.17
921.172	122.17
921.603	118.27
922.033	52.57
922.464	30.67
922.895	21.77
923.325	13.17
923.756	10.07
924.186	10.07
924.617	20.27
925.047	26.57
925.478	43.87
925.908	33.07
926.338	17.57
926.769	13.87
927.199	13.47
927.629	10.47
928.06	16.37
928.49	9.67
928.92	11.07
929.35	5.37
929.78	9.67
930.21	6.17
930.641	8.77
931.071	7.17
931.501	7.07
931.931	4.27
932.361	3.07
932.791	-0.93
933.221	-2.43
933.651	3.57
934.08	11.27
934.51	21.37
934.94	5.77
935.37	6.67
935.8	3.37
936.229	3.27
936.659	5.37
937.089	-1.83
937.519	9.87
937.948	21.17
938.378	13.27
938.807	0.37
939.237	-0.73
939.666	0.87
940.096	-3.53
940.525	-1.93
940.955	0.17
941.384	-2.73
941.814	-8.83
942.243	-5.23
942.672	-3.33
943.102	-1.73
943.531	4.37
943.96	4.77
944.39	-1.83
944.819	-2.03
945.248	0.37
945.677	1.37
946.106	3.67
946.535	2.07
946.964	0.77
947.393	-2.83
947.822	-1.33
948.251	-10.63
948.68	-1.43
949.109	8.77
949.538	0.97
949.967	3.97
950.396	0.57
950.825	0.27
951.254	-5.73
951.682	-4.43
952.111	7.47
952.54	6.57
952.969	-4.03
953.397	-6.33
953.826	-3.13
954.254	-8.43
954.683	0.37
955.112	-0.03
955.54	-1.03
955.969	-2.73
956.397	0.07
956.826	-2.83
957.254	3.27
957.682	2.67
958.111	6.47
958.539	-1.43
958.967	-0.13
959.396	-2.63
959.824	-0.73
960.252	2.67
960.68	-9.53
961.109	-6.93
961.537	2.07
961.965	-3.23
962.393	2.97
962.821	-3.83
963.249	0.27
963.677	2.77
964.105	4.27
964.533	31.27
964.961	27.57
965.389	11.57
965.817	6.17
966.245	0.77
966.672	0.07
967.1	0.37
967.528	1.87
967.956	-3.43
968.383	-3.23
968.811	-5.83
969.239	-1.33
969.666	-1.53
970.094	6.77
970.522	5.27
970.949	1.77
971.377	-2.03
971.804	-8.83
972.232	-4.73
972.659	0.17
973.087	-0.93
973.514	-4.13
973.941	-5.83
974.369	3.57
974.796	5.07
975.223	-0.93
975.651	-5.03
976.078	0.17
976.505	6.27
976.932	-6.23
977.359	11.07
977.786	10.57
978.214	-6.23
978.641	-4.03
979.068	-8.33
979.495	-4.13
979.922	1.77
980.349	0.77
980.776	3.57
981.202	2.57
981.629	2.27
982.056	1.17
982.483	-6.33
982.91	8.27
983.337	-2.73
983.763	1.37
984.19	-0.53
984.617	-10.93
985.043	-5.63
985.47	-0.23
985.897	-3.33
986.323	-5.23
986.75	2.57
987.176	-2.23
987.603	-4.33
988.029	4.77
988.456	-1.33
988.882	-0.03
989.308	-8.63
989.735	-5.83
990.161	2.47
990.587	-4.93
991.014	0.77
991.44	2.37
991.866	-3.33
992.292	-7.63
992.719	-4.03
993.145	2.57
993.571	-11.63
993.997	-0.83
994.423	-1.93
994.849	-1.93
995.275	-0.13
995.701	7.97
996.127	1.17
996.553	-1.03
996.979	-2.23
997.405	0.57
997.83	-5.43
998.256	-5.53
998.682	-9.73
999.108	-8.03
999.534	-1.93
999.959	-3.83
1000.385	-3.03
1000.811	1.87
1001.236	-3.03
1001.662	-8.23
1002.087	-12.33
1002.513	-2.23
1002.938	2.57
1003.364	-1.73
1003.789	1.37
1004.215	3.67
1004.64	-3.33
1005.066	1.47
1005.491	-0.53
1005.916	-3.33
1006.342	1.07
1006.767	-15.63
1007.192	-1.23
1007.617	-4.73
1008.042	-5.03
1008.468	-7.63
1008.893	-7.33
1009.318	-5.23
1009.743	-2.83
1010.168	-0.23
1010.593	-0.13
1011.018	-9.53
1011.443	-11.43
1011.868	6.47
1012.293	-10.13
1012.718	-7.43
1013.143	-0.03
1013.567	3.67
1013.992	-2.23
1014.417	-17.93
1014.842	0.07
1015.267	-11.43
1015.691	-7.33
1016.116	-2.23
1016.541	-0.33
1016.965	-1.23
1017.39	4.77
1017.814	2.37
1018.239	-0.63
1018.663	-5.33
1019.088	-14.73
1019.512	-3.53
1019.937	-4.83
1020.361	-4.53
1020.785	-12.53
1021.21	-5.33
1021.634	-6.33
1022.058	-1.83
1022.483	3.67
1022.907	-4.63
1023.331	-4.13
1023.755	-8.03
1024.179	1.07
1024.604	-0.13
1025.028	-2.83
1025.452	-5.13
1025.876	-3.13
1026.3	-2.23
1026.724	-17.63
1027.148	-2.93
1027.572	-9.93
1027.996	-8.83
1028.42	-5.13
1028.843	-9.83
1029.267	-7.43
1029.691	-9.43
1030.115	-13.23
1030.539	-10.73
1030.962	-3.03
1031.386	-11.03
1031.81	3.67
1032.233	0.27
1032.657	1.17
1033.08	-0.43
1033.504	-3.93
1033.927	-5.13
1034.351	-5.03
1034.774	-0.13
1035.198	-3.73
1035.621	-0.43
1036.045	-5.43
1036.468	-2.63
1036.891	-8.13
1037.315	-14.03
1037.738	-13.73
1038.161	-5.43
1038.584	-9.43
1039.008	-8.33
1039.431	0.67
1039.854	-9.13
1040.277	-11.33
1040.7	-9.73
1041.123	-0.93
1041.546	-7.23
1041.969	-3.63
1042.392	-6.03
1042.815	-9.03
1043.238	7.07
1043.661	1.77
1044.084	-7.33
1044.507	-0.23
1044.93	-9.13
1045.352	-1.93
1045.775	-1.83
1046.198	4.27
1046.621	-4.63
1047.043	-3.03
1047.466	9.37
1047.889	-4.03
1048.311	-1.03
1048.734	0.27
1049.156	-5.03
1049.579	-7.83
1050.001	1.37
1050.424	1.77
1050.846	-6.93
1051.269	-9.23
1051.691	-1.53
1052.113	-6.83
1052.536	-2.23
1052.958	-0.53
1053.38	-7.23
1053.802	-16.23
1054.225	-1.13
1054.647	-9.93
1055.069	-4.23
1055.491	5.37
1055.913	-6.23
1056.335	1.07
1056.757	-5.53
1057.179	-2.43
1057.601	-3.43
1058.023	-6.03
1058.445	-3.63
1058.867	-6.63
1059.289	-2.03
1059.711	-4.53
1060.133	-3.83
1060.555	-11.43
1060.976	-4.93
1061.398	-1.23
1061.82	-7.33
1062.241	-3.03
1062.663	-10.23
1063.085	-4.53
1063.506	-1.43
1063.928	-4.63
1064.35	-0.03
1064.771	-8.83
1065.193	0.57
1065.614	-8.73
1066.035	0.37
1066.457	-6.33
1066.878	3.47
1067.3	-9.33
1067.721	-2.13
1068.142	-4.03
1068.564	-5.23
1068.985	-5.63
1069.406	-7.53
1069.827	-4.73
1070.248	-6.03
1070.67	-6.13
1071.091	-6.43
1071.512	-3.03
1071.933	-6.83
1072.354	-7.43
1072.775	-3.63
1073.196	-9.63
1073.617	-9.63
1074.038	-8.23
1074.459	-4.33
1074.88	-8.63
1075.3	4.07
1075.721	-5.23
1076.142	-0.13
1076.563	-4.93
1076.983	-7.73
1077.404	-1.73
1077.825	-10.83
1078.246	-6.53
1078.666	-14.83
1079.087	-6.13
1079.507	-7.13
1079.928	0.07
1080.348	-3.63
1080.769	0.47
1081.189	1.27
1081.61	-4.83
1082.03	-5.93
1082.451	-9.13
1082.871	-5.03
1083.291	-9.63
1083.711	-8.13
1084.132	-3.03
1084.552	-9.73
1084.972	-1.93
1085.392	-13.53
1085.813	-14.13
1086.233	-7.23
1086.653	1.47
1087.073	-0.13
1087.493	-5.83
1087.913	-11.33
1088.333	-5.93
1088.753	-3.23
1089.173	-0.33
1089.593	-9.03
1090.013	-3.63
1090.433	2.27
1090.852	-6.03
1091.272	-0.23
1091.692	-4.33
1092.112	-0.73
1092.531	-14.53
1092.951	-18.43
1093.371	-2.63
1093.79	4.77
1094.21	-0.73
1094.63	-11.13
1095.049	-3.33
1095.469	-5.93
1095.888	2.87
1096.308	1.67
1096.727	1.47
1097.146	-3.63
1097.566	1.77
1097.985	-4.33
1098.405	-6.43
1098.824	-4.23
1099.243	-6.33
1099.662	-7.13
1100.082	-5.23
1100.501	-0.03
1100.92	-7.53
1101.339	-9.63
1101.758	-4.43
