Data from 20171114-ORNL-Ar_H_NY_Subt18_08-04-05-611.txt Node
Date: Tue Nov 14 08:04:05 EST 2017
User: Ender
Spectrometer: HR+D1039
Trigger mode: 0
Integration Time (sec): 2.730000E-2
Scans to average: 10
Electric dark correction enabled: true
Nonlinearity correction enabled: false
Boxcar width: 0
XAxis mode: Wavelengths
Number of Pixels in Spectrum: 2048
>>>>>Begin Spectral Data<<<<<
187.836	-3.98
188.309	-3.98
188.782	-3.98
189.255	4.22
189.728	-2.98
190.201	7.42
190.674	0.82
191.147	-3.98
191.619	-4.78
192.092	0.02
192.565	4.42
193.038	2.92
193.511	0.02
193.984	0.12
194.456	2.12
194.929	-1.08
195.402	-5.18
195.874	-0.08
196.347	3.52
196.82	-5.18
197.292	6.42
197.765	3.62
198.237	-7.98
198.71	1.82
199.182	0.12
199.655	3.02
200.127	4.72
200.6	-1.88
201.072	-3.48
201.544	-5.48
202.017	2.82
202.489	-1.48
202.961	-4.58
203.433	-2.88
203.906	-4.48
204.378	-6.78
204.85	-5.58
205.322	-10.88
205.794	-0.98
206.266	-3.48
206.739	-7.18
207.211	3.32
207.683	-12.38
208.155	-4.58
208.627	-7.78
209.099	-7.68
209.57	-7.28
210.042	-4.78
210.514	-2.98
210.986	-6.18
211.458	-5.58
211.93	-3.98
212.402	2.02
212.873	-1.98
213.345	-12.88
213.817	-13.28
214.288	-7.78
214.76	-5.58
215.232	-0.78
215.703	-4.48
216.175	-8.08
216.646	-0.68
217.118	-7.58
217.589	-5.78
218.061	-5.58
218.532	-1.98
219.004	0.22
219.475	-4.68
219.946	1.42
220.418	-4.68
220.889	5.32
221.36	2.62
221.832	-3.58
222.303	-6.88
222.774	-4.28
223.245	-6.78
223.717	-4.38
224.188	-3.78
224.659	-6.88
225.13	-8.38
225.601	-2.38
226.072	-2.08
226.543	-1.58
227.014	2.82
227.485	-0.38
227.956	-5.58
228.427	-2.08
228.898	-1.98
229.369	9.02
229.839	-6.18
230.31	-4.18
230.781	2.22
231.252	-5.68
231.722	-7.38
232.193	-2.68
232.664	-0.48
233.135	1.22
233.605	-1.38
234.076	-6.88
234.546	0.52
235.017	0.72
235.487	6.12
235.958	-3.68
236.428	-3.58
236.899	-1.58
237.369	0.22
237.84	0.42
238.31	6.02
238.78	4.82
239.251	-1.98
239.721	3.92
240.191	-1.38
240.662	-1.28
241.132	1.42
241.602	-3.28
242.072	0.12
242.542	2.02
243.013	1.32
243.483	5.22
243.953	3.82
244.423	-0.38
244.893	-8.78
245.363	-1.38
245.833	3.42
246.303	-1.48
246.773	2.22
247.243	-0.08
247.712	4.52
248.182	7.72
248.652	11.12
249.122	-4.18
249.592	1.62
250.061	8.62
250.531	26.62
251.001	6.82
251.471	14.32
251.94	10.22
252.41	7.12
252.879	-2.98
253.349	8.52
253.818	5.72
254.288	4.12
254.757	1.62
255.227	0.02
255.696	2.12
256.166	1.92
256.635	6.22
257.105	7.82
257.574	1.22
258.043	5.52
258.513	6.72
258.982	10.72
259.451	7.42
259.92	11.32
260.389	7.02
260.859	10.02
261.328	14.42
261.797	14.02
262.266	10.42
262.735	10.22
263.204	5.92
263.673	2.22
264.142	3.32
264.611	3.52
265.08	-0.78
265.549	-3.38
266.018	5.42
266.487	-0.58
266.955	-5.88
267.424	-5.78
267.893	-0.28
268.362	2.52
268.83	0.52
269.299	11.02
269.768	5.22
270.236	-1.08
270.705	2.02
271.174	3.52
271.642	8.52
272.111	8.72
272.579	9.32
273.048	11.02
273.516	18.02
273.985	10.12
274.453	16.22
274.922	11.32
275.39	10.92
275.858	2.52
276.327	8.02
276.795	20.52
277.263	7.12
277.731	21.52
278.2	25.82
278.668	37.62
279.136	29.52
279.604	16.72
280.072	8.92
280.54	14.02
281.008	4.12
281.477	9.72
281.945	10.62
282.413	13.82
282.881	11.32
283.348	6.92
283.816	9.62
284.284	9.52
284.752	16.72
285.22	16.82
285.688	9.32
286.156	11.02
286.623	25.82
287.091	32.72
287.559	11.92
288.026	8.62
288.494	15.62
288.962	-0.98
289.429	1.02
289.897	8.22
290.364	7.72
290.832	13.42
291.3	5.22
291.767	7.32
292.234	16.72
292.702	8.72
293.169	10.52
293.637	16.72
294.104	9.92
294.571	1.32
295.039	2.92
295.506	15.12
295.973	11.72
296.44	10.02
296.908	6.52
297.375	12.42
297.842	16.22
298.309	13.62
298.776	3.12
299.243	15.32
299.71	1.32
300.177	7.52
300.644	15.42
301.111	16.72
301.578	15.92
302.045	12.52
302.512	17.42
302.979	14.82
303.446	13.62
303.913	14.62
304.379	7.72
304.846	21.62
305.313	19.42
305.78	17.52
306.246	16.12
306.713	20.22
307.18	24.32
307.646	25.22
308.113	20.12
308.579	18.42
309.046	19.52
309.512	18.02
309.979	15.02
310.445	20.62
310.912	23.92
311.378	29.22
311.845	23.22
312.311	16.42
312.777	24.22
313.244	21.52
313.71	27.22
314.176	25.42
314.642	23.72
315.109	20.32
315.575	22.32
316.041	28.02
316.507	22.72
316.973	25.02
317.439	26.12
317.905	27.52
318.371	30.12
318.837	17.02
319.303	29.32
319.769	25.12
320.235	25.02
320.701	27.12
321.167	29.32
321.633	25.22
322.099	28.02
322.564	31.12
323.03	35.82
323.496	28.52
323.962	28.82
324.427	24.92
324.893	33.42
325.359	30.02
325.824	31.12
326.29	27.42
326.755	31.52
327.221	30.32
327.686	32.32
328.152	35.42
328.617	33.12
329.083	39.42
329.548	39.92
330.014	31.52
330.479	29.62
330.944	33.62
331.41	32.82
331.875	37.72
332.34	34.12
332.805	30.52
333.271	37.12
333.736	29.32
334.201	40.32
334.666	42.12
335.131	42.72
335.596	41.12
336.061	38.02
336.526	30.82
336.991	41.02
337.456	47.02
337.921	36.02
338.386	35.32
338.851	34.42
339.316	45.52
339.781	31.52
340.246	45.22
340.711	37.22
341.175	45.22
341.64	28.82
342.105	42.82
342.569	41.22
343.034	50.52
343.499	38.72
343.963	40.82
344.428	54.92
344.893	50.12
345.357	47.22
345.822	51.12
346.286	48.02
346.751	53.02
347.215	49.52
347.679	54.22
348.144	70.82
348.608	60.52
349.073	52.82
349.537	59.22
350.001	55.32
350.465	70.12
350.93	63.52
351.394	65.32
351.858	56.32
352.322	75.72
352.786	61.62
353.25	69.02
353.715	79.02
354.179	79.72
354.643	94.12
355.107	90.42
355.571	83.92
356.035	84.82
356.498	87.32
356.962	91.22
357.426	101.02
357.89	87.22
358.354	74.82
358.818	73.12
359.281	73.62
359.745	62.52
360.209	61.32
360.673	61.22
361.136	74.02
361.6	67.82
362.064	71.62
362.527	68.52
362.991	74.02
363.454	66.72
363.918	64.42
364.381	66.82
364.845	70.52
365.308	72.22
365.772	69.12
366.235	74.22
366.698	65.62
367.162	71.02
367.625	77.02
368.088	75.52
368.552	73.92
369.015	72.82
369.478	79.92
369.941	87.42
370.404	78.12
370.867	84.52
371.331	88.22
371.794	89.52
372.257	89.02
372.72	101.72
373.183	91.32
373.646	86.42
374.109	83.32
374.572	92.82
375.035	89.42
375.497	84.72
375.96	85.42
376.423	87.62
376.886	93.92
377.349	88.32
377.811	80.62
378.274	93.22
378.737	86.32
379.199	92.02
379.662	89.92
380.125	90.62
380.587	103.72
381.05	107.12
381.512	106.02
381.975	116.22
382.437	107.12
382.9	115.42
383.362	106.52
383.825	117.22
384.287	114.42
384.75	118.82
385.212	116.52
385.674	117.72
386.136	113.82
386.599	110.12
387.061	112.42
387.523	109.42
387.985	112.02
388.447	124.82
388.91	117.82
389.372	137.92
389.834	126.32
390.296	119.52
390.758	124.42
391.22	145.42
391.682	163.32
392.144	231.22
392.606	188.92
393.068	137.62
393.529	136.32
393.991	130.32
394.453	120.42
394.915	128.42
395.377	155.82
395.838	175.02
396.3	139.22
396.762	121.92
397.224	119.82
397.685	114.92
398.147	114.22
398.608	115.22
399.07	108.32
399.531	117.32
399.993	118.32
400.454	133.02
400.916	127.02
401.377	122.12
401.839	125.12
402.3	128.42
402.762	144.62
403.223	153.92
403.684	148.02
404.145	137.82
404.607	142.22
405.068	135.32
405.529	148.02
405.99	155.62
406.451	153.22
406.913	150.12
407.374	141.12
407.835	144.52
408.296	144.32
408.757	148.62
409.218	156.02
409.679	155.12
410.14	155.72
410.601	158.32
411.062	159.02
411.522	169.92
411.983	167.52
412.444	156.72
412.905	155.02
413.366	156.32
413.826	172.62
414.287	185.82
414.748	230.82
415.208	222.22
415.669	189.82
416.13	181.72
416.59	174.12
417.051	188.52
417.511	192.92
417.972	211.62
418.432	221.92
418.893	259.92
419.353	228.82
419.814	176.32
420.274	161.42
420.734	154.52
421.195	172.92
421.655	170.72
422.115	166.72
422.576	165.22
423.036	173.82
423.496	180.32
423.956	186.92
424.416	195.12
424.876	231.62
425.336	230.82
425.797	229.02
426.257	219.02
426.717	204.22
427.177	199.42
427.637	195.02
428.097	214.72
428.556	216.82
429.016	235.22
429.476	228.12
429.936	232.92
430.396	248.82
430.856	254.32
431.315	270.02
431.775	293.02
432.235	320.72
432.694	299.82
433.154	307.72
433.614	320.82
434.073	289.82
434.533	244.52
434.993	235.72
435.452	239.32
435.912	244.02
436.371	241.72
436.83	231.82
437.29	231.82
437.749	213.42
438.209	213.32
438.668	231.92
439.127	238.42
439.587	227.82
440.046	208.22
440.505	213.52
440.964	228.92
441.424	262.62
441.883	246.22
442.342	220.12
442.801	193.12
443.26	197.72
443.719	200.62
444.178	190.32
444.637	179.52
445.096	190.42
445.555	190.52
446.014	199.62
446.473	196.82
446.932	200.62
447.391	193.92
447.849	200.82
448.308	192.52
448.767	197.22
449.226	209.52
449.685	205.52
450.143	215.92
450.602	210.22
451.061	199.62
451.519	199.42
451.978	203.32
452.436	201.12
452.895	210.42
453.353	218.62
453.812	206.92
454.27	218.02
454.729	206.52
455.187	208.82
455.646	210.52
456.104	212.92
456.562	227.02
457.021	223.62
457.479	223.12
457.937	222.52
458.395	223.22
458.854	208.62
459.312	223.62
459.77	238.52
460.228	216.72
460.686	207.22
461.144	216.82
461.602	214.92
462.06	207.02
462.518	226.52
462.976	227.52
463.434	228.12
463.892	225.12
464.35	239.82
464.808	248.12
465.266	239.02
465.724	239.42
466.181	236.62
466.639	240.52
467.097	257.82
467.555	264.62
468.012	258.02
468.47	267.92
468.928	283.82
469.385	296.02
469.843	301.62
470.3	294.92
470.758	304.62
471.215	313.82
471.673	332.42
472.13	340.02
472.588	347.52
473.045	309.22
473.503	325.82
473.96	344.72
474.417	347.92
474.875	381.52
475.332	409.42
475.789	402.72
476.246	407.02
476.704	421.22
477.161	435.92
477.618	449.82
478.075	477.22
478.532	521.12
478.989	574.42
479.446	665.92
479.903	648.52
480.36	692.62
480.817	737.92
481.274	828.42
481.731	924.52
482.188	1006.32
482.645	1129.62
483.102	1222.62
483.558	1329.22
484.015	1380.72
484.472	1366.02
484.929	1329.92
485.385	1291.12
485.842	1246.42
486.299	1184.42
486.755	1101.52
487.212	941.72
487.668	810.02
488.125	753.82
488.582	679.92
489.038	650.52
489.494	621.42
489.951	590.82
490.407	576.42
490.864	570.92
491.32	560.82
491.776	559.72
492.233	552.82
492.689	526.02
493.145	520.42
493.602	521.42
494.058	526.52
494.514	530.92
494.97	536.62
495.426	540.62
495.882	532.52
496.338	522.52
496.794	535.12
497.251	528.82
497.707	546.02
498.163	544.72
498.618	543.52
499.074	551.92
499.53	570.52
499.986	573.82
500.442	561.22
500.898	538.92
501.354	539.82
501.809	548.22
502.265	547.72
502.721	566.22
503.177	575.32
503.632	576.22
504.088	575.32
504.543	594.02
504.999	592.72
505.455	558.52
505.91	538.42
506.366	545.12
506.821	534.02
507.277	542.42
507.732	537.72
508.187	536.02
508.643	550.12
509.098	543.12
509.553	564.32
510.009	562.92
510.464	573.72
510.919	587.22
511.375	598.02
511.83	595.22
512.285	615.22
512.74	652.92
513.195	661.32
513.65	652.32
514.105	663.52
514.56	660.22
515.015	683.32
515.47	693.72
515.925	670.22
516.38	671.42
516.835	675.02
517.29	673.02
517.745	669.42
518.2	655.42
518.655	641.62
519.109	631.72
519.564	639.32
520.019	616.62
520.474	622.62
520.928	619.82
521.383	615.12
521.838	601.02
522.292	603.12
522.747	601.92
523.201	593.62
523.656	597.32
524.11	591.12
524.565	595.62
525.019	584.72
525.474	587.42
525.928	594.42
526.382	592.52
526.837	597.72
527.291	591.72
527.745	582.42
528.2	580.02
528.654	579.02
529.108	578.92
529.562	580.52
530.016	584.52
530.47	579.02
530.925	595.32
531.379	592.22
531.833	601.12
532.287	590.72
532.741	590.92
533.195	600.22
533.649	606.92
534.103	604.12
534.556	598.12
535.01	596.12
535.464	589.52
535.918	596.12
536.372	608.62
536.826	608.82
537.279	594.32
537.733	597.62
538.187	594.22
538.64	587.42
539.094	602.42
539.548	608.02
540.001	601.32
540.455	606.02
540.908	619.22
541.362	622.62
541.815	624.02
542.269	631.52
542.722	634.92
543.175	639.32
543.629	643.92
544.082	653.12
544.536	656.82
544.989	647.82
545.442	663.92
545.895	659.22
546.349	659.72
546.802	661.72
547.255	660.12
547.708	673.02
548.161	679.52
548.614	686.02
549.067	689.82
549.52	680.82
549.973	667.72
550.426	666.92
550.879	658.42
551.332	658.22
551.785	672.42
552.238	667.12
552.691	679.12
553.144	679.82
553.596	694.62
554.049	717.72
554.502	729.92
554.955	744.02
555.407	751.92
555.86	738.92
556.313	730.22
556.765	735.42
557.218	729.32
557.67	726.22
558.123	718.32
558.576	719.42
559.028	715.22
559.48	712.72
559.933	717.52
560.385	684.92
560.838	672.02
561.29	639.42
561.742	647.02
562.195	640.72
562.647	621.82
563.099	636.32
563.551	626.02
564.004	643.62
564.456	635.42
564.908	611.12
565.36	607.92
565.812	597.32
566.264	597.62
566.716	580.72
567.168	579.42
567.62	582.12
568.072	564.82
568.524	553.42
568.976	551.92
569.428	544.92
569.88	532.52
570.332	547.02
570.784	543.62
571.235	553.92
571.687	560.22
572.139	568.82
572.59	571.62
573.042	572.22
573.494	570.12
573.945	569.22
574.397	553.12
574.849	555.72
575.3	562.12
575.752	559.72
576.203	542.12
576.655	548.82
577.106	530.32
577.557	527.72
578.009	540.72
578.46	533.92
578.912	528.82
579.363	533.82
579.814	527.42
580.265	532.72
580.717	530.62
581.168	527.02
581.619	534.42
582.07	540.22
582.521	536.52
582.972	537.32
583.423	542.02
583.875	542.52
584.326	558.82
584.777	599.22
585.227	650.92
585.678	714.52
586.129	772.32
586.58	844.82
587.031	914.32
587.482	1050.92
587.933	1201.42
588.384	1042.02
588.834	773.32
589.285	635.72
589.736	622.52
590.186	613.22
590.637	609.72
591.088	595.02
591.538	590.52
591.989	585.22
592.439	569.12
592.89	566.32
593.34	552.52
593.791	556.42
594.241	551.92
594.692	552.42
595.142	545.02
595.593	550.12
596.043	554.32
596.493	561.22
596.943	563.82
597.394	568.72
597.844	560.42
598.294	572.22
598.744	583.22
599.195	615.62
599.645	631.42
600.095	664.22
600.545	717.22
600.995	752.32
601.445	797.92
601.895	846.72
602.345	902.22
602.795	883.92
603.245	845.22
603.695	798.42
604.145	747.22
604.594	718.62
605.044	677.42
605.494	622.42
605.944	585.22
606.393	581.52
606.843	569.12
607.293	577.42
607.743	564.02
608.192	569.92
608.642	584.42
609.091	581.62
609.541	599.92
609.99	587.12
610.44	587.22
610.889	557.52
611.339	539.52
611.788	539.62
612.238	549.82
612.687	559.72
613.136	547.92
613.586	571.22
614.035	565.22
614.484	584.92
614.933	589.92
615.383	570.82
615.832	560.02
616.281	556.72
616.73	537.42
617.179	523.92
617.628	504.32
618.077	479.42
618.526	485.32
618.975	473.82
619.424	476.52
619.873	462.52
620.322	476.62
620.771	466.22
621.22	465.32
621.669	454.02
622.118	456.62
622.567	442.92
623.015	421.42
623.464	434.22
623.913	429.22
624.361	429.22
624.81	422.92
625.259	428.42
625.707	431.42
626.156	428.82
626.604	434.12
627.053	430.72
627.501	430.12
627.95	433.02
628.398	433.52
628.847	435.12
629.295	427.52
629.744	442.22
630.192	435.72
630.64	435.32
631.089	429.62
631.537	431.22
631.985	426.82
632.433	441.52
632.881	451.02
633.33	485.32
633.778	462.12
634.226	419.12
634.674	430.02
635.122	432.92
635.57	446.62
636.018	463.32
636.466	443.82
636.914	418.72
637.362	432.02
637.81	436.82
638.258	432.22
638.705	432.72
639.153	456.42
639.601	466.32
640.049	482.12
640.497	504.92
640.944	528.82
641.392	476.02
641.84	473.82
642.287	445.72
642.735	424.22
643.182	434.32
643.63	426.52
644.078	425.52
644.525	442.92
644.973	441.92
645.42	454.92
645.867	467.62
646.315	481.32
646.762	500.32
647.21	519.22
647.657	546.72
648.104	569.32
648.551	578.42
648.999	626.82
649.446	686.72
649.893	747.82
650.34	856.42
650.787	1021.72
651.234	1269.42
651.682	1641.82
652.129	2226.42
652.576	3210.12
653.023	4743.62
653.47	6623.22
653.917	8349.82
654.363	9849.82
654.81	11146.42
655.257	10571.82
655.704	6901.02
656.151	4016.02
656.598	2594.62
657.044	1839.92
657.491	1408.42
657.938	1116.12
658.385	936.22
658.831	807.82
659.278	727.02
659.724	642.12
660.171	595.42
660.618	537.22
661.064	508.62
661.511	491.02
661.957	468.72
662.404	464.82
662.85	469.92
663.296	449.42
663.743	419.72
664.189	399.72
664.635	398.82
665.082	383.72
665.528	387.42
665.974	382.82
666.42	380.52
666.867	374.72
667.313	354.72
667.759	353.42
668.205	357.42
668.651	353.92
669.097	364.52
669.543	376.02
669.989	346.92
670.435	335.02
670.881	329.62
671.327	336.82
671.773	346.22
672.219	362.82
672.665	402.62
673.11	430.92
673.556	464.82
674.002	497.72
674.448	490.82
674.893	413.52
675.339	356.82
675.785	333.42
676.23	303.92
676.676	289.92
677.122	276.32
677.567	280.92
678.013	276.42
678.458	269.92
678.904	263.92
679.349	254.92
679.794	260.32
680.24	258.92
680.685	263.12
681.131	260.02
681.576	258.32
682.021	263.42
682.466	261.02
682.912	258.72
683.357	260.42
683.802	273.12
684.247	295.52
684.692	329.12
685.137	361.02
685.583	397.92
686.028	424.22
686.473	388.52
686.918	329.82
687.363	306.32
687.807	285.42
688.252	263.92
688.697	261.22
689.142	242.82
689.587	248.92
690.032	233.52
690.477	246.42
690.921	252.22
691.366	273.72
691.811	303.92
692.255	306.12
692.7	337.52
693.145	367.72
693.589	492.42
694.034	807.02
694.478	1120.62
694.923	1304.92
695.367	1744.92
695.812	903.52
696.256	372.02
696.701	270.92
697.145	255.22
697.59	240.72
698.034	233.22
698.478	251.52
698.922	250.12
699.367	242.42
699.811	248.72
700.255	261.02
700.699	281.12
701.143	313.82
701.588	354.22
702.032	375.22
702.476	376.02
702.92	365.02
703.364	354.32
703.808	454.32
704.252	730.42
704.696	1050.02
705.14	1259.22
705.584	1643.32
706.027	801.92
706.471	388.62
706.915	289.52
707.359	252.72
707.803	226.52
708.246	233.52
708.69	229.32
709.134	234.02
709.577	229.52
710.021	235.52
710.465	227.82
710.908	221.02
711.352	215.22
711.795	227.32
712.239	255.72
712.682	280.12
713.126	308.12
713.569	350.12
714.012	271.52
714.456	234.62
714.899	223.42
715.342	205.92
715.786	190.02
716.229	192.42
716.672	186.02
717.115	183.72
717.558	178.12
718.002	188.92
718.445	186.92
718.888	217.32
719.331	213.52
719.774	228.72
720.217	221.52
720.66	208.82
721.103	199.02
721.546	192.02
721.989	178.92
722.432	168.42
722.874	173.12
723.317	176.62
723.76	169.42
724.203	181.42
724.645	228.12
725.088	318.02
725.531	418.42
725.974	480.72
726.416	406.02
726.859	225.02
727.301	178.32
727.744	174.72
728.187	169.02
728.629	173.02
729.071	176.32
729.514	190.92
729.956	192.62
730.399	209.62
730.841	210.32
731.283	205.02
731.726	200.62
732.168	189.52
732.61	197.32
733.053	211.42
733.495	228.62
733.937	257.32
734.379	287.12
734.821	313.62
735.263	390.62
735.705	591.32
736.148	1118.42
736.59	1875.22
737.032	2335.22
737.474	1910.02
737.916	600.62
738.357	321.92
738.799	237.02
739.241	216.72
739.683	200.52
740.125	212.22
740.567	228.92
741.008	229.12
741.45	230.02
741.892	235.02
742.334	256.22
742.775	263.52
743.217	260.52
743.658	202.82
744.1	192.52
744.542	194.52
744.983	222.32
745.425	261.72
745.866	256.42
746.307	217.32
746.749	203.02
747.19	229.02
747.632	319.12
748.073	607.72
748.514	1322.72
748.956	2118.52
749.397	2647.52
749.838	2207.42
750.279	2281.42
750.72	1137.12
751.162	413.02
751.603	238.42
752.044	183.22
752.485	160.22
752.926	156.92
753.367	147.92
753.808	141.02
754.249	138.62
754.69	139.02
755.131	135.02
755.572	137.42
756.013	133.92
756.453	134.92
756.894	141.12
757.335	139.22
757.776	141.22
758.216	143.82
758.657	147.92
759.098	146.32
759.538	154.32
759.979	190.52
760.42	258.32
760.86	494.32
761.301	1281.82
761.741	3214.62
762.182	5028.92
762.622	3541.42
763.063	998.32
763.503	401.92
763.943	263.02
764.384	252.02
764.824	303.22
765.264	328.42
765.705	225.42
766.145	153.92
766.585	136.02
767.025	130.52
767.465	129.62
767.906	178.72
768.346	235.82
768.786	255.02
769.226	191.22
769.666	231.42
770.106	428.22
770.546	1105.22
770.986	1997.12
771.426	1830.62
771.866	595.82
772.306	238.62
772.745	156.32
773.185	121.52
773.625	131.32
774.065	114.82
774.505	141.92
774.944	216.12
775.384	471.22
775.824	891.52
776.263	890.72
776.703	369.02
777.142	155.92
777.582	112.42
778.021	102.32
778.461	99.92
778.9	107.72
779.34	97.12
779.779	82.72
780.219	79.62
780.658	77.12
781.097	77.32
781.537	82.22
781.976	83.62
782.415	76.22
782.855	75.22
783.294	74.42
783.733	78.42
784.172	81.32
784.611	71.92
785.05	76.52
785.489	79.82
785.928	91.02
786.367	86.62
786.806	79.62
787.245	96.82
787.684	100.22
788.123	109.92
788.562	98.92
789.001	94.42
789.44	91.62
789.879	84.92
790.317	83.02
790.756	92.92
791.195	91.82
791.634	108.72
792.072	144.32
792.511	256.02
792.95	706.12
793.388	1601.82
793.827	1515.72
794.265	505.22
794.704	207.52
795.142	139.32
795.581	106.02
796.019	100.42
796.458	95.72
796.896	92.42
797.334	98.62
797.773	105.62
798.211	158.52
798.649	304.62
799.087	744.82
799.526	1175.52
799.964	1490.72
800.402	1567.52
800.84	572.22
801.278	222.22
801.716	138.32
802.154	113.62
802.592	108.22
803.03	102.42
803.468	97.62
803.906	105.92
804.344	115.62
804.782	104.82
805.22	101.72
805.658	87.92
806.096	113.12
806.533	116.92
806.971	127.22
807.409	157.42
807.847	226.62
808.284	462.32
808.722	1361.72
809.16	2522.12
809.597	2306.72
810.035	4113.42
810.472	4640.92
810.91	1641.82
811.347	607.12
811.785	303.62
812.222	191.22
812.66	145.42
813.097	123.02
813.535	106.12
813.972	95.12
814.409	83.02
814.846	75.42
815.284	83.82
815.721	73.72
816.158	80.62
816.595	94.12
817.032	128.42
817.47	151.92
817.907	133.52
818.344	120.12
818.781	94.52
819.218	69.02
819.655	92.22
820.092	145.82
820.529	166.92
820.966	140.62
821.403	98.92
821.839	74.52
822.276	71.92
822.713	93.02
823.15	106.92
823.587	86.22
824.023	106.72
824.46	206.62
824.897	652.32
825.333	1036.62
825.77	445.02
826.206	170.32
826.643	101.92
827.08	75.02
827.516	62.02
827.953	53.42
828.389	68.22
828.825	49.62
829.262	50.52
829.698	48.82
830.135	45.92
830.571	42.32
831.007	47.92
831.443	42.42
831.88	44.72
832.316	42.62
832.752	48.32
833.188	51.72
833.624	47.02
834.06	51.92
834.497	50.92
834.933	52.52
835.369	53.92
835.805	45.42
836.241	62.32
836.677	57.72
837.112	60.82
837.548	68.02
837.984	94.32
838.42	140.62
838.856	351.32
839.292	1113.62
839.727	1805.52
840.163	830.12
840.599	673.32
841.034	1530.22
841.47	1685.42
841.906	597.12
842.341	247.42
842.777	169.22
843.212	234.22
843.648	230.22
844.083	115.32
844.519	68.32
844.954	51.82
845.39	46.32
845.825	38.22
846.261	43.22
846.696	41.62
847.131	38.92
847.566	41.62
848.002	31.32
848.437	35.12
848.872	41.52
849.307	41.02
849.742	67.72
850.177	127.02
850.613	409.52
851.048	674.12
851.483	289.22
851.918	117.92
852.353	63.02
852.788	37.82
853.223	42.72
853.657	39.22
854.092	40.42
854.527	29.72
854.962	30.52
855.397	30.32
855.832	42.42
856.266	32.82
856.701	31.92
857.136	25.92
857.57	26.32
858.005	35.82
858.44	45.32
858.874	30.72
859.309	37.62
859.743	30.22
860.178	31.22
860.612	29.52
861.047	38.92
861.481	52.12
861.915	48.22
862.35	35.12
862.784	25.22
863.218	31.52
863.653	24.82
864.087	31.42
864.521	42.22
864.955	50.42
865.39	109.32
865.824	129.52
866.258	84.12
866.692	130.92
867.126	142.32
867.56	78.52
867.994	40.32
868.428	22.82
868.862	35.02
869.296	41.02
869.73	45.42
870.164	33.22
870.598	34.02
871.031	25.82
871.465	22.12
871.899	21.62
872.333	15.72
872.766	16.72
873.2	16.02
873.634	22.72
874.067	20.72
874.501	18.62
874.935	22.42
875.368	21.82
875.802	13.82
876.235	18.22
876.669	15.12
877.102	15.82
877.535	22.02
877.969	15.82
878.402	13.72
878.836	7.02
879.269	14.72
879.702	12.92
880.135	13.22
880.569	12.42
881.002	23.32
881.435	20.92
881.868	10.72
882.301	13.82
882.734	3.82
883.167	15.12
883.601	16.72
884.034	20.32
884.467	11.22
884.899	12.32
885.332	14.72
885.765	8.92
886.198	10.02
886.631	11.22
887.064	10.52
887.497	16.62
887.929	29.52
888.362	12.72
888.795	6.12
889.228	14.72
889.66	12.02
890.093	14.42
890.526	10.22
890.958	5.72
891.391	13.62
891.823	17.22
892.256	11.02
892.688	8.62
893.121	10.32
893.553	10.92
893.985	14.92
894.418	14.72
894.85	8.12
895.282	10.22
895.715	14.52
896.147	11.62
896.579	12.02
897.011	11.82
897.444	13.22
897.876	8.12
898.308	9.92
898.74	4.22
899.172	11.22
899.604	20.62
900.036	18.62
900.468	12.82
900.9	3.02
901.332	13.02
901.764	9.92
902.196	7.52
902.628	9.52
903.06	9.92
903.491	21.92
903.923	12.72
904.355	20.42
904.787	18.82
905.218	9.92
905.65	10.72
906.082	6.42
906.513	9.52
906.945	13.32
907.376	9.12
907.808	10.32
908.239	16.02
908.671	18.22
909.102	17.62
909.534	20.62
909.965	34.52
910.397	64.82
910.828	234.22
911.259	376.02
911.691	161.22
912.122	87.12
912.553	35.12
912.984	30.22
913.415	18.92
913.847	18.92
914.278	9.52
914.709	10.02
915.14	14.32
915.571	10.22
916.002	7.12
916.433	17.32
916.864	14.52
917.295	14.02
917.726	14.52
918.157	8.92
918.587	19.72
919.018	17.02
919.449	16.62
919.88	16.22
920.311	23.42
920.741	37.62
921.172	119.92
921.603	115.32
922.033	47.02
922.464	36.02
922.895	20.02
923.325	13.02
923.756	12.22
924.186	10.22
924.617	22.82
925.047	30.02
925.478	36.92
925.908	26.92
926.338	16.32
926.769	12.02
927.199	17.22
927.629	9.32
928.06	11.42
928.49	10.12
928.92	15.02
929.35	13.02
929.78	9.92
930.21	3.62
930.641	7.32
931.071	5.42
931.501	4.32
931.931	7.42
932.361	6.32
932.791	-3.48
933.221	1.42
933.651	0.32
934.08	11.22
934.51	26.22
934.94	5.12
935.37	8.22
935.8	7.52
936.229	8.12
936.659	8.72
937.089	4.62
937.519	11.12
937.948	20.72
938.378	13.62
938.807	0.92
939.237	3.22
939.666	8.22
940.096	-1.98
940.525	2.12
940.955	-0.38
941.384	2.42
941.814	-9.48
942.243	-4.88
942.672	1.02
943.102	-1.78
943.531	-4.08
943.96	7.52
944.39	0.82
944.819	-3.78
945.248	0.62
945.677	2.32
946.106	5.72
946.535	2.12
946.964	0.22
947.393	2.52
947.822	-1.58
948.251	-2.98
948.68	-1.18
949.109	2.62
949.538	1.42
949.967	-5.68
950.396	1.72
950.825	-4.28
951.254	-3.68
951.682	-3.88
952.111	-0.18
952.54	-1.28
952.969	-11.28
953.397	-4.28
953.826	-1.38
954.254	-6.68
954.683	9.82
955.112	-6.28
955.54	1.82
955.969	2.02
956.397	-1.28
956.826	-8.78
957.254	-0.98
957.682	4.02
958.111	5.52
958.539	6.12
958.967	-1.28
959.396	2.72
959.824	-0.48
960.252	3.72
960.68	-5.58
961.109	-1.48
961.537	-0.38
961.965	-1.38
962.393	-7.18
962.821	-5.48
963.249	2.22
963.677	0.42
964.105	2.82
964.533	34.62
964.961	29.72
965.389	16.62
965.817	0.52
966.245	-0.48
966.672	0.32
967.1	-7.48
967.528	-1.18
967.956	-2.38
968.383	-4.28
968.811	-2.88
969.239	-4.28
969.666	-8.48
970.094	-1.58
970.522	0.32
970.949	1.52
971.377	-5.28
971.804	-9.38
972.232	-4.48
972.659	-2.58
973.087	-2.48
973.514	-5.58
973.941	-9.58
974.369	1.02
974.796	5.92
975.223	-3.68
975.651	-6.58
976.078	1.12
976.505	3.72
976.932	0.12
977.359	10.12
977.786	9.12
978.214	-5.38
978.641	-0.78
979.068	-6.18
979.495	-2.98
979.922	1.62
980.349	-7.08
980.776	2.12
981.202	-1.78
981.629	-0.08
982.056	4.02
982.483	1.62
982.91	2.52
983.337	-8.78
983.763	-0.38
984.19	-4.88
984.617	-3.88
985.043	-10.18
985.47	-6.08
985.897	-4.58
986.323	-6.08
986.75	3.82
987.176	0.32
987.603	-4.38
988.029	-1.68
988.456	-7.28
988.882	2.52
989.308	-1.98
989.735	-3.38
990.161	1.82
990.587	-2.18
991.014	-1.18
991.44	9.02
991.866	-4.78
992.292	-3.78
992.719	-7.28
993.145	-1.98
993.571	-9.28
993.997	-3.98
994.423	0.02
994.849	0.02
995.275	-3.48
995.701	-1.68
996.127	-9.38
996.553	-0.08
996.979	-2.68
997.405	3.32
997.83	-2.08
998.256	-2.78
998.682	-4.68
999.108	-5.18
999.534	1.12
999.959	-7.78
1000.385	-8.68
1000.811	-1.68
1001.236	-4.38
1001.662	-6.18
1002.087	-9.98
1002.513	0.02
1002.938	3.52
1003.364	-3.08
1003.789	-0.38
1004.215	4.02
1004.64	2.62
1005.066	5.62
1005.491	3.32
1005.916	0.12
1006.342	-2.98
1006.767	-4.68
1007.192	0.22
1007.617	0.02
1008.042	-3.58
1008.468	-9.48
1008.893	-5.38
1009.318	-5.38
1009.743	-5.18
1010.168	1.02
1010.593	-1.48
1011.018	-7.78
1011.443	-1.58
1011.868	2.82
1012.293	-3.58
1012.718	-6.78
1013.143	5.32
1013.567	-6.18
1013.992	-3.68
1014.417	-8.58
1014.842	7.22
1015.267	-5.48
1015.691	-7.68
1016.116	2.22
1016.541	0.42
1016.965	6.12
1017.39	3.82
1017.814	-1.48
1018.239	-2.08
1018.663	-4.78
1019.088	-11.28
1019.512	-2.08
1019.937	-5.98
1020.361	-3.18
1020.785	-12.28
1021.21	1.92
1021.634	-3.58
1022.058	-0.18
1022.483	2.52
1022.907	-0.68
1023.331	-4.38
1023.755	-1.78
1024.179	-3.98
1024.604	-11.08
1025.028	-1.18
1025.452	-3.28
1025.876	-7.88
1026.3	-1.68
1026.724	-11.58
1027.148	-0.88
1027.572	-8.28
1027.996	-4.68
1028.42	-7.38
1028.843	-5.38
1029.267	0.32
1029.691	-6.18
1030.115	-4.98
1030.539	-10.78
1030.962	-5.58
1031.386	-12.78
1031.81	3.42
1032.233	-0.18
1032.657	2.42
1033.08	-3.68
1033.504	-0.68
1033.927	-0.68
1034.351	-2.88
1034.774	1.92
1035.198	-0.18
1035.621	-4.28
1036.045	-5.08
1036.468	0.52
1036.891	-10.48
1037.315	-9.78
1037.738	-9.18
1038.161	0.92
1038.584	-6.08
1039.008	-5.28
1039.431	-3.28
1039.854	-1.68
1040.277	-15.28
1040.7	-16.78
1041.123	-6.98
1041.546	-5.08
1041.969	-7.08
1042.392	-2.58
1042.815	-1.38
1043.238	-0.48
1043.661	0.52
1044.084	-0.58
1044.507	-6.58
1044.93	-9.08
1045.352	-7.68
1045.775	-8.08
1046.198	2.12
1046.621	-3.48
1047.043	0.92
1047.466	4.02
1047.889	-6.18
1048.311	0.42
1048.734	-5.68
1049.156	-0.58
1049.579	-1.08
1050.001	-2.68
1050.424	-2.68
1050.846	3.62
1051.269	2.42
1051.691	-4.68
1052.113	-3.08
1052.536	1.02
1052.958	-5.88
1053.38	-11.38
1053.802	-12.08
1054.225	4.12
1054.647	-8.18
1055.069	-5.28
1055.491	3.62
1055.913	-8.48
1056.335	-3.98
1056.757	-6.98
1057.179	-6.68
1057.601	-6.08
1058.023	-3.18
1058.445	-6.28
1058.867	-4.48
1059.289	-3.48
1059.711	-5.08
1060.133	-6.28
1060.555	-9.18
1060.976	-7.88
1061.398	-8.58
1061.82	-6.98
1062.241	-6.08
1062.663	-6.78
1063.085	-6.88
1063.506	0.52
1063.928	-1.48
1064.35	5.42
1064.771	-8.58
1065.193	-1.38
1065.614	-10.88
1066.035	-5.48
1066.457	-6.68
1066.878	-2.38
1067.3	-11.58
1067.721	-4.08
1068.142	-6.58
1068.564	-10.98
1068.985	-9.08
1069.406	-5.38
1069.827	-3.78
1070.248	3.52
1070.67	-9.48
1071.091	-4.48
1071.512	-3.88
1071.933	-8.78
1072.354	-5.68
1072.775	-4.98
1073.196	-13.18
1073.617	-3.08
1074.038	-7.98
1074.459	1.12
1074.88	-8.58
1075.3	0.72
1075.721	-5.08
1076.142	-3.38
1076.563	-5.28
1076.983	-6.18
1077.404	-7.38
1077.825	-8.78
1078.246	-4.48
1078.666	-12.08
1079.087	-1.18
1079.507	-3.58
1079.928	-0.78
1080.348	-3.88
1080.769	-7.88
1081.189	-2.38
1081.61	-5.78
1082.03	-8.48
1082.451	-10.58
1082.871	-3.68
1083.291	-8.58
1083.711	-7.48
1084.132	-5.58
1084.552	1.02
1084.972	-0.88
1085.392	-7.98
1085.813	-12.28
1086.233	-7.68
1086.653	-7.38
1087.073	-5.68
1087.493	-5.78
1087.913	-11.28
1088.333	-4.58
1088.753	-3.38
1089.173	-3.28
1089.593	-2.38
1090.013	2.82
1090.433	3.12
1090.852	-8.08
1091.272	-2.08
1091.692	-0.38
1092.112	-3.48
1092.531	-9.48
1092.951	-9.58
1093.371	-9.98
1093.79	4.62
1094.21	-0.88
1094.63	-5.88
1095.049	-8.28
1095.469	-3.78
1095.888	-0.88
1096.308	1.42
1096.727	2.32
1097.146	-1.58
1097.566	0.42
1097.985	-0.38
1098.405	-0.08
1098.824	-12.98
1099.243	-6.68
1099.662	-12.98
1100.082	-0.58
1100.501	-0.88
1100.92	-6.28
1101.339	-3.28
1101.758	-8.38
