Data from 20171114-ORNL-Ar_H_NY_Subt18_08-04-00-697.txt Node
Date: Tue Nov 14 08:04:00 EST 2017
User: Ender
Spectrometer: HR+D1039
Trigger mode: 0
Integration Time (sec): 2.730000E-2
Scans to average: 10
Electric dark correction enabled: true
Nonlinearity correction enabled: false
Boxcar width: 0
XAxis mode: Wavelengths
Number of Pixels in Spectrum: 2048
>>>>>Begin Spectral Data<<<<<
187.836	-4.24
188.309	-4.24
188.782	-4.24
189.255	7.66
189.728	0.06
190.201	4.56
190.674	3.76
191.147	4.96
191.619	-6.64
192.092	-0.64
192.565	1.46
193.038	-6.24
193.511	0.56
193.984	0.06
194.456	-7.54
194.929	4.06
195.402	-0.94
195.874	-0.94
196.347	-2.74
196.82	-5.74
197.292	1.46
197.765	-5.44
198.237	-5.24
198.71	2.96
199.182	-1.24
199.655	0.76
200.127	0.16
200.6	-4.54
201.072	-5.84
201.544	-3.64
202.017	-1.04
202.489	2.26
202.961	-0.04
203.433	-4.24
203.906	-10.34
204.378	-12.14
204.85	-6.54
205.322	-14.14
205.794	0.16
206.266	-4.64
206.739	-7.54
207.211	-0.04
207.683	-2.84
208.155	-7.34
208.627	-7.34
209.099	-5.84
209.57	-10.34
210.042	-7.64
210.514	-6.14
210.986	-7.14
211.458	-11.34
211.93	-4.64
212.402	-1.54
212.873	-2.74
213.345	-11.14
213.817	-10.64
214.288	-3.34
214.76	-7.14
215.232	0.26
215.703	-4.74
216.175	-8.64
216.646	-2.84
217.118	-0.24
217.589	-5.84
218.061	-4.84
218.532	-8.04
219.004	-1.64
219.475	-0.74
219.946	-6.54
220.418	-8.54
220.889	-2.34
221.36	2.66
221.832	-2.74
222.303	-8.24
222.774	-0.44
223.245	-10.54
223.717	-7.74
224.188	-5.24
224.659	-4.74
225.13	-11.34
225.601	-2.34
226.072	5.86
226.543	-0.24
227.014	1.66
227.485	-5.34
227.956	-5.74
228.427	-3.54
228.898	-1.34
229.369	0.86
229.839	-3.94
230.31	-7.14
230.781	4.96
231.252	-1.24
231.722	-4.24
232.193	-8.94
232.664	-0.24
233.135	-1.64
233.605	-2.24
234.076	-1.84
234.546	-2.74
235.017	1.56
235.487	-0.34
235.958	-3.94
236.428	-5.14
236.899	-0.14
237.369	0.26
237.84	-1.74
238.31	1.56
238.78	-6.34
239.251	-7.54
239.721	-1.34
240.191	-0.44
240.662	-7.54
241.132	-3.24
241.602	-4.74
242.072	-2.44
242.542	5.06
243.013	1.96
243.483	1.66
243.953	-1.54
244.423	-2.44
244.893	-0.94
245.363	4.06
245.833	-3.74
246.303	-7.04
246.773	7.56
247.243	-0.44
247.712	-2.14
248.182	0.36
248.652	-2.74
249.122	-4.24
249.592	5.66
250.061	12.76
250.531	25.56
251.001	11.76
251.471	14.66
251.94	10.86
252.41	1.66
252.879	-4.04
253.349	11.26
253.818	5.86
254.288	0.26
254.757	-1.94
255.227	-1.24
255.696	5.76
256.166	1.86
256.635	3.16
257.105	8.06
257.574	0.16
258.043	2.66
258.513	-0.54
258.982	8.96
259.451	3.86
259.92	1.56
260.389	3.06
260.859	11.36
261.328	1.46
261.797	4.26
262.266	-4.44
262.735	5.16
263.204	7.96
263.673	0.06
264.142	-0.04
264.611	-7.14
265.08	-3.44
265.549	0.06
266.018	3.16
266.487	-8.24
266.955	-5.94
267.424	-4.54
267.893	2.36
268.362	-3.54
268.83	3.06
269.299	2.46
269.768	2.26
270.236	-1.94
270.705	-9.44
271.174	1.16
271.642	0.26
272.111	-2.34
272.579	7.86
273.048	10.46
273.516	6.96
273.985	11.06
274.453	13.66
274.922	11.96
275.39	3.36
275.858	-1.14
276.327	8.26
276.795	9.66
277.263	2.36
277.731	18.86
278.2	23.36
278.668	28.26
279.136	25.46
279.604	4.16
280.072	10.06
280.54	8.06
281.008	-0.54
281.477	3.46
281.945	9.46
282.413	4.26
282.881	7.86
283.348	1.26
283.816	10.86
284.284	9.26
284.752	18.66
285.22	12.36
285.688	7.46
286.156	13.56
286.623	21.66
287.091	24.16
287.559	16.26
288.026	7.56
288.494	8.56
288.962	3.86
289.429	0.96
289.897	8.46
290.364	13.16
290.832	16.86
291.3	14.66
291.767	9.86
292.234	8.76
292.702	5.76
293.169	7.86
293.637	12.76
294.104	15.86
294.571	-1.94
295.039	9.96
295.506	3.46
295.973	14.66
296.44	8.36
296.908	13.26
297.375	8.36
297.842	9.96
298.309	7.86
298.776	4.06
299.243	6.86
299.71	6.56
300.177	15.46
300.644	15.06
301.111	11.76
301.578	18.66
302.045	5.06
302.512	16.36
302.979	16.66
303.446	18.86
303.913	13.66
304.379	12.76
304.846	16.26
305.313	17.06
305.78	11.96
306.246	12.06
306.713	13.36
307.18	21.36
307.646	16.76
308.113	19.86
308.579	8.26
309.046	17.66
309.512	20.96
309.979	9.36
310.445	16.96
310.912	18.26
311.378	22.36
311.845	19.46
312.311	24.56
312.777	22.86
313.244	26.76
313.71	34.96
314.176	18.16
314.642	25.36
315.109	21.96
315.575	27.76
316.041	23.86
316.507	22.26
316.973	25.06
317.439	20.46
317.905	24.56
318.371	26.76
318.837	22.36
319.303	17.76
319.769	22.06
320.235	23.66
320.701	24.36
321.167	25.96
321.633	23.36
322.099	26.86
322.564	26.16
323.03	27.36
323.496	29.06
323.962	29.86
324.427	26.36
324.893	32.66
325.359	30.26
325.824	28.56
326.29	30.36
326.755	32.16
327.221	29.86
327.686	27.66
328.152	34.26
328.617	25.56
329.083	36.46
329.548	45.66
330.014	38.16
330.479	29.06
330.944	31.16
331.41	32.26
331.875	34.56
332.34	26.76
332.805	37.86
333.271	38.76
333.736	32.56
334.201	34.96
334.666	39.96
335.131	40.46
335.596	38.66
336.061	35.26
336.526	31.66
336.991	34.76
337.456	42.06
337.921	33.96
338.386	29.36
338.851	35.86
339.316	38.46
339.781	39.26
340.246	36.36
340.711	33.56
341.175	39.16
341.64	33.56
342.105	46.16
342.569	43.86
343.034	49.16
343.499	46.56
343.963	42.06
344.428	52.56
344.893	42.96
345.357	42.36
345.822	52.16
346.286	52.06
346.751	59.06
347.215	53.66
347.679	57.26
348.144	68.36
348.608	61.46
349.073	49.86
349.537	64.86
350.001	65.46
350.465	65.06
350.93	62.26
351.394	63.26
351.858	44.96
352.322	68.36
352.786	66.26
353.25	74.06
353.715	78.96
354.179	77.26
354.643	84.96
355.107	91.36
355.571	79.46
356.035	84.76
356.498	89.06
356.962	80.66
357.426	94.36
357.89	74.66
358.354	72.96
358.818	71.36
359.281	63.16
359.745	64.86
360.209	63.16
360.673	59.36
361.136	66.66
361.6	72.96
362.064	74.86
362.527	67.36
362.991	81.36
363.454	62.56
363.918	58.56
364.381	64.46
364.845	71.86
365.308	69.06
365.772	69.26
366.235	73.86
366.698	68.26
367.162	73.86
367.625	72.46
368.088	73.06
368.552	74.36
369.015	75.06
369.478	81.26
369.941	87.36
370.404	87.96
370.867	85.66
371.331	95.46
371.794	96.26
372.257	88.06
372.72	102.66
373.183	97.26
373.646	86.26
374.109	83.96
374.572	87.66
375.035	92.76
375.497	91.96
375.96	93.66
376.423	81.26
376.886	89.66
377.349	94.66
377.811	90.66
378.274	92.26
378.737	91.36
379.199	98.46
379.662	90.46
380.125	106.46
380.587	101.76
381.05	98.96
381.512	104.46
381.975	120.46
382.437	114.76
382.9	109.76
383.362	115.86
383.825	117.86
384.287	125.46
384.75	118.36
385.212	120.96
385.674	119.16
386.136	114.46
386.599	117.16
387.061	118.86
387.523	117.86
387.985	113.36
388.447	125.56
388.91	118.26
389.372	130.66
389.834	128.26
390.296	122.16
390.758	130.56
391.22	134.76
391.682	175.86
392.144	232.06
392.606	189.76
393.068	146.76
393.529	144.76
393.991	133.36
394.453	133.06
394.915	133.46
395.377	161.46
395.838	175.26
396.3	131.96
396.762	128.26
397.224	124.26
397.685	112.76
398.147	111.76
398.608	113.66
399.07	117.46
399.531	123.56
399.993	127.46
400.454	137.46
400.916	131.46
401.377	135.06
401.839	137.56
402.3	135.26
402.762	145.16
403.223	158.06
403.684	159.46
404.145	140.76
404.607	146.26
405.068	152.86
405.529	152.66
405.99	161.66
406.451	155.26
406.913	156.46
407.374	148.46
407.835	147.76
408.296	146.16
408.757	151.86
409.218	160.46
409.679	154.26
410.14	161.76
410.601	160.06
411.062	164.06
411.522	171.46
411.983	170.16
412.444	163.56
412.905	163.76
413.366	169.56
413.826	181.36
414.287	197.86
414.748	245.36
415.208	228.16
415.669	196.36
416.13	184.06
416.59	190.06
417.051	202.36
417.511	199.16
417.972	215.96
418.432	227.36
418.893	270.06
419.353	236.26
419.814	182.36
420.274	171.46
420.734	163.46
421.195	174.56
421.655	173.46
422.115	172.66
422.576	172.96
423.036	180.86
423.496	196.96
423.956	196.06
424.416	208.76
424.876	242.76
425.336	236.96
425.797	238.96
426.257	228.06
426.717	223.66
427.177	210.86
427.637	201.66
428.097	209.76
428.556	220.46
429.016	240.86
429.476	227.06
429.936	242.96
430.396	249.96
430.856	258.86
431.315	276.66
431.775	305.16
432.235	335.66
432.694	309.16
433.154	311.56
433.614	323.46
434.073	297.06
434.533	252.16
434.993	229.76
435.452	246.86
435.912	252.06
436.371	245.16
436.83	241.06
437.29	238.06
437.749	217.96
438.209	214.06
438.668	232.56
439.127	240.46
439.587	225.06
440.046	214.56
440.505	219.46
440.964	235.36
441.424	259.86
441.883	250.56
442.342	228.16
442.801	195.96
443.26	196.26
443.719	201.46
444.178	202.86
444.637	191.76
445.096	199.56
445.555	201.36
446.014	197.26
446.473	205.96
446.932	209.76
447.391	196.16
447.849	210.96
448.308	202.66
448.767	201.46
449.226	214.66
449.685	215.36
450.143	221.76
450.602	209.46
451.061	197.16
451.519	205.36
451.978	206.56
452.436	211.76
452.895	210.06
453.353	217.06
453.812	212.16
454.27	205.56
454.729	217.76
455.187	214.66
455.646	213.16
456.104	217.76
456.562	223.56
457.021	230.76
457.479	217.76
457.937	235.36
458.395	235.16
458.854	217.56
459.312	223.76
459.77	232.06
460.228	223.06
460.686	221.96
461.144	216.46
461.602	225.76
462.06	223.76
462.518	230.86
462.976	230.26
463.434	231.36
463.892	238.16
464.35	236.26
464.808	253.66
465.266	240.56
465.724	241.96
466.181	241.06
466.639	239.76
467.097	266.46
467.555	262.76
468.012	268.56
468.47	266.96
468.928	288.36
469.385	304.36
469.843	303.26
470.3	298.16
470.758	312.16
471.215	321.46
471.673	340.76
472.13	347.96
472.588	355.86
473.045	326.86
473.503	330.06
473.96	350.46
474.417	352.96
474.875	372.06
475.332	397.96
475.789	392.86
476.246	408.36
476.704	411.66
477.161	443.56
477.618	443.96
478.075	481.86
478.532	527.66
478.989	583.36
479.446	658.96
479.903	653.46
480.36	700.86
480.817	749.96
481.274	830.96
481.731	921.46
482.188	1007.96
482.645	1122.36
483.102	1225.26
483.558	1318.96
484.015	1395.06
484.472	1387.76
484.929	1332.26
485.385	1288.06
485.842	1258.86
486.299	1195.16
486.755	1114.36
487.212	958.36
487.668	816.36
488.125	743.96
488.582	686.16
489.038	660.26
489.494	630.56
489.951	601.06
490.407	580.16
490.864	558.86
491.32	569.96
491.776	562.76
492.233	560.76
492.689	523.66
493.145	516.26
493.602	512.16
494.058	529.76
494.514	531.66
494.97	543.76
495.426	555.46
495.882	528.56
496.338	527.56
496.794	540.86
497.251	524.16
497.707	543.06
498.163	544.46
498.618	557.26
499.074	542.56
499.53	570.06
499.986	564.96
500.442	556.06
500.898	541.66
501.354	538.56
501.809	550.36
502.265	546.16
502.721	560.56
503.177	565.46
503.632	567.06
504.088	572.86
504.543	592.26
504.999	587.76
505.455	557.26
505.91	547.76
506.366	550.86
506.821	538.86
507.277	542.66
507.732	551.46
508.187	536.06
508.643	561.36
509.098	549.46
509.553	571.36
510.009	562.06
510.464	565.16
510.919	582.76
511.375	599.26
511.83	605.16
512.285	613.16
512.74	649.46
513.195	655.46
513.65	652.06
514.105	657.16
514.56	662.96
515.015	672.16
515.47	684.26
515.925	667.46
516.38	670.66
516.835	680.16
517.29	673.16
517.745	662.26
518.2	648.26
518.655	645.16
519.109	633.96
519.564	631.56
520.019	625.96
520.474	620.56
520.928	611.06
521.383	616.16
521.838	604.56
522.292	600.06
522.747	607.36
523.201	597.36
523.656	592.86
524.11	589.56
524.565	586.26
525.019	581.66
525.474	596.86
525.928	593.66
526.382	591.76
526.837	585.16
527.291	600.76
527.745	583.46
528.2	579.76
528.654	577.46
529.108	579.96
529.562	576.66
530.016	575.46
530.47	571.06
530.925	589.66
531.379	582.26
531.833	581.06
532.287	583.06
532.741	579.26
533.195	576.16
533.649	582.86
534.103	599.26
534.556	583.26
535.01	593.76
535.464	584.86
535.918	598.16
536.372	600.36
536.826	588.96
537.279	585.66
537.733	586.66
538.187	592.06
538.64	589.16
539.094	599.06
539.548	601.16
540.001	595.66
540.455	603.66
540.908	605.26
541.362	604.66
541.815	619.16
542.269	631.56
542.722	629.76
543.175	630.76
543.629	638.46
544.082	648.96
544.536	650.26
544.989	642.76
545.442	657.76
545.895	647.36
546.349	656.96
546.802	657.26
547.255	657.26
547.708	657.66
548.161	671.86
548.614	678.46
549.067	680.26
549.52	674.46
549.973	656.96
550.426	662.16
550.879	648.86
551.332	655.56
551.785	657.66
552.238	654.96
552.691	662.26
553.144	681.86
553.596	690.96
554.049	701.86
554.502	729.86
554.955	736.46
555.407	734.16
555.86	734.86
556.313	719.36
556.765	711.06
557.218	716.86
557.67	709.46
558.123	700.66
558.576	709.16
559.028	712.46
559.48	710.56
559.933	707.06
560.385	681.36
560.838	651.86
561.29	637.66
561.742	635.86
562.195	613.56
562.647	612.86
563.099	630.36
563.551	628.46
564.004	622.66
564.456	609.66
564.908	600.96
565.36	600.86
565.812	588.96
566.264	577.36
566.716	574.26
567.168	561.96
567.62	575.06
568.072	552.26
568.524	552.56
568.976	545.16
569.428	533.86
569.88	531.26
570.332	537.06
570.784	547.56
571.235	532.96
571.687	549.36
572.139	548.76
572.59	547.36
573.042	558.86
573.494	553.26
573.945	559.06
574.397	533.76
574.849	546.16
575.3	545.96
575.752	539.66
576.203	533.66
576.655	545.26
577.106	525.26
577.557	523.96
578.009	526.86
578.46	516.86
578.912	513.56
579.363	510.66
579.814	522.66
580.265	511.46
580.717	513.16
581.168	523.76
581.619	531.46
582.07	526.26
582.521	516.56
582.972	516.96
583.423	524.46
583.875	528.16
584.326	548.36
584.777	574.76
585.227	634.86
585.678	689.96
586.129	766.36
586.58	813.06
587.031	869.96
587.482	1001.06
587.933	1139.66
588.384	984.16
588.834	739.26
589.285	616.76
589.736	608.36
590.186	593.56
590.637	589.46
591.088	575.46
591.538	571.26
591.989	566.96
592.439	560.46
592.89	561.96
593.34	546.96
593.791	547.16
594.241	534.96
594.692	550.96
595.142	533.36
595.593	530.86
596.043	535.06
596.493	534.06
596.943	541.36
597.394	549.26
597.844	541.86
598.294	558.06
598.744	564.06
599.195	593.56
599.645	620.46
600.095	643.16
600.545	691.86
600.995	734.36
601.445	776.36
601.895	820.36
602.345	858.06
602.795	848.76
603.245	810.76
603.695	762.96
604.145	735.56
604.594	694.96
605.044	646.86
605.494	604.56
605.944	583.56
606.393	563.06
606.843	539.66
607.293	546.96
607.743	543.66
608.192	552.86
608.642	567.86
609.091	571.86
609.541	571.66
609.99	575.36
610.44	564.76
610.889	539.66
611.339	522.36
611.788	514.26
612.238	524.26
612.687	532.96
613.136	535.36
613.586	552.76
614.035	540.56
614.484	553.06
614.933	558.46
615.383	548.36
615.832	545.16
616.281	527.96
616.73	511.46
617.179	498.16
617.628	481.66
618.077	472.46
618.526	458.66
618.975	458.36
619.424	458.46
619.873	455.66
620.322	456.06
620.771	446.86
621.22	444.96
621.669	436.66
622.118	436.96
622.567	433.06
623.015	419.06
623.464	417.06
623.913	421.16
624.361	404.06
624.81	404.36
625.259	402.36
625.707	416.16
626.156	413.36
626.604	420.76
627.053	414.36
627.501	409.86
627.95	421.76
628.398	426.06
628.847	427.66
629.295	419.06
629.744	428.36
630.192	418.16
630.64	419.16
631.089	405.96
631.537	415.66
631.985	413.56
632.433	421.56
632.881	418.66
633.33	447.76
633.778	445.96
634.226	404.16
634.674	405.66
635.122	413.06
635.57	423.96
636.018	437.66
636.466	423.66
636.914	412.96
637.362	417.96
637.81	414.26
638.258	425.76
638.705	416.86
639.153	439.66
639.601	443.76
640.049	456.96
640.497	483.66
640.944	514.76
641.392	468.76
641.84	444.66
642.287	433.16
642.735	415.66
643.182	411.76
643.63	415.66
644.078	415.96
644.525	425.26
644.973	428.26
645.42	433.06
645.867	446.56
646.315	464.46
646.762	478.26
647.21	494.26
647.657	510.86
648.104	541.76
648.551	558.06
648.999	597.46
649.446	654.76
649.893	713.16
650.34	817.56
650.787	986.86
651.234	1201.16
651.682	1567.16
652.129	2140.46
652.576	3045.46
653.023	4521.06
653.47	6328.86
653.917	7991.06
654.363	9419.66
654.81	10646.06
655.257	10150.66
655.704	6607.86
656.151	3847.86
656.598	2494.66
657.044	1762.16
657.491	1345.66
657.938	1082.36
658.385	903.16
658.831	776.66
659.278	696.66
659.724	612.06
660.171	562.36
660.618	506.26
661.064	488.36
661.511	466.26
661.957	461.96
662.404	443.46
662.85	451.86
663.296	429.36
663.743	395.86
664.189	385.86
664.635	384.16
665.082	375.46
665.528	372.96
665.974	372.16
666.42	363.26
666.867	366.66
667.313	344.16
667.759	342.86
668.205	331.26
668.651	349.96
669.097	342.96
669.543	349.96
669.989	336.76
670.435	323.56
670.881	320.36
671.327	326.96
671.773	339.06
672.219	353.76
672.665	391.96
673.11	419.16
673.556	452.36
674.002	489.76
674.448	474.56
674.893	397.46
675.339	338.36
675.785	315.06
676.23	303.26
676.676	277.56
677.122	276.56
677.567	265.26
678.013	258.86
678.458	256.86
678.904	259.66
679.349	240.86
679.794	255.66
680.24	247.56
680.685	245.56
681.131	244.16
681.576	245.86
682.021	259.46
682.466	241.26
682.912	248.16
683.357	247.86
683.802	266.26
684.247	285.36
684.692	321.26
685.137	345.26
685.583	384.76
686.028	393.46
686.473	365.86
686.918	313.46
687.363	291.96
687.807	271.26
688.252	257.26
688.697	250.56
689.142	233.16
689.587	223.96
690.032	226.06
690.477	241.56
690.921	243.96
691.366	271.96
691.811	282.76
692.255	297.76
692.7	320.36
693.145	341.46
693.589	469.16
694.034	763.96
694.478	1077.86
694.923	1255.86
695.367	1683.86
695.812	880.36
696.256	363.76
696.701	263.26
697.145	250.66
697.59	233.36
698.034	222.26
698.478	231.96
698.922	231.26
699.367	233.16
699.811	232.46
700.255	240.06
700.699	267.56
701.143	291.86
701.588	338.06
702.032	366.06
702.476	365.86
702.92	348.96
703.364	340.36
703.808	433.26
704.252	712.96
704.696	1016.06
705.14	1217.56
705.584	1575.96
706.027	765.36
706.471	373.26
706.915	275.96
707.359	244.76
707.803	221.46
708.246	211.26
708.69	218.86
709.134	222.06
709.577	215.96
710.021	226.76
710.465	212.86
710.908	209.66
711.352	214.96
711.795	220.76
712.239	247.56
712.682	266.46
713.126	288.66
713.569	327.66
714.012	264.06
714.456	222.16
714.899	211.86
715.342	196.66
715.786	183.96
716.229	181.16
716.672	178.86
717.115	176.06
717.558	173.06
718.002	168.96
718.445	185.06
718.888	199.46
719.331	201.86
719.774	212.16
720.217	214.56
720.66	198.06
721.103	189.26
721.546	182.36
721.989	179.66
722.432	158.16
722.874	166.76
723.317	158.86
723.76	160.56
724.203	177.16
724.645	224.76
725.088	304.56
725.531	392.16
725.974	461.26
726.416	396.96
726.859	215.96
727.301	174.46
727.744	163.26
728.187	162.36
728.629	164.36
729.071	166.76
729.514	170.86
729.956	195.36
730.399	196.26
730.841	206.36
731.283	193.66
731.726	186.06
732.168	182.56
732.61	188.96
733.053	196.86
733.495	217.06
733.937	241.46
734.379	276.86
734.821	296.46
735.263	363.16
735.705	565.76
736.148	1070.46
736.59	1810.16
737.032	2273.96
737.474	1847.76
737.916	579.56
738.357	296.96
738.799	224.16
739.241	208.76
739.683	192.26
740.125	200.76
740.567	204.56
741.008	225.36
741.45	231.56
741.892	230.16
742.334	246.76
742.775	262.56
743.217	245.36
743.658	186.26
744.1	176.56
744.542	182.66
744.983	216.96
745.425	249.36
745.866	253.56
746.307	198.26
746.749	191.36
747.19	221.26
747.632	306.56
748.073	590.76
748.514	1263.86
748.956	2048.16
749.397	2556.06
749.838	2131.76
750.279	2211.96
750.72	1098.16
751.162	393.46
751.603	220.26
752.044	179.26
752.485	149.16
752.926	144.86
753.367	140.56
753.808	139.66
754.249	142.06
754.69	127.36
755.131	130.36
755.572	128.36
756.013	119.46
756.453	125.96
756.894	131.06
757.335	133.76
757.776	133.86
758.216	132.36
758.657	138.46
759.098	140.66
759.538	153.96
759.979	185.96
760.42	254.86
760.86	474.26
761.301	1253.86
761.741	3111.16
762.182	4878.36
762.622	3462.16
763.063	964.86
763.503	389.26
763.943	237.06
764.384	236.16
764.824	275.16
765.264	302.66
765.705	208.76
766.145	144.36
766.585	131.46
767.025	122.26
767.465	117.06
767.906	154.46
768.346	218.66
768.786	233.06
769.226	176.76
769.666	215.56
770.106	409.46
770.546	1043.66
770.986	1941.86
771.426	1784.96
771.866	576.96
772.306	233.06
772.745	144.16
773.185	122.06
773.625	118.66
774.065	107.66
774.505	128.26
774.944	198.96
775.384	431.16
775.824	813.96
776.263	812.96
776.703	335.76
777.142	145.86
777.582	108.26
778.021	90.76
778.461	93.86
778.9	99.36
779.34	95.26
779.779	82.16
780.219	77.56
780.658	74.06
781.097	75.36
781.537	78.66
781.976	70.86
782.415	74.76
782.855	69.06
783.294	68.46
783.733	76.86
784.172	68.26
784.611	63.66
785.05	76.26
785.489	78.46
785.928	81.76
786.367	76.36
786.806	77.86
787.245	88.06
787.684	95.56
788.123	103.16
788.562	87.66
789.001	90.56
789.44	81.56
789.879	84.86
790.317	77.26
790.756	90.36
791.195	87.66
791.634	100.66
792.072	142.76
792.511	237.96
792.95	676.76
793.388	1570.96
793.827	1476.76
794.265	496.36
794.704	188.96
795.142	129.06
795.581	100.76
796.019	95.66
796.458	89.26
796.896	85.16
797.334	88.36
797.773	106.96
798.211	150.06
798.649	295.56
799.087	712.56
799.526	1133.76
799.964	1436.96
800.402	1516.76
800.84	556.26
801.278	217.46
801.716	132.26
802.154	103.96
802.592	98.06
803.03	92.46
803.468	87.26
803.906	98.06
804.344	100.46
804.782	95.06
805.22	87.36
805.658	89.36
806.096	100.86
806.533	105.56
806.971	128.16
807.409	151.36
807.847	219.96
808.284	448.66
808.722	1299.66
809.16	2432.66
809.597	2251.46
810.035	4017.96
810.472	4524.76
810.91	1590.56
811.347	586.46
811.785	291.16
812.222	189.46
812.66	138.26
813.097	122.06
813.535	103.56
813.972	89.56
814.409	86.26
814.846	73.46
815.284	76.76
815.721	73.06
816.158	75.76
816.595	87.36
817.032	123.36
817.47	150.26
817.907	122.16
818.344	98.96
818.781	80.76
819.218	69.46
819.655	85.96
820.092	147.96
820.529	162.66
820.966	128.56
821.403	95.26
821.839	72.46
822.276	70.16
822.713	87.36
823.15	94.86
823.587	78.76
824.023	102.26
824.46	192.66
824.897	625.96
825.333	1012.96
825.77	427.26
826.206	164.26
826.643	99.36
827.08	69.86
827.516	54.76
827.953	52.16
828.389	57.16
828.825	51.46
829.262	46.76
829.698	38.26
830.135	46.36
830.571	44.56
831.007	42.36
831.443	44.16
831.88	37.66
832.316	42.06
832.752	44.56
833.188	48.96
833.624	44.56
834.06	47.66
834.497	49.26
834.933	50.86
835.369	54.46
835.805	41.76
836.241	51.86
836.677	55.96
837.112	63.56
837.548	71.26
837.984	94.56
838.42	133.36
838.856	342.56
839.292	1080.86
839.727	1768.36
840.163	801.36
840.599	648.06
841.034	1493.26
841.47	1638.86
841.906	587.36
842.341	236.66
842.777	159.46
843.212	207.96
843.648	216.66
844.083	109.06
844.519	70.16
844.954	56.06
845.39	34.06
845.825	34.86
846.261	37.36
846.696	35.36
847.131	36.26
847.566	46.96
848.002	30.16
848.437	36.56
848.872	37.96
849.307	40.26
849.742	54.06
850.177	118.56
850.613	397.26
851.048	656.46
851.483	275.36
851.918	108.36
852.353	56.96
852.788	37.06
853.223	42.86
853.657	39.16
854.092	27.06
854.527	28.46
854.962	28.36
855.397	27.96
855.832	35.96
856.266	28.86
856.701	30.46
857.136	22.66
857.57	26.26
858.005	32.66
858.44	42.06
858.874	30.66
859.309	37.06
859.743	24.16
860.178	29.96
860.612	21.76
861.047	37.46
861.481	51.56
861.915	54.96
862.35	38.76
862.784	28.46
863.218	29.76
863.653	19.46
864.087	34.66
864.521	37.56
864.955	46.16
865.39	113.36
865.824	128.66
866.258	76.76
866.692	122.16
867.126	139.36
867.56	82.86
867.994	41.86
868.428	26.86
868.862	36.16
869.296	39.16
869.73	46.56
870.164	45.16
870.598	33.46
871.031	28.86
871.465	19.56
871.899	21.86
872.333	18.56
872.766	17.56
873.2	15.06
873.634	20.26
874.067	15.06
874.501	10.86
874.935	29.96
875.368	17.46
875.802	14.86
876.235	16.96
876.669	16.96
877.102	11.26
877.535	20.16
877.969	14.76
878.402	15.76
878.836	12.46
879.269	12.16
879.702	13.56
880.135	11.96
880.569	17.66
881.002	21.56
881.435	14.06
881.868	5.06
882.301	18.46
882.734	6.56
883.167	16.26
883.601	9.66
884.034	14.66
884.467	1.66
884.899	11.66
885.332	13.86
885.765	6.36
886.198	4.46
886.631	11.86
887.064	11.86
887.497	17.96
887.929	19.56
888.362	13.36
888.795	4.26
889.228	17.46
889.66	8.06
890.093	4.86
890.526	8.86
890.958	9.46
891.391	9.16
891.823	17.76
892.256	9.56
892.688	5.16
893.121	10.86
893.553	9.66
893.985	16.86
894.418	14.06
894.85	7.86
895.282	13.96
895.715	12.16
896.147	7.66
896.579	13.36
897.011	8.36
897.444	11.46
897.876	8.26
898.308	10.36
898.74	7.06
899.172	6.76
899.604	15.26
900.036	16.36
900.468	10.76
900.9	8.06
901.332	11.06
901.764	4.76
902.196	17.66
902.628	17.06
903.06	10.56
903.491	21.86
903.923	18.76
904.355	8.16
904.787	13.76
905.218	19.86
905.65	19.86
906.082	7.46
906.513	6.16
906.945	6.56
907.376	10.76
907.808	12.26
908.239	18.56
908.671	16.46
909.102	21.76
909.534	12.56
909.965	27.76
910.397	65.56
910.828	220.36
911.259	363.06
911.691	159.26
912.122	82.96
912.553	36.16
912.984	24.96
913.415	18.66
913.847	19.06
914.278	13.16
914.709	9.26
915.14	8.46
915.571	12.96
916.002	7.86
916.433	7.16
916.864	9.36
917.295	7.96
917.726	11.76
918.157	9.16
918.587	16.26
919.018	21.46
919.449	17.26
919.88	15.46
920.311	20.26
920.741	29.56
921.172	121.76
921.603	117.46
922.033	47.56
922.464	37.36
922.895	12.66
923.325	12.96
923.756	12.06
924.186	8.96
924.617	17.56
925.047	25.76
925.478	36.66
925.908	32.66
926.338	17.86
926.769	11.56
927.199	11.46
927.629	3.76
928.06	13.66
928.49	4.06
928.92	8.56
929.35	10.66
929.78	8.66
930.21	6.96
930.641	6.16
931.071	4.66
931.501	-0.64
931.931	11.06
932.361	8.06
932.791	5.26
933.221	0.96
933.651	2.36
934.08	5.96
934.51	24.36
934.94	7.66
935.37	0.66
935.8	4.76
936.229	6.66
936.659	7.76
937.089	0.16
937.519	13.16
937.948	18.96
938.378	10.56
938.807	6.66
939.237	5.36
939.666	3.86
940.096	-4.94
940.525	3.66
940.955	2.36
941.384	-0.94
941.814	-10.34
942.243	-8.04
942.672	-0.54
943.102	-7.44
943.531	1.36
943.96	1.26
944.39	6.76
944.819	-0.44
945.248	2.26
945.677	-0.64
946.106	0.46
946.535	4.76
946.964	-0.94
947.393	0.86
947.822	6.86
948.251	-7.54
948.68	3.06
949.109	1.76
949.538	8.26
949.967	1.46
950.396	2.76
950.825	0.06
951.254	-2.14
951.682	-14.04
952.111	-1.74
952.54	2.16
952.969	-4.44
953.397	-5.94
953.826	2.56
954.254	-7.24
954.683	-0.34
955.112	-0.84
955.54	-4.84
955.969	3.76
956.397	-1.44
956.826	-4.34
957.254	8.86
957.682	2.56
958.111	4.96
958.539	-1.54
958.967	8.76
959.396	-0.54
959.824	4.26
960.252	1.56
960.68	-1.14
961.109	0.16
961.537	-2.54
961.965	3.76
962.393	-3.14
962.821	-6.54
963.249	-0.94
963.677	4.26
964.105	-0.34
964.533	33.96
964.961	26.66
965.389	13.26
965.817	1.96
966.245	2.16
966.672	3.86
967.1	-8.84
967.528	1.36
967.956	-3.84
968.383	-0.94
968.811	-0.34
969.239	-2.54
969.666	-2.04
970.094	2.56
970.522	0.76
970.949	-1.84
971.377	-5.44
971.804	-2.84
972.232	-1.44
972.659	-5.54
973.087	-6.24
973.514	0.96
973.941	-5.34
974.369	-2.74
974.796	1.66
975.223	-0.54
975.651	1.16
976.078	4.66
976.505	-6.54
976.932	0.86
977.359	6.26
977.786	5.76
978.214	1.06
978.641	-2.74
979.068	-8.44
979.495	-12.74
979.922	-0.84
980.349	-2.24
980.776	9.06
981.202	1.16
981.629	1.46
982.056	-0.34
982.483	-1.94
982.91	0.96
983.337	-6.94
983.763	3.56
984.19	-6.64
984.617	-3.34
985.043	-5.74
985.47	0.66
985.897	-3.24
986.323	-9.64
986.75	1.56
987.176	0.96
987.603	4.36
988.029	-1.64
988.456	-7.14
988.882	0.76
989.308	-10.24
989.735	-5.84
990.161	2.96
990.587	-2.84
991.014	2.06
991.44	5.86
991.866	-1.74
992.292	-8.04
992.719	-5.74
993.145	4.36
993.571	-2.94
993.997	-0.84
994.423	-3.94
994.849	-0.54
995.275	7.16
995.701	3.76
996.127	-6.14
996.553	-3.24
996.979	-7.64
997.405	-6.64
997.83	-7.04
998.256	-7.84
998.682	-3.94
999.108	-6.54
999.534	-2.14
999.959	2.66
1000.385	-7.24
1000.811	-4.44
1001.236	-11.34
1001.662	-7.94
1002.087	-9.34
1002.513	1.96
1002.938	3.36
1003.364	-3.84
1003.789	-3.44
1004.215	2.26
1004.64	0.46
1005.066	1.56
1005.491	-0.84
1005.916	-0.04
1006.342	-3.94
1006.767	-11.04
1007.192	5.36
1007.617	2.86
1008.042	-0.54
1008.468	-7.24
1008.893	-4.64
1009.318	-5.54
1009.743	-1.74
1010.168	2.86
1010.593	3.06
1011.018	-8.74
1011.443	2.56
1011.868	-1.84
1012.293	-1.34
1012.718	-6.84
1013.143	-5.84
1013.567	1.16
1013.992	-2.04
1014.417	-8.54
1014.842	0.26
1015.267	-5.54
1015.691	-4.64
1016.116	5.96
1016.541	1.76
1016.965	0.96
1017.39	6.76
1017.814	-0.24
1018.239	-0.54
1018.663	-5.94
1019.088	-9.64
1019.512	-7.64
1019.937	-6.94
1020.361	-6.14
1020.785	-11.04
1021.21	-5.14
1021.634	-3.94
1022.058	2.06
1022.483	1.96
1022.907	-8.94
1023.331	-2.94
1023.755	-3.74
1024.179	0.46
1024.604	-3.94
1025.028	-9.44
1025.452	-5.74
1025.876	-3.04
1026.3	-0.84
1026.724	-12.34
1027.148	-6.14
1027.572	-11.64
1027.996	-5.14
1028.42	-2.44
1028.843	-2.24
1029.267	-4.84
1029.691	-1.54
1030.115	-6.94
1030.539	-6.34
1030.962	-2.84
1031.386	-6.14
1031.81	-3.84
1032.233	-4.04
1032.657	-3.64
1033.08	-0.74
1033.504	-1.54
1033.927	-7.74
1034.351	-3.34
1034.774	-2.14
1035.198	0.76
1035.621	-7.34
1036.045	1.86
1036.468	3.26
1036.891	-6.34
1037.315	-6.84
1037.738	-12.34
1038.161	-3.94
1038.584	-1.44
1039.008	-8.04
1039.431	-1.64
1039.854	1.36
1040.277	-9.94
1040.7	-8.44
1041.123	-1.14
1041.546	-9.54
1041.969	-1.14
1042.392	-7.34
1042.815	0.06
1043.238	-2.94
1043.661	-1.94
1044.084	-7.34
1044.507	-3.84
1044.93	-8.14
1045.352	-5.84
1045.775	-2.74
1046.198	-1.44
1046.621	-7.24
1047.043	-2.54
1047.466	8.46
1047.889	-2.84
1048.311	-6.34
1048.734	-3.04
1049.156	-0.54
1049.579	-3.14
1050.001	-5.84
1050.424	-3.44
1050.846	-6.94
1051.269	-2.24
1051.691	-11.24
1052.113	-11.74
1052.536	-0.44
1052.958	-3.74
1053.38	-3.04
1053.802	-5.54
1054.225	3.76
1054.647	-5.24
1055.069	-6.94
1055.491	6.26
1055.913	-8.24
1056.335	-5.14
1056.757	-6.34
1057.179	-1.34
1057.601	-4.64
1058.023	-4.14
1058.445	-7.44
1058.867	-7.24
1059.289	-7.24
1059.711	-7.64
1060.133	-5.84
1060.555	-0.94
1060.976	-7.54
1061.398	-6.84
1061.82	-8.94
1062.241	-7.34
1062.663	-3.34
1063.085	-3.84
1063.506	-1.94
1063.928	-3.64
1064.35	-4.04
1064.771	-6.44
1065.193	-4.64
1065.614	-7.54
1066.035	0.36
1066.457	-5.04
1066.878	-0.74
1067.3	-8.54
1067.721	-4.14
1068.142	-5.74
1068.564	-2.24
1068.985	-4.24
1069.406	-7.44
1069.827	-6.14
1070.248	-1.14
1070.67	-6.54
1071.091	-4.14
1071.512	-1.24
1071.933	-4.84
1072.354	-4.44
1072.775	-4.44
1073.196	-8.94
1073.617	1.06
1074.038	-6.44
1074.459	-5.04
1074.88	-5.04
1075.3	-2.14
1075.721	-2.94
1076.142	2.66
1076.563	-3.64
1076.983	-10.64
1077.404	-11.64
1077.825	-7.74
1078.246	-4.64
1078.666	-9.34
1079.087	-2.24
1079.507	1.26
1079.928	0.06
1080.348	2.86
1080.769	-4.54
1081.189	-3.94
1081.61	1.46
1082.03	-4.14
1082.451	-8.54
1082.871	-7.04
1083.291	-7.24
1083.711	-9.44
1084.132	-3.84
1084.552	-9.84
1084.972	-3.14
1085.392	-15.04
1085.813	-13.84
1086.233	-8.14
1086.653	-8.44
1087.073	-4.04
1087.493	-2.84
1087.913	-3.14
1088.333	-9.14
1088.753	-0.64
1089.173	-2.44
1089.593	-4.24
1090.013	2.16
1090.433	1.06
1090.852	-3.14
1091.272	0.56
1091.692	-0.04
1092.112	0.36
1092.531	-7.04
1092.951	-13.84
1093.371	-0.84
1093.79	1.36
1094.21	0.06
1094.63	-4.64
1095.049	-0.64
1095.469	1.06
1095.888	-9.04
1096.308	-5.44
1096.727	9.26
1097.146	-3.74
1097.566	-1.24
1097.985	-7.34
1098.405	-1.84
1098.824	-8.54
1099.243	-7.74
1099.662	-10.64
1100.082	-5.74
1100.501	-0.54
1100.92	-4.74
1101.339	-1.34
1101.758	-9.14
