Data from 20171114-ORNL-Ar_H_NY_Subt18_08-04-14-346.txt Node
Date: Tue Nov 14 08:04:14 EST 2017
User: Ender
Spectrometer: HR+D1039
Trigger mode: 0
Integration Time (sec): 2.730000E-2
Scans to average: 10
Electric dark correction enabled: true
Nonlinearity correction enabled: false
Boxcar width: 0
XAxis mode: Wavelengths
Number of Pixels in Spectrum: 2048
>>>>>Begin Spectral Data<<<<<
187.836	0.06
188.309	0.06
188.782	0.06
189.255	0.26
189.728	-0.74
190.201	6.66
190.674	-1.14
191.147	2.96
191.619	-4.14
192.092	3.06
192.565	-1.04
193.038	-2.14
193.511	-4.74
193.984	4.16
194.456	-2.84
194.929	-5.04
195.402	3.46
195.874	1.26
196.347	2.76
196.82	-11.44
197.292	7.86
197.765	-3.94
198.237	-6.24
198.71	4.46
199.182	-8.54
199.655	0.96
200.127	1.86
200.6	-1.34
201.072	-5.54
201.544	-8.14
202.017	-4.64
202.489	1.56
202.961	-2.34
203.433	5.46
203.906	-4.74
204.378	-3.34
204.85	0.86
205.322	-7.04
205.794	-0.74
206.266	-3.94
206.739	-6.64
207.211	2.36
207.683	-10.74
208.155	-6.94
208.627	-1.24
209.099	0.76
209.57	-6.64
210.042	-1.54
210.514	-3.34
210.986	-4.14
211.458	-4.34
211.93	-2.14
212.402	5.56
212.873	-8.44
213.345	-13.34
213.817	-14.34
214.288	1.86
214.76	-5.74
215.232	-2.04
215.703	-6.64
216.175	1.06
216.646	-3.34
217.118	-3.94
217.589	-1.94
218.061	-7.84
218.532	-0.94
219.004	4.56
219.475	5.96
219.946	-3.24
220.418	-2.14
220.889	-0.14
221.36	6.16
221.832	2.56
222.303	-3.14
222.774	-2.54
223.245	-4.94
223.717	-4.84
224.188	-5.44
224.659	-8.24
225.13	-5.04
225.601	2.06
226.072	-2.04
226.543	-5.84
227.014	1.66
227.485	-8.74
227.956	-0.44
228.427	1.06
228.898	-2.14
229.369	4.86
229.839	-4.54
230.31	-5.44
230.781	5.86
231.252	-3.84
231.722	-3.64
232.193	-2.84
232.664	-2.84
233.135	1.16
233.605	-0.84
234.076	-2.94
234.546	1.76
235.017	3.76
235.487	-1.34
235.958	-0.34
236.428	0.66
236.899	-0.24
237.369	1.16
237.84	2.56
238.31	6.56
238.78	-1.54
239.251	-1.94
239.721	-0.74
240.191	1.06
240.662	1.36
241.132	5.26
241.602	1.96
242.072	3.06
242.542	11.46
243.013	4.46
243.483	1.36
243.953	2.06
244.423	-2.14
244.893	-5.24
245.363	0.96
245.833	0.56
246.303	-0.34
246.773	7.76
247.243	4.86
247.712	2.66
248.182	8.66
248.652	6.66
249.122	1.76
249.592	11.46
250.061	15.56
250.531	32.76
251.001	16.96
251.471	20.66
251.94	20.56
252.41	5.46
252.879	-0.24
253.349	9.66
253.818	6.06
254.288	6.26
254.757	5.26
255.227	6.16
255.696	6.16
256.166	11.76
256.635	4.96
257.105	6.96
257.574	4.46
258.043	11.16
258.513	10.86
258.982	17.26
259.451	11.66
259.92	8.76
260.389	12.96
260.859	14.66
261.328	10.06
261.797	14.26
262.266	8.76
262.735	10.96
263.204	0.86
263.673	3.36
264.142	9.06
264.611	-4.14
265.08	-0.44
265.549	2.26
266.018	5.76
266.487	-3.94
266.955	-0.54
267.424	-1.44
267.893	6.06
268.362	-3.84
268.83	5.96
269.299	5.16
269.768	3.06
270.236	6.26
270.705	3.86
271.174	10.36
271.642	8.36
272.111	8.56
272.579	10.26
273.048	21.06
273.516	23.16
273.985	23.36
274.453	18.46
274.922	18.56
275.39	9.16
275.858	-0.84
276.327	10.76
276.795	14.96
277.263	13.36
277.731	23.26
278.2	49.86
278.668	54.16
279.136	40.46
279.604	20.66
280.072	13.86
280.54	12.86
281.008	5.36
281.477	12.36
281.945	11.76
282.413	12.36
282.881	18.76
283.348	8.96
283.816	18.76
284.284	11.56
284.752	19.06
285.22	12.66
285.688	15.16
286.156	11.36
286.623	34.86
287.091	41.56
287.559	24.76
288.026	8.66
288.494	10.76
288.962	8.16
289.429	9.36
289.897	17.26
290.364	11.96
290.832	12.46
291.3	10.66
291.767	16.26
292.234	12.56
292.702	9.66
293.169	16.96
293.637	16.16
294.104	14.76
294.571	8.66
295.039	7.36
295.506	12.56
295.973	14.06
296.44	17.96
296.908	16.66
297.375	17.66
297.842	18.76
298.309	12.76
298.776	16.66
299.243	24.06
299.71	14.06
300.177	9.96
300.644	21.26
301.111	20.76
301.578	21.66
302.045	15.86
302.512	17.86
302.979	24.96
303.446	20.06
303.913	16.16
304.379	15.66
304.846	26.46
305.313	24.46
305.78	17.16
306.246	22.86
306.713	26.96
307.18	22.56
307.646	23.16
308.113	28.46
308.579	19.16
309.046	28.56
309.512	26.16
309.979	16.46
310.445	21.76
310.912	30.06
311.378	26.86
311.845	22.46
312.311	29.26
312.777	32.56
313.244	26.76
313.71	36.56
314.176	30.06
314.642	32.26
315.109	29.46
315.575	29.76
316.041	39.86
316.507	26.36
316.973	33.36
317.439	29.56
317.905	37.26
318.371	31.46
318.837	26.56
319.303	31.96
319.769	34.16
320.235	37.06
320.701	30.66
321.167	32.56
321.633	29.16
322.099	37.26
322.564	38.16
323.03	33.86
323.496	31.86
323.962	38.86
324.427	35.36
324.893	35.66
325.359	30.96
325.824	32.56
326.29	34.96
326.755	29.46
327.221	33.56
327.686	33.06
328.152	39.46
328.617	37.36
329.083	42.06
329.548	40.86
330.014	42.76
330.479	39.86
330.944	41.46
331.41	38.66
331.875	41.86
332.34	35.66
332.805	38.56
333.271	42.06
333.736	39.26
334.201	50.56
334.666	51.96
335.131	45.36
335.596	42.86
336.061	42.06
336.526	37.06
336.991	51.16
337.456	49.16
337.921	44.86
338.386	39.66
338.851	38.36
339.316	36.36
339.781	40.46
340.246	47.36
340.711	40.76
341.175	42.66
341.64	39.26
342.105	45.96
342.569	46.36
343.034	53.06
343.499	52.46
343.963	52.66
344.428	62.06
344.893	53.26
345.357	50.16
345.822	49.26
346.286	62.96
346.751	65.76
347.215	61.46
347.679	62.66
348.144	84.76
348.608	75.46
349.073	60.96
349.537	67.46
350.001	65.36
350.465	82.56
350.93	73.06
351.394	73.26
351.858	66.06
352.322	77.76
352.786	71.06
353.25	85.36
353.715	95.06
354.179	84.46
354.643	97.36
355.107	106.76
355.571	97.16
356.035	89.86
356.498	97.86
356.962	104.36
357.426	107.56
357.89	98.56
358.354	75.16
358.818	73.76
359.281	75.26
359.745	70.56
360.209	62.86
360.673	71.66
361.136	70.06
361.6	80.76
362.064	75.66
362.527	76.46
362.991	80.46
363.454	72.86
363.918	64.16
364.381	70.76
364.845	75.06
365.308	79.56
365.772	73.86
366.235	77.66
366.698	72.66
367.162	79.36
367.625	83.26
368.088	77.06
368.552	79.86
369.015	76.76
369.478	87.06
369.941	84.46
370.404	80.66
370.867	93.56
371.331	93.26
371.794	98.76
372.257	97.16
372.72	108.66
373.183	97.76
373.646	93.46
374.109	93.76
374.572	94.96
375.035	98.96
375.497	95.16
375.96	85.46
376.423	86.96
376.886	97.06
377.349	95.06
377.811	86.56
378.274	94.16
378.737	94.96
379.199	101.46
379.662	101.46
380.125	105.16
380.587	107.56
381.05	102.26
381.512	111.76
381.975	120.06
382.437	117.46
382.9	115.06
383.362	117.96
383.825	126.56
384.287	132.26
384.75	131.76
385.212	124.86
385.674	127.16
386.136	120.16
386.599	115.76
387.061	109.86
387.523	113.76
387.985	122.56
388.447	129.06
388.91	134.66
389.372	145.06
389.834	132.06
390.296	126.36
390.758	142.26
391.22	149.16
391.682	182.96
392.144	254.86
392.606	199.86
393.068	149.46
393.529	150.66
393.991	136.56
394.453	131.96
394.915	140.46
395.377	167.86
395.838	188.56
396.3	141.66
396.762	125.06
397.224	127.36
397.685	122.96
398.147	115.96
398.608	120.46
399.07	114.56
399.531	128.86
399.993	129.76
400.454	137.86
400.916	131.06
401.377	125.96
401.839	135.46
402.3	137.16
402.762	146.06
403.223	162.86
403.684	149.96
404.145	138.66
404.607	140.66
405.068	147.66
405.529	154.16
405.99	163.36
406.451	153.26
406.913	156.06
407.374	142.96
407.835	145.46
408.296	151.16
408.757	150.06
409.218	158.06
409.679	160.76
410.14	155.36
410.601	154.96
411.062	168.06
411.522	165.16
411.983	165.26
412.444	161.26
412.905	165.16
413.366	167.16
413.826	179.16
414.287	197.36
414.748	237.46
415.208	225.06
415.669	194.26
416.13	189.16
416.59	177.76
417.051	193.76
417.511	199.66
417.972	219.46
418.432	222.96
418.893	261.46
419.353	223.86
419.814	180.66
420.274	170.76
420.734	174.36
421.195	182.56
421.655	174.26
422.115	167.46
422.576	167.66
423.036	172.46
423.496	188.66
423.956	197.86
424.416	213.66
424.876	242.66
425.336	235.76
425.797	231.66
426.257	229.56
426.717	214.46
427.177	208.76
427.637	193.86
428.097	210.06
428.556	218.96
429.016	241.16
429.476	238.66
429.936	247.76
430.396	251.36
430.856	262.06
431.315	275.36
431.775	315.16
432.235	333.06
432.694	312.56
433.154	310.46
433.614	340.16
434.073	296.66
434.533	249.16
434.993	237.76
435.452	251.26
435.912	253.96
436.371	255.86
436.83	255.06
437.29	240.36
437.749	212.16
438.209	220.26
438.668	242.16
439.127	247.16
439.587	233.06
440.046	221.56
440.505	233.26
440.964	239.56
441.424	271.06
441.883	263.96
442.342	237.86
442.801	191.06
443.26	201.66
443.719	201.16
444.178	198.76
444.637	190.86
445.096	200.36
445.555	200.36
446.014	202.96
446.473	202.86
446.932	212.76
447.391	201.86
447.849	200.46
448.308	199.16
448.767	196.26
449.226	211.36
449.685	209.76
450.143	218.46
450.602	215.66
451.061	206.76
451.519	207.66
451.978	206.36
452.436	206.56
452.895	215.06
453.353	225.56
453.812	214.76
454.27	220.06
454.729	214.76
455.187	212.46
455.646	223.36
456.104	219.56
456.562	224.76
457.021	230.26
457.479	223.26
457.937	231.76
458.395	233.86
458.854	225.56
459.312	226.46
459.77	241.06
460.228	222.06
460.686	218.46
461.144	227.76
461.602	217.96
462.06	214.96
462.518	231.46
462.976	226.56
463.434	228.96
463.892	234.26
464.35	241.66
464.808	259.46
465.266	236.26
465.724	243.46
466.181	251.56
466.639	246.06
467.097	263.76
467.555	269.56
468.012	262.46
468.47	276.76
468.928	288.76
469.385	297.06
469.843	309.16
470.3	314.26
470.758	310.86
471.215	334.66
471.673	358.26
472.13	360.66
472.588	359.66
473.045	333.56
473.503	334.86
473.96	351.56
474.417	358.16
474.875	389.66
475.332	421.96
475.789	411.76
476.246	427.56
476.704	429.76
477.161	458.16
477.618	460.96
478.075	494.26
478.532	545.16
478.989	607.36
479.446	697.96
479.903	684.06
480.36	723.36
480.817	769.66
481.274	867.16
481.731	951.96
482.188	1042.16
482.645	1164.46
483.102	1262.16
483.558	1390.06
484.015	1443.06
484.472	1416.36
484.929	1373.86
485.385	1340.86
485.842	1305.06
486.299	1225.26
486.755	1156.66
487.212	972.26
487.668	832.46
488.125	775.76
488.582	712.26
489.038	672.46
489.494	650.26
489.951	618.06
490.407	604.16
490.864	580.66
491.32	563.66
491.776	582.46
492.233	581.66
492.689	545.86
493.145	540.86
493.602	537.06
494.058	551.56
494.514	546.46
494.97	564.96
495.426	574.86
495.882	544.76
496.338	546.76
496.794	562.66
497.251	540.46
497.707	563.16
498.163	566.06
498.618	570.16
499.074	576.96
499.53	592.36
499.986	604.86
500.442	582.96
500.898	564.36
501.354	560.36
501.809	570.26
502.265	577.06
502.721	587.46
503.177	591.36
503.632	586.46
504.088	607.06
504.543	629.76
504.999	623.86
505.455	583.26
505.91	566.46
506.366	569.36
506.821	558.36
507.277	557.76
507.732	563.76
508.187	559.76
508.643	569.36
509.098	554.96
509.553	582.36
510.009	595.96
510.464	592.86
510.919	618.66
511.375	612.46
511.83	624.36
512.285	638.96
512.74	674.56
513.195	691.06
513.65	677.36
514.105	681.46
514.56	692.26
515.015	709.16
515.47	719.26
515.925	702.76
516.38	702.06
516.835	707.76
517.29	696.86
517.745	691.76
518.2	687.36
518.655	667.06
519.109	661.56
519.564	651.76
520.019	649.16
520.474	648.06
520.928	645.66
521.383	641.46
521.838	626.46
522.292	634.76
522.747	635.56
523.201	623.46
523.656	610.86
524.11	613.06
524.565	617.36
525.019	604.16
525.474	622.76
525.928	611.26
526.382	615.26
526.837	608.56
527.291	624.26
527.745	604.16
528.2	617.06
528.654	612.76
529.108	607.36
529.562	606.86
530.016	605.96
530.47	606.46
530.925	610.46
531.379	611.16
531.833	623.06
532.287	620.46
532.741	612.46
533.195	621.06
533.649	624.46
534.103	631.16
534.556	620.36
535.01	619.96
535.464	611.86
535.918	630.96
536.372	625.76
536.826	620.76
537.279	622.16
537.733	621.16
538.187	626.66
538.64	629.76
539.094	631.66
539.548	635.46
540.001	635.16
540.455	625.86
540.908	644.36
541.362	643.16
541.815	657.76
542.269	664.96
542.722	666.16
543.175	671.26
543.629	669.86
544.082	687.16
544.536	698.26
544.989	688.76
545.442	700.16
545.895	692.96
546.349	685.46
546.802	679.86
547.255	698.06
547.708	703.46
548.161	705.56
548.614	708.96
549.067	717.06
549.52	717.56
549.973	711.26
550.426	703.46
550.879	691.26
551.332	688.66
551.785	694.36
552.238	695.76
552.691	711.16
553.144	720.66
553.596	730.66
554.049	747.56
554.502	771.66
554.955	789.16
555.407	784.36
555.86	777.46
556.313	775.46
556.765	758.26
557.218	761.56
557.67	759.86
558.123	760.06
558.576	748.16
559.028	752.96
559.48	772.16
559.933	757.96
560.385	727.46
560.838	692.86
561.29	673.16
561.742	678.46
562.195	655.86
562.647	654.46
563.099	668.06
563.551	657.06
564.004	672.06
564.456	662.96
564.908	652.66
565.36	638.66
565.812	626.96
566.264	621.06
566.716	618.26
567.168	611.66
567.62	619.16
568.072	603.26
568.524	593.86
568.976	586.56
569.428	573.66
569.88	571.26
570.332	576.16
570.784	584.26
571.235	584.16
571.687	592.76
572.139	586.06
572.59	610.06
573.042	600.66
573.494	597.96
573.945	600.76
574.397	588.86
574.849	593.66
575.3	585.36
575.752	580.66
576.203	571.56
576.655	581.96
577.106	567.66
577.557	558.06
578.009	564.16
578.46	562.96
578.912	565.46
579.363	561.16
579.814	553.96
580.265	554.66
580.717	563.56
581.168	563.06
581.619	569.56
582.07	580.96
582.521	570.66
582.972	568.36
583.423	565.76
583.875	567.66
584.326	590.76
584.777	624.06
585.227	693.66
585.678	772.66
586.129	840.16
586.58	904.06
587.031	992.26
587.482	1129.56
587.933	1307.46
588.384	1120.06
588.834	822.76
589.285	685.96
589.736	649.56
590.186	651.06
590.637	644.26
591.088	624.56
591.538	620.76
591.989	616.16
592.439	601.66
592.89	610.06
593.34	590.26
593.791	597.26
594.241	589.06
594.692	584.26
595.142	584.76
595.593	585.96
596.043	591.26
596.493	595.56
596.943	599.66
597.394	598.26
597.844	593.46
598.294	608.36
598.744	628.86
599.195	647.06
599.645	677.76
600.095	706.26
600.545	753.66
600.995	793.46
601.445	847.86
601.895	903.46
602.345	942.76
602.795	923.16
603.245	888.46
603.695	840.76
604.145	789.16
604.594	755.26
605.044	704.36
605.494	661.16
605.944	617.76
606.393	610.76
606.843	604.36
607.293	605.96
607.743	597.66
608.192	613.56
608.642	623.86
609.091	628.96
609.541	635.66
609.99	631.66
610.44	629.16
610.889	594.76
611.339	577.76
611.788	560.56
612.238	578.06
612.687	596.76
613.136	591.06
613.586	609.56
614.035	602.86
614.484	620.26
614.933	617.66
615.383	617.36
615.832	609.16
616.281	594.16
616.73	569.76
617.179	546.46
617.628	533.56
618.077	514.76
618.526	514.76
618.975	508.46
619.424	498.26
619.873	500.96
620.322	507.66
620.771	490.66
621.22	497.26
621.669	485.36
622.118	475.46
622.567	465.16
623.015	457.86
623.464	461.96
623.913	458.36
624.361	452.86
624.81	450.46
625.259	448.26
625.707	457.86
626.156	450.06
626.604	457.86
627.053	447.46
627.501	453.26
627.95	460.66
628.398	466.66
628.847	450.56
629.295	468.96
629.744	461.26
630.192	467.06
630.64	461.56
631.089	454.56
631.537	465.16
631.985	469.76
632.433	483.06
632.881	482.96
633.33	526.86
633.778	500.86
634.226	448.86
634.674	458.96
635.122	468.76
635.57	474.76
636.018	502.56
636.466	465.96
636.914	453.26
637.362	460.46
637.81	461.16
638.258	462.96
638.705	459.86
639.153	491.46
639.601	491.66
640.049	516.06
640.497	545.36
640.944	561.36
641.392	518.86
641.84	487.26
642.287	478.96
642.735	453.46
643.182	463.46
643.63	462.96
644.078	462.66
644.525	471.56
644.973	474.26
645.42	487.56
645.867	496.86
646.315	514.06
646.762	518.96
647.21	542.56
647.657	566.06
648.104	600.36
648.551	617.96
648.999	666.16
649.446	736.86
649.893	801.56
650.34	919.86
650.787	1098.06
651.234	1354.26
651.682	1769.26
652.129	2402.26
652.576	3473.86
653.023	5139.76
653.47	7110.66
653.917	8993.36
654.363	10603.46
654.81	11992.06
655.257	11385.26
655.704	7370.46
656.151	4305.66
656.598	2774.46
657.044	1967.16
657.491	1512.56
657.938	1200.16
658.385	1003.76
658.831	869.76
659.278	777.26
659.724	668.26
660.171	630.36
660.618	570.26
661.064	540.56
661.511	521.26
661.957	512.36
662.404	497.26
662.85	507.96
663.296	478.26
663.743	444.46
664.189	434.06
664.635	422.86
665.082	423.26
665.528	423.66
665.974	413.16
666.42	396.16
666.867	395.56
667.313	377.06
667.759	375.56
668.205	380.26
668.651	392.86
669.097	384.46
669.543	400.66
669.989	373.36
670.435	358.26
670.881	353.76
671.327	357.96
671.773	375.96
672.219	392.46
672.665	437.66
673.11	460.56
673.556	503.36
674.002	532.36
674.448	520.86
674.893	438.86
675.339	380.06
675.785	344.26
676.23	325.66
676.676	309.46
677.122	304.06
677.567	288.16
678.013	288.96
678.458	285.56
678.904	274.16
679.349	279.06
679.794	278.46
680.24	282.16
680.685	274.06
681.131	267.66
681.576	275.06
682.021	285.26
682.466	273.46
682.912	268.86
683.357	269.36
683.802	295.76
684.247	312.66
684.692	356.26
685.137	380.86
685.583	421.56
686.028	450.26
686.473	412.96
686.918	353.26
687.363	325.66
687.807	311.36
688.252	288.66
688.697	282.86
689.142	268.16
689.587	259.96
690.032	252.26
690.477	265.76
690.921	268.46
691.366	293.96
691.811	309.86
692.255	340.86
692.7	362.66
693.145	387.36
693.589	522.16
694.034	854.46
694.478	1195.56
694.923	1395.46
695.367	1841.86
695.812	971.36
696.256	400.36
696.701	292.46
697.145	269.36
697.59	254.26
698.034	251.66
698.478	256.56
698.922	253.06
699.367	261.36
699.811	268.46
700.255	274.96
700.699	300.96
701.143	324.06
701.588	367.76
702.032	402.96
702.476	405.56
702.92	387.36
703.364	382.66
703.808	475.56
704.252	785.16
704.696	1130.86
705.14	1332.26
705.584	1735.16
706.027	851.36
706.471	414.06
706.915	305.76
707.359	274.86
707.803	251.46
708.246	238.26
708.69	244.16
709.134	246.46
709.577	246.36
710.021	251.66
710.465	238.66
710.908	235.96
711.352	231.36
711.795	243.36
712.239	268.16
712.682	292.46
713.126	323.16
713.569	365.36
714.012	291.26
714.456	254.36
714.899	238.06
715.342	219.76
715.786	199.06
716.229	197.96
716.672	198.46
717.115	192.96
717.558	194.46
718.002	196.46
718.445	204.26
718.888	222.46
719.331	229.06
719.774	234.16
720.217	238.46
720.66	222.26
721.103	206.16
721.546	192.86
721.989	197.96
722.432	177.36
722.874	192.36
723.317	180.16
723.76	181.86
724.203	193.86
724.645	235.06
725.088	337.16
725.531	449.66
725.974	510.76
726.416	443.16
726.859	239.26
727.301	195.06
727.744	181.56
728.187	182.46
728.629	186.46
729.071	187.96
729.514	202.06
729.956	209.16
730.399	221.06
730.841	225.66
731.283	206.06
731.726	204.96
732.168	205.96
732.61	202.36
733.053	225.66
733.495	241.26
733.937	271.46
734.379	303.36
734.821	337.06
735.263	417.56
735.705	631.26
736.148	1191.66
736.59	2013.96
737.032	2483.56
737.474	2005.36
737.916	637.86
738.357	332.86
738.799	249.96
739.241	222.06
739.683	216.96
740.125	223.46
740.567	235.26
741.008	250.26
741.45	248.66
741.892	249.86
742.334	271.46
742.775	284.76
743.217	268.96
743.658	208.56
744.1	194.56
744.542	205.96
744.983	236.56
745.425	274.56
745.866	272.06
746.307	227.46
746.749	227.46
747.19	252.36
747.632	340.66
748.073	650.86
748.514	1398.96
748.956	2238.16
749.397	2818.06
749.838	2341.46
750.279	2411.66
750.72	1213.36
751.162	438.96
751.603	248.86
752.044	194.56
752.485	171.26
752.926	166.86
753.367	148.76
753.808	154.16
754.249	149.66
754.69	144.36
755.131	141.06
755.572	148.46
756.013	132.66
756.453	141.06
756.894	143.96
757.335	151.06
757.776	149.06
758.216	146.66
758.657	157.76
759.098	155.36
759.538	176.26
759.979	207.16
760.42	280.56
760.86	527.16
761.301	1360.56
761.741	3408.06
762.182	5308.66
762.622	3739.46
763.063	1050.96
763.503	427.16
763.943	271.56
764.384	264.86
764.824	320.96
765.264	361.26
765.705	250.36
766.145	174.16
766.585	145.06
767.025	138.76
767.465	137.36
767.906	199.56
768.346	256.76
768.786	277.16
769.226	207.56
769.666	241.86
770.106	461.16
770.546	1180.76
770.986	2110.76
771.426	1940.36
771.866	635.76
772.306	253.66
772.745	169.56
773.185	135.36
773.625	132.66
774.065	133.86
774.505	151.66
774.944	234.26
775.384	512.16
775.824	982.56
776.263	978.16
776.703	405.86
777.142	174.36
777.582	121.56
778.021	103.56
778.461	108.66
778.9	105.06
779.34	100.16
779.779	90.56
780.219	78.76
780.658	88.26
781.097	82.26
781.537	90.26
781.976	82.36
782.415	87.56
782.855	74.96
783.294	78.16
783.733	79.46
784.172	78.66
784.611	77.16
785.05	84.86
785.489	80.36
785.928	86.26
786.367	92.26
786.806	88.46
787.245	100.36
787.684	104.26
788.123	111.16
788.562	103.26
789.001	99.46
789.44	98.76
789.879	92.06
790.317	91.06
790.756	100.86
791.195	100.96
791.634	116.06
792.072	164.56
792.511	271.66
792.95	755.96
793.388	1707.86
793.827	1590.86
794.265	535.56
794.704	217.16
795.142	140.36
795.581	114.56
796.019	109.96
796.458	99.66
796.896	99.56
797.334	96.56
797.773	124.36
798.211	164.46
798.649	323.46
799.087	780.76
799.526	1247.46
799.964	1578.06
800.402	1680.36
800.84	609.26
801.278	234.76
801.716	143.46
802.154	120.16
802.592	111.66
803.03	113.06
803.468	104.36
803.906	111.66
804.344	118.76
804.782	117.36
805.22	101.36
805.658	103.06
806.096	112.96
806.533	123.56
806.971	135.86
807.409	162.46
807.847	235.16
808.284	489.56
808.722	1427.56
809.16	2653.76
809.597	2444.46
810.035	4337.26
810.472	4884.16
810.91	1720.76
811.347	638.06
811.785	322.76
812.222	200.06
812.66	152.26
813.097	130.46
813.535	109.26
813.972	108.66
814.409	93.36
814.846	90.46
815.284	89.56
815.721	79.36
816.158	82.26
816.595	90.66
817.032	138.76
817.47	154.56
817.907	135.36
818.344	119.56
818.781	93.66
819.218	76.06
819.655	90.76
820.092	150.96
820.529	176.76
820.966	143.56
821.403	105.56
821.839	86.56
822.276	82.16
822.713	90.46
823.15	108.56
823.587	94.96
824.023	102.96
824.46	220.76
824.897	683.26
825.333	1113.86
825.77	463.26
826.206	176.46
826.643	106.16
827.08	76.56
827.516	67.16
827.953	58.36
828.389	63.96
828.825	56.46
829.262	56.46
829.698	47.66
830.135	54.26
830.571	45.36
831.007	51.66
831.443	49.16
831.88	43.16
832.316	49.16
832.752	43.46
833.188	52.06
833.624	48.26
834.06	52.66
834.497	56.36
834.933	51.26
835.369	55.86
835.805	54.76
836.241	58.36
836.677	60.06
837.112	75.46
837.548	82.36
837.984	99.06
838.42	153.56
838.856	372.96
839.292	1190.06
839.727	1904.26
840.163	861.96
840.599	713.66
841.034	1627.06
841.47	1780.16
841.906	637.26
842.341	261.96
842.777	179.26
843.212	246.56
843.648	256.16
844.083	123.26
844.519	78.16
844.954	59.36
845.39	44.56
845.825	50.06
846.261	47.96
846.696	42.76
847.131	41.16
847.566	49.56
848.002	43.86
848.437	42.76
848.872	46.26
849.307	46.76
849.742	59.96
850.177	143.16
850.613	431.86
851.048	721.86
851.483	301.66
851.918	119.06
852.353	70.06
852.788	46.86
853.223	42.46
853.657	44.76
854.092	36.66
854.527	35.16
854.962	31.66
855.397	36.26
855.832	34.36
856.266	33.06
856.701	32.96
857.136	22.76
857.57	31.66
858.005	35.46
858.44	44.16
858.874	33.96
859.309	39.46
859.743	31.56
860.178	32.06
860.612	26.06
861.047	36.76
861.481	50.46
861.915	55.96
862.35	42.66
862.784	27.76
863.218	35.76
863.653	28.46
864.087	41.66
864.521	42.36
864.955	56.26
865.39	124.26
865.824	143.26
866.258	92.46
866.692	134.36
867.126	146.06
867.56	86.36
867.994	48.26
868.428	29.16
868.862	36.46
869.296	43.86
869.73	51.06
870.164	42.26
870.598	35.26
871.031	30.16
871.465	23.76
871.899	25.76
872.333	18.96
872.766	20.26
873.2	18.76
873.634	20.16
874.067	15.26
874.501	17.36
874.935	28.36
875.368	23.86
875.802	19.76
876.235	20.16
876.669	15.76
877.102	13.56
877.535	20.66
877.969	19.76
878.402	19.46
878.836	19.56
879.269	18.26
879.702	22.46
880.135	17.16
880.569	14.16
881.002	17.96
881.435	22.96
881.868	12.56
882.301	18.76
882.734	9.26
883.167	17.06
883.601	13.06
884.034	19.46
884.467	9.46
884.899	23.96
885.332	5.86
885.765	8.66
886.198	7.16
886.631	12.96
887.064	17.66
887.497	20.96
887.929	23.26
888.362	13.96
888.795	9.66
889.228	13.76
889.66	14.56
890.093	15.06
890.526	13.76
890.958	12.56
891.391	13.26
891.823	22.66
892.256	9.06
892.688	7.36
893.121	12.96
893.553	15.96
893.985	18.66
894.418	12.66
894.85	8.16
895.282	8.26
895.715	14.06
896.147	10.06
896.579	14.66
897.011	6.46
897.444	5.76
897.876	14.86
898.308	12.36
898.74	10.16
899.172	5.96
899.604	17.26
900.036	13.06
900.468	10.06
900.9	13.36
901.332	7.86
901.764	11.86
902.196	15.26
902.628	14.76
903.06	9.26
903.491	23.76
903.923	14.56
904.355	16.46
904.787	18.96
905.218	24.06
905.65	15.36
906.082	12.26
906.513	8.86
906.945	13.26
907.376	5.06
907.808	12.76
908.239	19.86
908.671	12.16
909.102	15.96
909.534	16.16
909.965	42.36
910.397	67.56
910.828	248.36
911.259	399.16
911.691	172.46
912.122	80.76
912.553	42.46
912.984	30.66
913.415	21.06
913.847	18.96
914.278	12.56
914.709	8.56
915.14	19.36
915.571	15.26
916.002	11.26
916.433	11.86
916.864	13.26
917.295	10.16
917.726	16.56
918.157	12.86
918.587	20.06
919.018	9.26
919.449	15.76
919.88	18.76
920.311	27.06
920.741	36.46
921.172	129.36
921.603	123.96
922.033	47.66
922.464	34.46
922.895	14.86
923.325	12.86
923.756	8.76
924.186	8.56
924.617	21.16
925.047	28.46
925.478	41.66
925.908	32.46
926.338	13.86
926.769	13.16
927.199	18.46
927.629	4.26
928.06	9.36
928.49	14.26
928.92	13.26
929.35	6.86
929.78	8.96
930.21	7.46
930.641	2.26
931.071	3.66
931.501	-1.14
931.931	6.26
932.361	8.16
932.791	7.06
933.221	7.36
933.651	5.06
934.08	13.56
934.51	23.96
934.94	6.06
935.37	9.26
935.8	11.36
936.229	6.06
936.659	3.06
937.089	2.56
937.519	6.56
937.948	18.86
938.378	11.46
938.807	4.06
939.237	3.66
939.666	4.86
940.096	-9.44
940.525	0.16
940.955	3.86
941.384	3.66
941.814	-1.64
942.243	-3.74
942.672	3.86
943.102	-8.14
943.531	3.96
943.96	4.36
944.39	0.96
944.819	7.56
945.248	1.86
945.677	3.46
946.106	6.26
946.535	-0.24
946.964	-3.34
947.393	1.56
947.822	1.46
948.251	-0.74
948.68	-0.34
949.109	6.26
949.538	3.86
949.967	4.86
950.396	3.06
950.825	3.26
951.254	4.26
951.682	-2.64
952.111	4.46
952.54	7.46
952.969	-1.34
953.397	-4.74
953.826	-6.74
954.254	-2.74
954.683	-3.64
955.112	-5.44
955.54	0.86
955.969	3.86
956.397	-5.04
956.826	-3.74
957.254	4.06
957.682	-1.44
958.111	6.96
958.539	4.06
958.967	-8.94
959.396	-2.74
959.824	0.96
960.252	7.76
960.68	-3.64
961.109	-0.84
961.537	-0.84
961.965	0.16
962.393	-2.14
962.821	-6.54
963.249	-1.14
963.677	4.66
964.105	-2.74
964.533	38.26
964.961	35.76
965.389	14.56
965.817	5.66
966.245	-3.04
966.672	-6.14
967.1	-1.44
967.528	0.26
967.956	-2.74
968.383	-0.44
968.811	-0.74
969.239	-1.54
969.666	-4.84
970.094	0.06
970.522	2.06
970.949	-2.14
971.377	-5.84
971.804	-7.34
972.232	-2.84
972.659	-8.14
973.087	-2.94
973.514	-3.44
973.941	-5.24
974.369	5.36
974.796	-0.64
975.223	5.46
975.651	-0.24
976.078	5.96
976.505	-0.24
976.932	-1.14
977.359	16.46
977.786	15.56
978.214	-0.44
978.641	-7.84
979.068	-4.14
979.495	-6.64
979.922	-3.04
980.349	-3.34
980.776	2.26
981.202	1.96
981.629	-2.34
982.056	-0.54
982.483	-6.84
982.91	3.06
983.337	-4.34
983.763	3.76
984.19	-10.64
984.617	-1.84
985.043	-11.44
985.47	-0.44
985.897	-0.24
986.323	-8.74
986.75	1.56
987.176	-3.84
987.603	-3.14
988.029	-0.94
988.456	-0.64
988.882	-0.04
989.308	-9.44
989.735	-2.94
990.161	1.06
990.587	-4.14
991.014	-0.84
991.44	1.76
991.866	-0.54
992.292	-3.14
992.719	0.16
993.145	3.26
993.571	-5.04
993.997	-5.64
994.423	-3.34
994.849	-4.74
995.275	1.36
995.701	1.16
996.127	-3.24
996.553	5.06
996.979	0.26
997.405	3.96
997.83	-7.44
998.256	-7.04
998.682	-2.34
999.108	-9.84
999.534	-5.24
999.959	-3.04
1000.385	-6.24
1000.811	-0.44
1001.236	-6.34
1001.662	-6.94
1002.087	-10.54
1002.513	0.86
1002.938	0.96
1003.364	-6.24
1003.789	2.76
1004.215	5.56
1004.64	-0.04
1005.066	-2.44
1005.491	-1.44
1005.916	-1.94
1006.342	1.66
1006.767	-6.94
1007.192	3.86
1007.617	-4.84
1008.042	-1.04
1008.468	-2.94
1008.893	-4.54
1009.318	0.26
1009.743	-3.84
1010.168	5.56
1010.593	4.06
1011.018	-7.84
1011.443	-3.04
1011.868	4.26
1012.293	-1.04
1012.718	-5.34
1013.143	0.66
1013.567	-1.24
1013.992	-2.54
1014.417	-12.04
1014.842	4.76
1015.267	2.06
1015.691	-1.44
1016.116	0.26
1016.541	-0.44
1016.965	5.96
1017.39	6.56
1017.814	0.56
1018.239	-2.44
1018.663	-5.34
1019.088	-12.94
1019.512	-1.74
1019.937	-4.14
1020.361	-10.14
1020.785	-9.84
1021.21	-3.24
1021.634	-1.74
1022.058	-2.74
1022.483	2.86
1022.907	-5.14
1023.331	-4.04
1023.755	-6.44
1024.179	-1.84
1024.604	-8.24
1025.028	-3.34
1025.452	-2.04
1025.876	-2.94
1026.3	1.96
1026.724	-9.34
1027.148	-3.04
1027.572	-13.84
1027.996	-5.04
1028.42	-6.44
1028.843	-4.24
1029.267	-7.24
1029.691	0.56
1030.115	-2.24
1030.539	-7.94
1030.962	-11.24
1031.386	-9.94
1031.81	0.36
1032.233	0.26
1032.657	-1.14
1033.08	0.26
1033.504	1.26
1033.927	-3.34
1034.351	-0.34
1034.774	-3.34
1035.198	1.06
1035.621	-5.34
1036.045	-5.74
1036.468	4.56
1036.891	-10.54
1037.315	-9.74
1037.738	-7.04
1038.161	-0.04
1038.584	-7.74
1039.008	-5.14
1039.431	-4.24
1039.854	-5.14
1040.277	-11.64
1040.7	-9.54
1041.123	-1.54
1041.546	-8.14
1041.969	-3.44
1042.392	-11.64
1042.815	-4.84
1043.238	3.66
1043.661	1.66
1044.084	-6.74
1044.507	-2.54
1044.93	-11.04
1045.352	-4.74
1045.775	-5.14
1046.198	0.66
1046.621	1.56
1047.043	3.16
1047.466	6.16
1047.889	-5.84
1048.311	-3.44
1048.734	-4.94
1049.156	-0.14
1049.579	-1.24
1050.001	-2.84
1050.424	-0.34
1050.846	3.86
1051.269	-3.94
1051.691	-4.74
1052.113	-7.04
1052.536	-4.24
1052.958	-3.84
1053.38	-8.54
1053.802	-8.54
1054.225	-0.24
1054.647	-5.34
1055.069	-2.64
1055.491	-0.44
1055.913	-11.64
1056.335	-1.64
1056.757	-4.44
1057.179	-6.44
1057.601	-3.24
1058.023	-5.94
1058.445	-10.64
1058.867	-3.04
1059.289	-4.94
1059.711	-12.84
1060.133	-0.74
1060.555	2.76
1060.976	-2.54
1061.398	-6.64
1061.82	-5.04
1062.241	-4.24
1062.663	-8.14
1063.085	-8.64
1063.506	0.26
1063.928	1.06
1064.35	-1.64
1064.771	-11.04
1065.193	2.66
1065.614	-10.14
1066.035	-4.84
1066.457	-6.24
1066.878	2.66
1067.3	-6.04
1067.721	-1.04
1068.142	-3.64
1068.564	0.76
1068.985	-6.44
1069.406	-4.34
1069.827	-6.34
1070.248	-0.74
1070.67	-4.24
1071.091	-4.04
1071.512	-4.54
1071.933	-4.74
1072.354	-4.14
1072.775	-0.84
1073.196	-8.94
1073.617	-5.14
1074.038	-6.24
1074.459	-2.44
1074.88	-8.14
1075.3	1.56
1075.721	-6.64
1076.142	-0.44
1076.563	-1.54
1076.983	-5.24
1077.404	-10.54
1077.825	-8.64
1078.246	-3.84
1078.666	-7.74
1079.087	-3.94
1079.507	-6.64
1079.928	2.16
1080.348	-1.44
1080.769	-10.64
1081.189	1.16
1081.61	0.56
1082.03	-5.24
1082.451	-5.44
1082.871	-4.54
1083.291	-6.94
1083.711	-11.64
1084.132	-6.24
1084.552	-7.44
1084.972	-2.34
1085.392	-17.34
1085.813	-12.34
1086.233	-8.04
1086.653	-0.64
1087.073	-1.44
1087.493	-5.74
1087.913	-3.54
1088.333	-8.14
1088.753	-6.04
1089.173	2.16
1089.593	2.06
1090.013	-0.54
1090.433	-1.44
1090.852	-3.24
1091.272	1.96
1091.692	-0.94
1092.112	-3.04
1092.531	-9.14
1092.951	-5.44
1093.371	-3.44
1093.79	-3.94
1094.21	-8.14
1094.63	-5.84
1095.049	-1.74
1095.469	-1.04
1095.888	-3.64
1096.308	0.06
1096.727	8.36
1097.146	-7.84
1097.566	-1.94
1097.985	-10.24
1098.405	-3.74
1098.824	-6.24
1099.243	-5.94
1099.662	-9.94
1100.082	-3.64
1100.501	3.96
1100.92	-5.94
1101.339	-5.74
1101.758	-10.64
