Data from 20171114-ORNL-Ar_H_NY_Subt18_08-03-50-870.txt Node
Date: Tue Nov 14 08:03:50 EST 2017
User: Ender
Spectrometer: HR+D1039
Trigger mode: 0
Integration Time (sec): 2.730000E-2
Scans to average: 10
Electric dark correction enabled: true
Nonlinearity correction enabled: false
Boxcar width: 0
XAxis mode: Wavelengths
Number of Pixels in Spectrum: 2048
>>>>>Begin Spectral Data<<<<<
187.836	-2.78
188.309	-2.78
188.782	-2.78
189.255	-1.28
189.728	-2.38
190.201	1.02
190.674	-0.88
191.147	7.52
191.619	-7.08
192.092	-0.48
192.565	5.22
193.038	-2.18
193.511	-0.08
193.984	-0.88
194.456	-2.58
194.929	7.32
195.402	-2.78
195.874	2.32
196.347	-1.68
196.82	-4.18
197.292	5.12
197.765	0.72
198.237	-1.48
198.71	1.12
199.182	-7.58
199.655	3.42
200.127	3.72
200.6	-6.18
201.072	-3.28
201.544	-7.58
202.017	1.42
202.489	1.62
202.961	5.02
203.433	-6.78
203.906	-9.58
204.378	-3.98
204.85	-3.98
205.322	-5.28
205.794	-5.68
206.266	-7.78
206.739	-10.68
207.211	-2.98
207.683	-6.98
208.155	-5.28
208.627	-6.98
209.099	-3.78
209.57	-3.28
210.042	-0.08
210.514	0.22
210.986	0.42
211.458	-5.08
211.93	-4.78
212.402	0.72
212.873	-5.18
213.345	-0.28
213.817	-9.68
214.288	-1.78
214.76	-9.38
215.232	-1.58
215.703	0.02
216.175	-0.58
216.646	-0.38
217.118	-8.58
217.589	-6.78
218.061	0.42
218.532	-2.48
219.004	0.12
219.475	-3.18
219.946	-0.38
220.418	-7.08
220.889	-1.78
221.36	-1.28
221.832	-5.58
222.303	-7.88
222.774	-0.98
223.245	-7.68
223.717	-4.48
224.188	-5.58
224.659	-15.08
225.13	-1.98
225.601	-2.28
226.072	2.72
226.543	-3.28
227.014	-4.58
227.485	0.02
227.956	-7.98
228.427	0.32
228.898	4.62
229.369	3.82
229.839	-11.48
230.31	-4.38
230.781	2.12
231.252	-1.28
231.722	-0.68
232.193	-1.88
232.664	-3.58
233.135	0.62
233.605	-0.98
234.076	-13.88
234.546	5.22
235.017	2.52
235.487	-6.18
235.958	-3.38
236.428	-3.58
236.899	2.72
237.369	-0.38
237.84	-7.18
238.31	0.92
238.78	-0.58
239.251	-0.68
239.721	0.52
240.191	-0.48
240.662	-3.88
241.132	-0.98
241.602	-6.18
242.072	4.92
242.542	6.42
243.013	-3.18
243.483	2.52
243.953	1.52
244.423	-5.18
244.893	-5.18
245.363	4.92
245.833	1.22
246.303	-3.18
246.773	-1.38
247.243	-1.18
247.712	-2.48
248.182	2.02
248.652	-2.18
249.122	-6.38
249.592	-3.08
250.061	-1.08
250.531	11.02
251.001	-2.68
251.471	2.72
251.94	3.12
252.41	-0.48
252.879	-8.78
253.349	10.12
253.818	6.82
254.288	-1.08
254.757	-0.48
255.227	-3.08
255.696	4.32
256.166	-0.78
256.635	-2.28
257.105	5.02
257.574	2.72
258.043	1.22
258.513	-5.48
258.982	-6.08
259.451	-4.68
259.92	3.42
260.389	-0.38
260.859	7.72
261.328	1.72
261.797	4.62
262.266	-1.88
262.735	8.82
263.204	5.12
263.673	-3.68
264.142	4.82
264.611	-4.78
265.08	-2.18
265.549	-2.58
266.018	3.42
266.487	-2.88
266.955	-2.68
267.424	-1.58
267.893	2.22
268.362	-3.38
268.83	-5.08
269.299	9.02
269.768	-3.38
270.236	6.32
270.705	1.62
271.174	7.92
271.642	-1.08
272.111	-2.18
272.579	1.02
273.048	0.22
273.516	0.62
273.985	2.42
274.453	4.62
274.922	6.22
275.39	9.12
275.858	-7.58
276.327	0.42
276.795	14.52
277.263	0.02
277.731	11.82
278.2	3.02
278.668	3.32
279.136	4.32
279.604	-3.28
280.072	6.52
280.54	8.42
281.008	7.32
281.477	5.32
281.945	8.42
282.413	7.72
282.881	10.62
283.348	-1.68
283.816	7.12
284.284	8.92
284.752	13.02
285.22	10.72
285.688	8.92
286.156	2.42
286.623	21.12
287.091	12.42
287.559	5.92
288.026	7.32
288.494	9.22
288.962	-3.68
289.429	5.72
289.897	19.42
290.364	9.12
290.832	11.12
291.3	7.72
291.767	7.22
292.234	9.32
292.702	7.02
293.169	15.22
293.637	17.92
294.104	14.82
294.571	4.22
295.039	4.82
295.506	8.72
295.973	7.22
296.44	6.82
296.908	5.12
297.375	8.52
297.842	7.72
298.309	13.72
298.776	3.62
299.243	11.32
299.71	2.92
300.177	13.22
300.644	12.72
301.111	12.72
301.578	13.62
302.045	7.02
302.512	19.72
302.979	21.62
303.446	14.72
303.913	6.42
304.379	11.82
304.846	18.82
305.313	20.32
305.78	10.92
306.246	20.62
306.713	14.82
307.18	22.02
307.646	14.52
308.113	24.42
308.579	21.82
309.046	15.72
309.512	12.92
309.979	12.62
310.445	21.72
310.912	18.02
311.378	22.32
311.845	23.92
312.311	22.12
312.777	30.02
313.244	25.12
313.71	29.22
314.176	16.42
314.642	20.12
315.109	26.62
315.575	30.92
316.041	31.02
316.507	18.92
316.973	26.02
317.439	23.52
317.905	24.22
318.371	28.92
318.837	26.62
319.303	28.22
319.769	25.72
320.235	21.22
320.701	28.52
321.167	23.02
321.633	24.92
322.099	27.52
322.564	33.22
323.03	29.72
323.496	31.82
323.962	32.72
324.427	29.32
324.893	28.12
325.359	25.62
325.824	32.52
326.29	35.42
326.755	32.12
327.221	36.42
327.686	38.62
328.152	42.82
328.617	33.72
329.083	41.42
329.548	42.72
330.014	42.42
330.479	32.42
330.944	39.02
331.41	42.22
331.875	39.92
332.34	39.02
332.805	32.32
333.271	36.32
333.736	36.12
334.201	47.02
334.666	45.72
335.131	43.02
335.596	45.22
336.061	43.32
336.526	35.22
336.991	35.52
337.456	50.12
337.921	34.92
338.386	39.42
338.851	40.72
339.316	45.82
339.781	39.82
340.246	49.82
340.711	39.22
341.175	48.92
341.64	37.22
342.105	44.72
342.569	45.32
343.034	50.32
343.499	50.32
343.963	47.62
344.428	60.02
344.893	57.82
345.357	54.92
345.822	53.62
346.286	54.92
346.751	65.02
347.215	58.52
347.679	60.12
348.144	76.02
348.608	68.72
349.073	66.82
349.537	65.62
350.001	71.22
350.465	76.62
350.93	76.82
351.394	66.12
351.858	58.42
352.322	71.12
352.786	71.22
353.25	78.72
353.715	90.72
354.179	80.42
354.643	99.72
355.107	100.82
355.571	88.62
356.035	84.32
356.498	95.52
356.962	100.22
357.426	98.72
357.89	96.52
358.354	85.32
358.818	79.72
359.281	79.82
359.745	68.22
360.209	72.22
360.673	67.42
361.136	78.42
361.6	78.22
362.064	77.92
362.527	74.42
362.991	90.62
363.454	75.32
363.918	68.32
364.381	77.12
364.845	77.52
365.308	85.82
365.772	82.92
366.235	85.22
366.698	74.92
367.162	84.32
367.625	81.02
368.088	80.92
368.552	87.32
369.015	84.62
369.478	89.32
369.941	88.72
370.404	86.22
370.867	95.52
371.331	99.02
371.794	102.12
372.257	90.52
372.72	104.22
373.183	99.32
373.646	88.82
374.109	89.02
374.572	109.92
375.035	94.22
375.497	97.72
375.96	103.62
376.423	111.12
376.886	108.72
377.349	99.92
377.811	101.32
378.274	100.22
378.737	100.02
379.199	111.82
379.662	107.22
380.125	101.62
380.587	107.82
381.05	108.92
381.512	113.62
381.975	122.42
382.437	119.22
382.9	121.42
383.362	116.02
383.825	129.52
384.287	123.32
384.75	118.42
385.212	119.12
385.674	130.82
386.136	128.42
386.599	117.32
387.061	121.02
387.523	121.52
387.985	132.42
388.447	128.22
388.91	123.12
389.372	128.12
389.834	130.32
390.296	126.02
390.758	134.32
391.22	128.92
391.682	139.12
392.144	145.22
392.606	137.22
393.068	138.12
393.529	149.82
393.991	139.42
394.453	135.22
394.915	138.42
395.377	135.62
395.838	133.92
396.3	142.02
396.762	141.22
397.224	132.42
397.685	132.42
398.147	139.02
398.608	139.72
399.07	128.92
399.531	139.32
399.993	141.52
400.454	155.32
400.916	144.82
401.377	147.82
401.839	157.52
402.3	154.82
402.762	170.52
403.223	184.22
403.684	169.82
404.145	163.42
404.607	169.22
405.068	164.22
405.529	167.02
405.99	175.32
406.451	177.02
406.913	164.42
407.374	166.52
407.835	167.82
408.296	177.72
408.757	173.52
409.218	186.62
409.679	181.22
410.14	175.82
410.601	177.82
411.062	186.72
411.522	181.72
411.983	181.72
412.444	179.02
412.905	187.62
413.366	188.02
413.826	207.32
414.287	226.02
414.748	280.32
415.208	265.02
415.669	223.32
416.13	216.82
416.59	218.42
417.051	230.42
417.511	229.42
417.972	252.82
418.432	269.72
418.893	313.32
419.353	279.02
419.814	212.02
420.274	190.82
420.734	188.52
421.195	200.92
421.655	193.52
422.115	199.52
422.576	197.62
423.036	206.52
423.496	212.42
423.956	227.22
424.416	240.82
424.876	270.32
425.336	264.42
425.797	271.12
426.257	261.12
426.717	238.42
427.177	235.02
427.637	223.82
428.097	240.92
428.556	249.52
429.016	272.12
429.476	260.82
429.936	270.12
430.396	275.42
430.856	293.32
431.315	311.72
431.775	338.42
432.235	373.52
432.694	348.22
433.154	353.82
433.614	364.42
434.073	325.12
434.533	288.52
434.993	266.82
435.452	269.82
435.912	280.62
436.371	272.12
436.83	265.92
437.29	266.02
437.749	253.52
438.209	243.52
438.668	263.32
439.127	274.92
439.587	264.62
440.046	236.72
440.505	249.32
440.964	259.02
441.424	293.92
441.883	292.52
442.342	252.52
442.801	225.82
443.26	226.42
443.719	228.72
444.178	226.42
444.637	218.92
445.096	230.12
445.555	231.62
446.014	238.02
446.473	233.82
446.932	235.52
447.391	232.82
447.849	234.72
448.308	228.52
448.767	231.02
449.226	239.82
449.685	246.02
450.143	254.32
450.602	245.72
451.061	224.22
451.519	242.72
451.978	231.12
452.436	234.52
452.895	237.82
453.353	250.12
453.812	245.72
454.27	244.22
454.729	237.62
455.187	233.72
455.646	246.32
456.104	248.32
456.562	252.12
457.021	263.92
457.479	262.42
457.937	268.62
458.395	261.02
458.854	245.02
459.312	258.62
459.77	262.42
460.228	256.92
460.686	245.02
461.144	257.72
461.602	245.22
462.06	253.82
462.518	259.42
462.976	264.12
463.434	262.52
463.892	264.72
464.35	263.02
464.808	281.62
465.266	274.72
465.724	270.02
466.181	277.32
466.639	272.22
467.097	295.82
467.555	300.22
468.012	296.02
468.47	303.22
468.928	321.72
469.385	335.92
469.843	341.02
470.3	334.42
470.758	348.52
471.215	364.22
471.673	384.12
472.13	393.42
472.588	397.12
473.045	362.92
473.503	376.12
473.96	386.52
474.417	398.02
474.875	420.62
475.332	456.22
475.789	439.32
476.246	442.72
476.704	465.62
477.161	480.92
477.618	494.62
478.075	522.42
478.532	565.32
478.989	630.12
479.446	705.72
479.903	702.82
480.36	746.82
480.817	787.12
481.274	865.12
481.731	945.52
482.188	1018.62
482.645	1136.02
483.102	1220.92
483.558	1339.52
484.015	1388.92
484.472	1365.72
484.929	1327.42
485.385	1286.42
485.842	1266.02
486.299	1214.52
486.755	1143.92
487.212	986.02
487.668	867.62
488.125	794.72
488.582	738.92
489.038	712.22
489.494	672.22
489.951	651.52
490.407	635.12
490.864	615.82
491.32	609.12
491.776	609.62
492.233	594.92
492.689	581.72
493.145	580.72
493.602	575.22
494.058	583.32
494.514	575.52
494.97	591.52
495.426	603.42
495.882	583.02
496.338	570.32
496.794	581.92
497.251	569.02
497.707	584.12
498.163	589.22
498.618	595.02
499.074	597.42
499.53	616.72
499.986	619.12
500.442	596.82
500.898	582.52
501.354	578.62
501.809	588.92
502.265	586.82
502.721	588.62
503.177	600.42
503.632	598.92
504.088	606.42
504.543	604.82
504.999	632.42
505.455	611.92
505.91	595.02
506.366	604.22
506.821	592.02
507.277	591.52
507.732	592.72
508.187	590.82
508.643	598.72
509.098	599.82
509.553	612.22
510.009	628.52
510.464	621.22
510.919	636.92
511.375	647.62
511.83	655.32
512.285	671.22
512.74	699.62
513.195	706.82
513.65	692.22
514.105	703.62
514.56	703.62
515.015	720.92
515.47	732.62
515.925	712.02
516.38	715.82
516.835	723.32
517.29	722.62
517.745	712.32
518.2	697.12
518.655	693.62
519.109	688.12
519.564	673.92
520.019	661.52
520.474	660.52
520.928	663.42
521.383	651.52
521.838	650.02
522.292	647.52
522.747	651.52
523.201	647.82
523.656	637.42
524.11	634.92
524.565	632.22
525.019	624.82
525.474	628.92
525.928	624.72
526.382	631.42
526.837	627.42
527.291	631.82
527.745	633.72
528.2	623.02
528.654	625.92
529.108	615.82
529.562	622.12
530.016	622.32
530.47	628.02
530.925	618.52
531.379	617.62
531.833	627.72
532.287	618.82
532.741	618.42
533.195	616.12
533.649	622.22
534.103	642.12
534.556	615.72
535.01	618.92
535.464	621.32
535.918	625.92
536.372	636.02
536.826	634.12
537.279	617.62
537.733	623.52
538.187	628.32
538.64	629.72
539.094	642.62
539.548	642.52
540.001	632.12
540.455	639.12
540.908	646.32
541.362	637.92
541.815	655.72
542.269	662.72
542.722	667.92
543.175	667.82
543.629	664.32
544.082	686.82
544.536	689.02
544.989	687.72
545.442	695.22
545.895	696.62
546.349	686.92
546.802	691.82
547.255	700.82
547.708	697.92
548.161	698.12
548.614	713.22
549.067	710.62
549.52	710.02
549.973	707.72
550.426	694.92
550.879	692.72
551.332	689.72
551.785	697.62
552.238	692.22
552.691	700.72
553.144	718.32
553.596	716.42
554.049	731.52
554.502	752.92
554.955	770.32
555.407	772.52
555.86	763.72
556.313	750.72
556.765	741.92
557.218	731.02
557.67	733.12
558.123	739.62
558.576	733.52
559.028	741.52
559.48	748.72
559.933	739.52
560.385	714.22
560.838	686.52
561.29	669.92
561.742	662.42
562.195	655.82
562.647	647.22
563.099	658.92
563.551	650.42
564.004	663.92
564.456	642.12
564.908	635.92
565.36	623.12
565.812	613.62
566.264	595.32
566.716	603.42
567.168	594.32
567.62	584.02
568.072	580.12
568.524	578.62
568.976	578.02
569.428	568.62
569.88	561.02
570.332	564.42
570.784	558.22
571.235	558.42
571.687	578.12
572.139	580.32
572.59	582.42
573.042	590.12
573.494	591.82
573.945	587.62
574.397	553.32
574.849	562.62
575.3	559.62
575.752	559.22
576.203	555.12
576.655	551.92
577.106	554.42
577.557	537.02
578.009	548.72
578.46	543.82
578.912	547.12
579.363	547.22
579.814	542.32
580.265	538.62
580.717	537.22
581.168	534.62
581.619	554.02
582.07	549.62
582.521	543.22
582.972	541.52
583.423	537.52
583.875	540.82
584.326	536.62
584.777	553.82
585.227	583.32
585.678	590.02
586.129	608.42
586.58	619.12
587.031	642.92
587.482	674.82
587.933	699.72
588.384	686.12
588.834	634.72
589.285	622.12
589.736	617.22
590.186	612.92
590.637	615.22
591.088	589.92
591.538	590.82
591.989	578.92
592.439	574.22
592.89	557.62
593.34	563.22
593.791	549.82
594.241	550.52
594.692	549.92
595.142	549.22
595.593	547.12
596.043	544.42
596.493	552.42
596.943	555.92
597.394	561.62
597.844	560.82
598.294	570.52
598.744	593.12
599.195	607.02
599.645	635.32
600.095	667.22
600.545	712.62
600.995	752.72
601.445	794.72
601.895	840.52
602.345	879.92
602.795	859.52
603.245	835.12
603.695	802.22
604.145	751.22
604.594	721.02
605.044	668.52
605.494	617.72
605.944	590.32
606.393	589.12
606.843	554.42
607.293	558.82
607.743	563.42
608.192	561.52
608.642	563.52
609.091	575.32
609.541	578.42
609.99	578.52
610.44	568.52
610.889	546.92
611.339	533.42
611.788	521.12
612.238	522.72
612.687	537.22
613.136	533.52
613.586	544.72
614.035	534.52
614.484	537.72
614.933	536.42
615.383	537.92
615.832	531.12
616.281	536.12
616.73	525.42
617.179	503.92
617.628	496.22
618.077	487.62
618.526	474.02
618.975	467.52
619.424	469.52
619.873	466.52
620.322	474.22
620.771	458.32
621.22	455.42
621.669	448.72
622.118	440.92
622.567	429.22
623.015	418.82
623.464	430.82
623.913	432.12
624.361	419.82
624.81	416.02
625.259	416.22
625.707	411.22
626.156	420.82
626.604	420.72
627.053	426.12
627.501	429.92
627.95	426.02
628.398	443.42
628.847	425.12
629.295	430.52
629.744	430.62
630.192	411.92
630.64	415.72
631.089	405.72
631.537	405.92
631.985	390.92
632.433	403.42
632.881	394.62
633.33	396.82
633.778	382.72
634.226	384.92
634.674	397.52
635.122	397.22
635.57	414.12
636.018	413.22
636.466	412.02
636.914	405.72
637.362	424.92
637.81	427.72
638.258	424.72
638.705	421.92
639.153	454.02
639.601	458.22
640.049	467.52
640.497	497.12
640.944	518.72
641.392	479.62
641.84	452.42
642.287	433.32
642.735	417.52
643.182	414.92
643.63	404.02
644.078	408.62
644.525	424.52
644.973	417.72
645.42	439.12
645.867	451.72
646.315	453.82
646.762	474.52
647.21	497.32
647.657	507.22
648.104	526.92
648.551	549.52
648.999	576.82
649.446	624.82
649.893	687.62
650.34	781.22
650.787	919.02
651.234	1118.02
651.682	1438.72
652.129	1945.22
652.576	2704.42
653.023	3994.32
653.47	5545.32
653.917	6983.62
654.363	8171.12
654.81	9279.62
655.257	8817.92
655.704	5836.42
656.151	3461.12
656.598	2251.42
657.044	1624.42
657.491	1258.12
657.938	1006.52
658.385	847.32
658.831	738.42
659.278	665.12
659.724	592.52
660.171	545.72
660.618	504.62
661.064	479.32
661.511	459.92
661.957	445.22
662.404	428.02
662.85	442.52
663.296	423.12
663.743	404.12
664.189	387.62
664.635	380.62
665.082	373.62
665.528	368.52
665.974	365.32
666.42	365.12
666.867	353.12
667.313	333.12
667.759	334.42
668.205	329.82
668.651	318.72
669.097	331.12
669.543	323.62
669.989	320.22
670.435	319.12
670.881	323.42
671.327	318.92
671.773	338.62
672.219	355.52
672.665	393.22
673.11	422.02
673.556	460.12
674.002	491.92
674.448	483.52
674.893	404.82
675.339	338.42
675.785	319.32
676.23	308.82
676.676	285.02
677.122	271.82
677.567	270.12
678.013	267.52
678.458	255.52
678.904	263.12
679.349	243.92
679.794	252.32
680.24	253.42
680.685	250.92
681.131	251.92
681.576	242.82
682.021	252.42
682.466	253.12
682.912	245.92
683.357	254.12
683.802	273.42
684.247	291.42
684.692	321.42
685.137	346.92
685.583	391.02
686.028	411.12
686.473	368.62
686.918	322.02
687.363	294.22
687.807	276.82
688.252	263.42
688.697	257.52
689.142	244.42
689.587	237.22
690.032	237.02
690.477	242.42
690.921	246.32
691.366	276.82
691.811	286.62
692.255	308.82
692.7	329.52
693.145	357.82
693.589	475.02
694.034	772.72
694.478	1097.12
694.923	1289.92
695.367	1713.12
695.812	906.72
696.256	357.62
696.701	268.12
697.145	240.42
697.59	229.12
698.034	213.42
698.478	235.72
698.922	233.92
699.367	233.02
699.811	238.92
700.255	250.42
700.699	269.42
701.143	290.62
701.588	327.32
702.032	367.42
702.476	363.72
702.92	360.42
703.364	350.62
703.808	442.42
704.252	712.72
704.696	1020.22
705.14	1235.62
705.584	1612.92
706.027	785.82
706.471	376.22
706.915	293.32
707.359	252.42
707.803	229.12
708.246	219.22
708.69	226.22
709.134	227.12
709.577	215.92
710.021	225.92
710.465	220.42
710.908	210.42
711.352	210.52
711.795	220.92
712.239	245.22
712.682	266.22
713.126	291.62
713.569	326.62
714.012	260.92
714.456	220.82
714.899	206.12
715.342	200.22
715.786	186.02
716.229	187.42
716.672	184.72
717.115	176.42
717.558	174.92
718.002	171.42
718.445	184.62
718.888	196.32
719.331	205.02
719.774	215.52
720.217	222.92
720.66	200.62
721.103	191.32
721.546	181.72
721.989	172.02
722.432	162.32
722.874	168.92
723.317	159.42
723.76	162.72
724.203	178.92
724.645	215.02
725.088	306.12
725.531	399.02
725.974	468.22
726.416	402.92
726.859	219.92
727.301	174.72
727.744	167.42
728.187	161.22
728.629	166.02
729.071	170.62
729.514	183.12
729.956	190.82
730.399	193.82
730.841	204.92
731.283	198.32
731.726	193.52
732.168	186.32
732.61	186.22
733.053	199.52
733.495	220.12
733.937	247.82
734.379	281.62
734.821	300.82
735.263	377.52
735.705	570.22
736.148	1077.42
736.59	1839.32
737.032	2291.32
737.474	1889.32
737.916	595.82
738.357	312.82
738.799	235.92
739.241	217.52
739.683	197.12
740.125	213.72
740.567	208.52
741.008	231.82
741.45	227.22
741.892	230.02
742.334	252.42
742.775	261.22
743.217	260.02
743.658	195.02
744.1	183.22
744.542	187.32
744.983	233.32
745.425	258.62
745.866	268.82
746.307	198.92
746.749	195.82
747.19	222.52
747.632	321.12
748.073	589.02
748.514	1267.82
748.956	2057.42
749.397	2596.62
749.838	2158.42
750.279	2237.52
750.72	1123.62
751.162	400.22
751.603	232.02
752.044	182.92
752.485	154.02
752.926	148.52
753.367	142.82
753.808	136.42
754.249	131.82
754.69	130.42
755.131	130.22
755.572	129.52
756.013	123.92
756.453	124.52
756.894	134.12
757.335	130.22
757.776	138.42
758.216	138.32
758.657	139.22
759.098	136.82
759.538	159.32
759.979	183.12
760.42	256.12
760.86	480.42
761.301	1253.42
761.741	3158.92
762.182	5002.12
762.622	3555.32
763.063	995.12
763.503	394.02
763.943	237.12
764.384	200.52
764.824	182.32
765.264	177.02
765.705	156.22
766.145	138.42
766.585	122.92
767.025	119.52
767.465	118.62
767.906	136.52
768.346	144.52
768.786	148.02
769.226	143.62
769.666	209.52
770.106	419.52
770.546	1063.82
770.986	1954.92
771.426	1796.92
771.866	583.22
772.306	236.32
772.745	142.22
773.185	124.92
773.625	115.32
774.065	105.32
774.505	112.02
774.944	138.92
775.384	268.32
775.824	469.62
776.263	469.22
776.703	217.42
777.142	116.32
777.582	89.22
778.021	89.32
778.461	88.12
778.9	87.42
779.34	86.22
779.779	78.82
780.219	74.12
780.658	70.32
781.097	74.22
781.537	79.02
781.976	77.52
782.415	71.62
782.855	67.12
783.294	75.92
783.733	73.62
784.172	79.22
784.611	73.02
785.05	77.32
785.489	79.82
785.928	80.82
786.367	88.42
786.806	81.92
787.245	93.32
787.684	91.72
788.123	100.52
788.562	96.92
789.001	89.52
789.44	92.92
789.879	81.92
790.317	81.62
790.756	82.72
791.195	90.82
791.634	99.92
792.072	144.72
792.511	238.52
792.95	679.82
793.388	1547.22
793.827	1478.32
794.265	493.82
794.704	200.02
795.142	131.62
795.581	114.62
796.019	97.92
796.458	92.22
796.896	85.42
797.334	90.32
797.773	106.22
798.211	150.82
798.649	290.12
799.087	718.62
799.526	1146.42
799.964	1464.52
800.402	1548.02
800.84	567.62
801.278	215.82
801.716	131.62
802.154	109.72
802.592	105.72
803.03	102.82
803.468	96.72
803.906	94.32
804.344	107.52
804.782	96.42
805.22	99.92
805.658	93.12
806.096	104.02
806.533	108.02
806.971	120.72
807.409	157.42
807.847	223.52
808.284	450.82
808.722	1326.22
809.16	2476.52
809.597	2274.32
810.035	4036.62
810.472	4654.02
810.91	1638.22
811.347	603.92
811.785	299.22
812.222	187.12
812.66	146.82
813.097	123.42
813.535	106.32
813.972	95.12
814.409	83.12
814.846	78.92
815.284	75.72
815.721	71.02
816.158	75.22
816.595	82.12
817.032	116.32
817.47	149.82
817.907	104.02
818.344	69.92
818.781	73.52
819.218	65.82
819.655	89.72
820.092	147.42
820.529	173.32
820.966	132.52
821.403	101.62
821.839	75.72
822.276	71.12
822.713	96.42
823.15	99.92
823.587	84.22
824.023	102.72
824.46	199.52
824.897	632.02
825.333	1017.42
825.77	439.52
826.206	165.92
826.643	98.42
827.08	71.22
827.516	60.32
827.953	55.42
828.389	62.32
828.825	47.92
829.262	53.72
829.698	41.92
830.135	43.82
830.571	42.52
831.007	46.32
831.443	38.02
831.88	43.22
832.316	45.62
832.752	39.62
833.188	39.82
833.624	45.42
834.06	47.62
834.497	50.42
834.933	47.52
835.369	48.42
835.805	43.42
836.241	53.22
836.677	53.82
837.112	61.32
837.548	69.82
837.984	93.22
838.42	141.12
838.856	349.32
839.292	1097.52
839.727	1787.42
840.163	821.72
840.599	658.52
841.034	1511.72
841.47	1678.22
841.906	603.12
842.341	239.22
842.777	141.92
843.212	152.72
843.648	151.92
844.083	93.02
844.519	57.42
844.954	48.02
845.39	32.22
845.825	39.92
846.261	41.92
846.696	40.12
847.131	36.42
847.566	34.82
848.002	37.52
848.437	37.22
848.872	45.32
849.307	42.12
849.742	59.82
850.177	117.62
850.613	393.52
851.048	668.22
851.483	280.62
851.918	101.22
852.353	57.02
852.788	41.72
853.223	35.52
853.657	43.52
854.092	34.42
854.527	28.02
854.962	29.82
855.397	33.82
855.832	42.92
856.266	33.42
856.701	35.52
857.136	27.12
857.57	30.62
858.005	39.42
858.44	39.42
858.874	28.62
859.309	36.62
859.743	28.12
860.178	36.02
860.612	24.32
861.047	39.62
861.481	51.72
861.915	51.42
862.35	40.62
862.784	27.72
863.218	27.02
863.653	22.52
864.087	29.52
864.521	43.72
864.955	45.02
865.39	109.22
865.824	124.92
866.258	87.02
866.692	132.92
867.126	152.62
867.56	89.52
867.994	44.32
868.428	27.32
868.862	33.32
869.296	40.32
869.73	40.12
870.164	43.62
870.598	43.52
871.031	27.82
871.465	22.22
871.899	28.12
872.333	11.62
872.766	17.92
873.2	18.62
873.634	26.32
874.067	19.62
874.501	15.82
874.935	24.22
875.368	26.42
875.802	20.72
876.235	17.82
876.669	14.12
877.102	9.82
877.535	24.82
877.969	20.62
878.402	15.82
878.836	13.32
879.269	18.02
879.702	17.12
880.135	22.62
880.569	12.92
881.002	22.52
881.435	15.12
881.868	9.42
882.301	15.92
882.734	11.62
883.167	21.22
883.601	18.72
884.034	8.82
884.467	3.72
884.899	16.62
885.332	9.52
885.765	9.42
886.198	11.12
886.631	13.92
887.064	15.22
887.497	14.52
887.929	19.42
888.362	9.42
888.795	11.62
889.228	12.22
889.66	17.32
890.093	16.62
890.526	10.92
890.958	12.92
891.391	11.82
891.823	17.42
892.256	14.32
892.688	13.52
893.121	9.32
893.553	11.32
893.985	17.82
894.418	16.12
894.85	8.22
895.282	14.12
895.715	12.32
896.147	12.62
896.579	16.12
897.011	12.52
897.444	8.12
897.876	7.12
898.308	13.92
898.74	12.52
899.172	11.32
899.604	22.22
900.036	11.62
900.468	14.32
900.9	7.52
901.332	12.82
901.764	12.22
902.196	12.92
902.628	11.42
903.06	14.12
903.491	21.52
903.923	16.02
904.355	10.12
904.787	14.72
905.218	16.42
905.65	13.72
906.082	7.42
906.513	5.22
906.945	16.32
907.376	3.12
907.808	13.92
908.239	21.22
908.671	10.52
909.102	19.72
909.534	19.72
909.965	33.22
910.397	65.62
910.828	242.32
911.259	375.62
911.691	159.22
912.122	77.02
912.553	35.62
912.984	25.22
913.415	14.92
913.847	22.32
914.278	9.92
914.709	13.72
915.14	12.62
915.571	10.82
916.002	9.62
916.433	13.12
916.864	12.32
917.295	8.42
917.726	15.92
918.157	11.42
918.587	21.72
919.018	17.02
919.449	13.72
919.88	21.82
920.311	20.72
920.741	34.22
921.172	120.82
921.603	116.02
922.033	51.72
922.464	42.62
922.895	19.02
923.325	21.12
923.756	6.92
924.186	7.12
924.617	15.42
925.047	10.22
925.478	18.92
925.908	17.62
926.338	10.32
926.769	8.02
927.199	11.52
927.629	5.42
928.06	17.62
928.49	11.62
928.92	10.02
929.35	9.42
929.78	5.72
930.21	5.72
930.641	5.22
931.071	10.12
931.501	1.32
931.931	5.22
932.361	6.42
932.791	0.62
933.221	4.22
933.651	-2.28
934.08	13.22
934.51	20.72
934.94	7.42
935.37	5.82
935.8	9.32
936.229	5.42
936.659	2.82
937.089	3.92
937.519	12.72
937.948	21.12
938.378	8.22
938.807	5.92
939.237	1.22
939.666	4.62
940.096	-7.68
940.525	-2.78
940.955	3.92
941.384	2.72
941.814	-2.38
942.243	6.22
942.672	2.52
943.102	-2.08
943.531	1.12
943.96	3.22
944.39	1.42
944.819	-5.98
945.248	0.22
945.677	-0.18
946.106	1.82
946.535	6.02
946.964	-1.58
947.393	0.22
947.822	0.72
948.251	-9.68
948.68	2.92
949.109	-4.58
949.538	11.02
949.967	-3.78
950.396	1.12
950.825	1.62
951.254	-3.38
951.682	-5.28
952.111	0.92
952.54	5.62
952.969	-2.78
953.397	-2.88
953.826	-3.88
954.254	-4.48
954.683	0.32
955.112	-6.58
955.54	1.12
955.969	-2.48
956.397	5.52
956.826	-0.88
957.254	-0.48
957.682	3.52
958.111	7.52
958.539	-0.58
958.967	4.22
959.396	-1.08
959.824	0.92
960.252	2.02
960.68	-11.88
961.109	1.72
961.537	-5.18
961.965	-2.78
962.393	-1.08
962.821	-5.28
963.249	1.72
963.677	2.02
964.105	1.82
964.533	35.52
964.961	33.12
965.389	16.92
965.817	5.62
966.245	2.62
966.672	-0.18
967.1	-8.18
967.528	-0.18
967.956	-4.68
968.383	-2.18
968.811	1.82
969.239	3.12
969.666	-4.08
970.094	-2.18
970.522	1.72
970.949	-0.38
971.377	-7.68
971.804	-2.08
972.232	-5.88
972.659	-0.28
973.087	-1.18
973.514	3.02
973.941	-1.88
974.369	8.22
974.796	1.52
975.223	2.52
975.651	-2.28
976.078	1.62
976.505	-0.68
976.932	3.92
977.359	15.12
977.786	13.72
978.214	1.62
978.641	-9.08
979.068	-2.58
979.495	-3.08
979.922	2.32
980.349	5.72
980.776	6.02
981.202	-4.08
981.629	4.92
982.056	4.32
982.483	-2.98
982.91	3.82
983.337	-3.78
983.763	5.92
984.19	-7.88
984.617	-1.68
985.043	-1.08
985.47	1.02
985.897	-6.18
986.323	-7.18
986.75	4.82
987.176	-4.48
987.603	3.92
988.029	-1.28
988.456	-3.98
988.882	4.12
989.308	-4.88
989.735	-0.78
990.161	-2.28
990.587	1.92
991.014	-0.28
991.44	5.12
991.866	-5.98
992.292	-8.58
992.719	4.32
993.145	6.92
993.571	-9.68
993.997	-9.18
994.423	-6.28
994.849	-7.58
995.275	-2.08
995.701	-1.08
996.127	-4.98
996.553	1.82
996.979	1.32
997.405	0.12
997.83	-4.98
998.256	-1.48
998.682	-2.78
999.108	-9.58
999.534	-2.68
999.959	-4.68
1000.385	-2.48
1000.811	0.72
1001.236	-5.78
1001.662	-8.88
1002.087	-10.78
1002.513	2.62
1002.938	0.62
1003.364	-1.88
1003.789	-2.48
1004.215	4.12
1004.64	-4.28
1005.066	5.32
1005.491	-3.68
1005.916	-0.98
1006.342	-3.48
1006.767	-12.28
1007.192	6.42
1007.617	-4.28
1008.042	1.72
1008.468	-5.98
1008.893	-2.78
1009.318	-5.98
1009.743	1.02
1010.168	1.22
1010.593	-2.68
1011.018	-7.18
1011.443	-1.18
1011.868	-0.28
1012.293	-1.48
1012.718	-7.58
1013.143	-2.08
1013.567	2.92
1013.992	-4.88
1014.417	-8.38
1014.842	6.92
1015.267	-5.58
1015.691	-6.18
1016.116	2.22
1016.541	-1.98
1016.965	-2.78
1017.39	4.62
1017.814	0.12
1018.239	3.52
1018.663	-6.58
1019.088	-8.68
1019.512	-5.38
1019.937	2.42
1020.361	-2.78
1020.785	-7.28
1021.21	1.92
1021.634	-0.58
1022.058	2.32
1022.483	6.42
1022.907	-3.78
1023.331	-4.28
1023.755	-1.38
1024.179	-4.88
1024.604	-0.98
1025.028	-5.58
1025.452	-5.08
1025.876	7.72
1026.3	0.22
1026.724	-4.48
1027.148	-0.48
1027.572	-7.38
1027.996	-3.78
1028.42	0.12
1028.843	0.82
1029.267	-5.18
1029.691	-1.68
1030.115	-7.68
1030.539	-6.08
1030.962	-12.98
1031.386	-10.58
1031.81	-2.08
1032.233	-3.58
1032.657	-3.88
1033.08	-1.68
1033.504	-0.58
1033.927	-4.58
1034.351	5.92
1034.774	-3.08
1035.198	-1.58
1035.621	-9.78
1036.045	-11.08
1036.468	5.22
1036.891	-9.08
1037.315	-5.98
1037.738	-6.98
1038.161	2.22
1038.584	-4.88
1039.008	-6.38
1039.431	-3.08
1039.854	0.72
1040.277	-0.08
1040.7	-7.38
1041.123	1.12
1041.546	-5.78
1041.969	-9.18
1042.392	-12.08
1042.815	2.62
1043.238	-3.28
1043.661	3.62
1044.084	-2.78
1044.507	-1.08
1044.93	-2.98
1045.352	-4.38
1045.775	-1.78
1046.198	-4.18
1046.621	1.22
1047.043	-1.88
1047.466	4.22
1047.889	-3.88
1048.311	-2.68
1048.734	1.72
1049.156	-5.78
1049.579	-0.98
1050.001	-0.78
1050.424	-1.48
1050.846	0.42
1051.269	3.62
1051.691	-4.38
1052.113	-4.68
1052.536	-0.68
1052.958	-8.28
1053.38	-2.68
1053.802	-12.18
1054.225	4.82
1054.647	-10.78
1055.069	-0.38
1055.491	-0.18
1055.913	-4.58
1056.335	3.12
1056.757	-1.28
1057.179	-6.48
1057.601	-3.48
1058.023	-4.58
1058.445	0.92
1058.867	-2.68
1059.289	-3.98
1059.711	3.42
1060.133	0.22
1060.555	-4.48
1060.976	-1.28
1061.398	-6.68
1061.82	-6.08
1062.241	-6.08
1062.663	-4.78
1063.085	-7.78
1063.506	4.82
1063.928	0.92
1064.35	-2.58
1064.771	-9.18
1065.193	-5.38
1065.614	-3.58
1066.035	0.42
1066.457	-1.28
1066.878	2.22
1067.3	-3.28
1067.721	-4.98
1068.142	-4.88
1068.564	-1.58
1068.985	-6.58
1069.406	-3.68
1069.827	-7.28
1070.248	5.62
1070.67	-9.58
1071.091	-3.58
1071.512	-0.58
1071.933	0.42
1072.354	-3.78
1072.775	-1.88
1073.196	-9.78
1073.617	-1.08
1074.038	-5.78
1074.459	1.22
1074.88	-6.48
1075.3	-2.58
1075.721	-1.38
1076.142	0.22
1076.563	-4.48
1076.983	-6.68
1077.404	-10.08
1077.825	-3.78
1078.246	-1.48
1078.666	-7.48
1079.087	-5.18
1079.507	-3.28
1079.928	-0.38
1080.348	-1.28
1080.769	-1.48
1081.189	1.62
1081.61	2.22
1082.03	-10.28
1082.451	-4.58
1082.871	-7.98
1083.291	-5.78
1083.711	-8.18
1084.132	-11.28
1084.552	-4.08
1084.972	-1.68
1085.392	-4.68
1085.813	-10.28
1086.233	-12.48
1086.653	-5.18
1087.073	-0.08
1087.493	-4.08
1087.913	-6.38
1088.333	-6.58
1088.753	-6.88
1089.173	5.62
1089.593	-5.58
1090.013	2.32
1090.433	1.62
1090.852	2.22
1091.272	2.42
1091.692	-0.88
1092.112	-2.08
1092.531	-7.68
1092.951	-9.78
1093.371	0.22
1093.79	2.52
1094.21	-5.38
1094.63	2.02
1095.049	-6.38
1095.469	-3.18
1095.888	-3.48
1096.308	0.12
1096.727	6.62
1097.146	-2.68
1097.566	-0.28
1097.985	-9.68
1098.405	-3.18
1098.824	-6.78
1099.243	-3.08
1099.662	-6.28
1100.082	-9.28
1100.501	2.22
1100.92	-2.28
1101.339	-0.78
1101.758	-6.18
