Data from 20171114-ORNL-Ar_H_NY_Subt18_08-04-11-343.txt Node
Date: Tue Nov 14 08:04:11 EST 2017
User: Ender
Spectrometer: HR+D1039
Trigger mode: 0
Integration Time (sec): 2.730000E-2
Scans to average: 10
Electric dark correction enabled: true
Nonlinearity correction enabled: false
Boxcar width: 0
XAxis mode: Wavelengths
Number of Pixels in Spectrum: 2048
>>>>>Begin Spectral Data<<<<<
187.836	-3.81
188.309	-3.81
188.782	-3.81
189.255	0.99
189.728	-3.21
190.201	5.49
190.674	-0.31
191.147	0.19
191.619	-9.21
192.092	1.09
192.565	4.99
193.038	2.89
193.511	5.39
193.984	-0.51
194.456	-3.81
194.929	3.99
195.402	-3.31
195.874	-0.91
196.347	1.49
196.82	-6.91
197.292	8.49
197.765	1.99
198.237	-2.41
198.71	-2.41
199.182	-2.31
199.655	5.39
200.127	1.49
200.6	1.29
201.072	0.29
201.544	-3.41
202.017	-0.31
202.489	2.89
202.961	2.49
203.433	1.89
203.906	-3.61
204.378	-3.31
204.85	-0.51
205.322	-8.21
205.794	1.09
206.266	-2.71
206.739	-8.91
207.211	2.29
207.683	-9.21
208.155	-8.01
208.627	-2.41
209.099	-0.81
209.57	-8.81
210.042	-9.71
210.514	-1.41
210.986	-4.01
211.458	-8.71
211.93	-1.11
212.402	-1.31
212.873	-0.51
213.345	-3.81
213.817	-16.21
214.288	-2.21
214.76	-6.81
215.232	0.89
215.703	-0.91
216.175	-9.01
216.646	-2.21
217.118	-6.21
217.589	-1.61
218.061	1.39
218.532	-1.61
219.004	0.09
219.475	-7.41
219.946	2.69
220.418	-4.21
220.889	5.89
221.36	3.59
221.832	-3.21
222.303	-0.71
222.774	7.19
223.245	-4.71
223.717	-1.01
224.188	0.39
224.659	-9.71
225.13	-3.61
225.601	0.79
226.072	0.89
226.543	-4.61
227.014	-5.61
227.485	-2.21
227.956	-2.01
228.427	-5.01
228.898	-1.31
229.369	7.79
229.839	-2.31
230.31	-7.51
230.781	4.49
231.252	-5.51
231.722	-8.31
232.193	-0.71
232.664	-2.41
233.135	4.39
233.605	-1.01
234.076	2.99
234.546	6.99
235.017	13.49
235.487	-2.01
235.958	0.29
236.428	-0.21
236.899	4.99
237.369	4.49
237.84	3.49
238.31	6.19
238.78	-0.31
239.251	0.49
239.721	-0.51
240.191	2.49
240.662	-5.21
241.132	3.29
241.602	-1.11
242.072	0.49
242.542	8.79
243.013	-5.91
243.483	4.79
243.953	9.59
244.423	3.59
244.893	-1.01
245.363	1.39
245.833	4.79
246.303	5.09
246.773	6.59
247.243	3.39
247.712	5.29
248.182	9.69
248.652	6.29
249.122	-10.61
249.592	12.79
250.061	21.29
250.531	31.39
251.001	10.69
251.471	19.79
251.94	18.79
252.41	4.89
252.879	0.19
253.349	7.99
253.818	10.49
254.288	11.69
254.757	6.39
255.227	7.59
255.696	5.19
256.166	2.99
256.635	3.79
257.105	12.99
257.574	4.39
258.043	8.09
258.513	8.79
258.982	17.99
259.451	7.69
259.92	9.09
260.389	9.39
260.859	18.09
261.328	11.69
261.797	11.29
262.266	13.79
262.735	7.19
263.204	6.39
263.673	5.39
264.142	7.39
264.611	-2.01
265.08	1.99
265.549	1.59
266.018	6.19
266.487	-2.91
266.955	-12.41
267.424	-2.31
267.893	7.59
268.362	-1.81
268.83	4.59
269.299	11.19
269.768	8.29
270.236	5.79
270.705	4.69
271.174	-1.81
271.642	9.39
272.111	7.09
272.579	10.49
273.048	18.99
273.516	14.19
273.985	15.99
274.453	11.89
274.922	21.69
275.39	10.59
275.858	4.09
276.327	11.09
276.795	17.89
277.263	7.79
277.731	25.49
278.2	45.59
278.668	41.69
279.136	44.19
279.604	9.69
280.072	16.39
280.54	5.79
281.008	12.69
281.477	12.79
281.945	9.79
282.413	11.99
282.881	12.89
283.348	6.19
283.816	13.39
284.284	13.89
284.752	21.19
285.22	9.19
285.688	17.29
286.156	17.29
286.623	36.19
287.091	43.19
287.559	25.59
288.026	14.49
288.494	13.39
288.962	-0.71
289.429	2.59
289.897	17.29
290.364	17.39
290.832	11.39
291.3	16.59
291.767	18.79
292.234	16.79
292.702	14.09
293.169	14.19
293.637	17.59
294.104	21.29
294.571	12.49
295.039	5.49
295.506	11.89
295.973	15.69
296.44	11.29
296.908	15.89
297.375	12.39
297.842	14.89
298.309	12.19
298.776	7.19
299.243	18.69
299.71	8.39
300.177	18.19
300.644	14.39
301.111	23.19
301.578	18.29
302.045	15.19
302.512	18.39
302.979	21.19
303.446	19.39
303.913	14.29
304.379	17.79
304.846	23.19
305.313	23.79
305.78	17.29
306.246	20.39
306.713	23.49
307.18	25.89
307.646	24.29
308.113	21.99
308.579	20.49
309.046	21.99
309.512	18.39
309.979	11.29
310.445	21.69
310.912	21.29
311.378	22.69
311.845	26.69
312.311	26.49
312.777	25.89
313.244	32.29
313.71	32.39
314.176	22.49
314.642	23.29
315.109	21.29
315.575	28.99
316.041	28.99
316.507	28.59
316.973	29.69
317.439	24.19
317.905	30.89
318.371	24.09
318.837	34.39
319.303	27.59
319.769	23.59
320.235	27.49
320.701	27.49
321.167	37.19
321.633	24.59
322.099	37.59
322.564	37.99
323.03	33.89
323.496	32.59
323.962	32.39
324.427	30.99
324.893	34.19
325.359	32.39
325.824	30.59
326.29	32.99
326.755	27.69
327.221	32.49
327.686	26.49
328.152	37.39
328.617	36.09
329.083	36.39
329.548	42.49
330.014	41.69
330.479	30.59
330.944	32.09
331.41	31.99
331.875	36.99
332.34	36.59
332.805	36.49
333.271	41.49
333.736	34.59
334.201	42.59
334.666	44.39
335.131	47.19
335.596	44.59
336.061	38.89
336.526	30.09
336.991	38.89
337.456	47.59
337.921	38.19
338.386	42.39
338.851	41.19
339.316	40.19
339.781	35.89
340.246	41.19
340.711	41.79
341.175	41.69
341.64	35.39
342.105	45.69
342.569	43.29
343.034	48.29
343.499	44.69
343.963	40.69
344.428	53.89
344.893	52.59
345.357	48.59
345.822	52.69
346.286	51.79
346.751	60.29
347.215	58.99
347.679	59.29
348.144	74.99
348.608	63.69
349.073	58.29
349.537	68.99
350.001	69.99
350.465	75.09
350.93	68.29
351.394	66.29
351.858	63.19
352.322	69.99
352.786	68.89
353.25	80.49
353.715	91.69
354.179	80.69
354.643	97.79
355.107	102.49
355.571	85.69
356.035	88.89
356.498	96.49
356.962	97.49
357.426	108.29
357.89	96.89
358.354	68.79
358.818	68.69
359.281	61.79
359.745	62.59
360.209	64.39
360.673	63.69
361.136	72.19
361.6	74.59
362.064	73.89
362.527	79.19
362.991	79.89
363.454	69.99
363.918	64.39
364.381	66.19
364.845	64.29
365.308	71.19
365.772	73.89
366.235	68.69
366.698	68.89
367.162	76.79
367.625	69.99
368.088	72.89
368.552	85.09
369.015	77.79
369.478	84.49
369.941	93.09
370.404	80.29
370.867	87.89
371.331	91.99
371.794	99.89
372.257	93.89
372.72	103.09
373.183	96.79
373.646	88.29
374.109	95.09
374.572	95.99
375.035	97.09
375.497	86.19
375.96	91.19
376.423	90.69
376.886	96.29
377.349	92.59
377.811	88.09
378.274	88.29
378.737	86.09
379.199	94.39
379.662	99.99
380.125	107.09
380.587	100.49
381.05	100.49
381.512	106.79
381.975	116.79
382.437	110.59
382.9	109.39
383.362	115.19
383.825	120.09
384.287	126.49
384.75	121.29
385.212	119.49
385.674	113.99
386.136	112.09
386.599	107.99
387.061	104.89
387.523	112.49
387.985	115.59
388.447	126.69
388.91	122.29
389.372	136.79
389.834	130.59
390.296	126.99
390.758	138.59
391.22	140.49
391.682	170.79
392.144	239.29
392.606	195.59
393.068	143.19
393.529	145.19
393.991	127.79
394.453	127.59
394.915	133.89
395.377	160.69
395.838	183.79
396.3	132.19
396.762	125.89
397.224	117.39
397.685	119.19
398.147	114.99
398.608	114.19
399.07	119.49
399.531	120.09
399.993	128.39
400.454	138.29
400.916	131.99
401.377	127.19
401.839	132.69
402.3	128.89
402.762	143.79
403.223	155.09
403.684	149.39
404.145	142.49
404.607	140.19
405.068	141.79
405.529	143.39
405.99	153.19
406.451	147.59
406.913	143.89
407.374	142.89
407.835	140.49
408.296	147.49
408.757	145.09
409.218	161.29
409.679	154.49
410.14	157.49
410.601	157.19
411.062	160.99
411.522	169.59
411.983	165.79
412.444	152.69
412.905	162.39
413.366	162.39
413.826	169.79
414.287	183.09
414.748	229.69
415.208	221.69
415.669	185.49
416.13	180.79
416.59	173.59
417.051	184.89
417.511	194.79
417.972	210.89
418.432	216.89
418.893	253.49
419.353	223.89
419.814	174.79
420.274	161.09
420.734	152.99
421.195	176.79
421.655	171.89
422.115	170.59
422.576	172.19
423.036	171.29
423.496	188.09
423.956	197.49
424.416	204.29
424.876	233.89
425.336	219.99
425.797	232.79
426.257	224.89
426.717	209.19
427.177	200.79
427.637	203.09
428.097	205.99
428.556	213.29
429.016	232.49
429.476	231.19
429.936	237.99
430.396	239.89
430.856	252.79
431.315	274.09
431.775	300.89
432.235	335.19
432.694	301.49
433.154	312.39
433.614	322.99
434.073	288.79
434.533	247.89
434.993	230.89
435.452	238.89
435.912	252.89
436.371	254.79
436.83	244.39
437.29	221.29
437.749	214.09
438.209	210.89
438.668	229.99
439.127	240.79
439.587	224.29
440.046	211.39
440.505	227.59
440.964	235.49
441.424	262.19
441.883	258.79
442.342	229.09
442.801	196.39
443.26	196.39
443.719	189.29
444.178	191.09
444.637	182.19
445.096	188.89
445.555	197.49
446.014	192.19
446.473	197.79
446.932	205.09
447.391	198.39
447.849	204.99
448.308	192.59
448.767	196.69
449.226	212.09
449.685	211.89
450.143	218.89
450.602	209.19
451.061	194.59
451.519	205.69
451.978	211.29
452.436	200.99
452.895	208.59
453.353	214.29
453.812	206.39
454.27	211.59
454.729	206.39
455.187	206.99
455.646	210.39
456.104	213.39
456.562	225.89
457.021	230.09
457.479	222.09
457.937	227.79
458.395	227.29
458.854	219.49
459.312	218.29
459.77	232.89
460.228	224.49
460.686	216.49
461.144	218.49
461.602	213.59
462.06	214.49
462.518	226.29
462.976	225.09
463.434	226.19
463.892	230.19
464.35	238.29
464.808	252.39
465.266	230.49
465.724	239.89
466.181	238.59
466.639	243.69
467.097	251.09
467.555	260.19
468.012	274.99
468.47	267.09
468.928	284.59
469.385	292.09
469.843	310.79
470.3	305.39
470.758	310.99
471.215	330.79
471.673	349.29
472.13	342.09
472.588	351.99
473.045	316.29
473.503	333.39
473.96	343.39
474.417	340.79
474.875	379.89
475.332	414.39
475.789	393.99
476.246	404.99
476.704	414.29
477.161	429.39
477.618	442.49
478.075	481.79
478.532	523.59
478.989	594.09
479.446	676.79
479.903	665.39
480.36	697.59
480.817	748.99
481.274	837.89
481.731	942.09
482.188	1008.79
482.645	1138.79
483.102	1232.09
483.558	1345.99
484.015	1411.89
484.472	1392.29
484.929	1345.39
485.385	1290.29
485.842	1263.99
486.299	1202.99
486.755	1126.89
487.212	954.99
487.668	806.29
488.125	751.69
488.582	683.29
489.038	656.19
489.494	623.39
489.951	610.19
490.407	589.29
490.864	566.29
491.32	563.89
491.776	556.99
492.233	564.19
492.689	530.99
493.145	529.29
493.602	511.89
494.058	524.09
494.514	534.49
494.97	559.09
495.426	560.29
495.882	543.09
496.338	539.79
496.794	547.79
497.251	544.69
497.707	543.99
498.163	552.59
498.618	558.59
499.074	554.29
499.53	579.59
499.986	588.79
500.442	551.99
500.898	556.09
501.354	539.39
501.809	552.29
502.265	552.79
502.721	573.39
503.177	578.09
503.632	581.79
504.088	586.99
504.543	616.39
504.999	605.89
505.455	572.29
505.91	550.29
506.366	549.89
506.821	545.89
507.277	542.09
507.732	540.39
508.187	543.59
508.643	558.59
509.098	550.29
509.553	568.19
510.009	565.29
510.464	580.69
510.919	594.49
511.375	603.39
511.83	618.29
512.285	617.19
512.74	653.69
513.195	667.19
513.65	659.39
514.105	666.99
514.56	673.89
515.015	688.29
515.47	700.49
515.925	683.39
516.38	677.69
516.835	695.09
517.29	681.29
517.745	682.29
518.2	663.39
518.655	648.39
519.109	648.29
519.564	646.19
520.019	632.49
520.474	616.09
520.928	631.99
521.383	623.69
521.838	618.79
522.292	612.49
522.747	612.99
523.201	608.29
523.656	595.19
524.11	595.79
524.565	602.59
525.019	589.19
525.474	600.19
525.928	603.49
526.382	596.39
526.837	603.99
527.291	607.89
527.745	596.19
528.2	605.89
528.654	586.69
529.108	589.99
529.562	593.19
530.016	592.49
530.47	587.29
530.925	589.99
531.379	592.39
531.833	601.49
532.287	604.59
532.741	604.79
533.195	607.39
533.649	608.49
534.103	609.89
534.556	601.09
535.01	614.69
535.464	614.09
535.918	619.69
536.372	610.49
536.826	614.29
537.279	599.49
537.733	604.69
538.187	608.19
538.64	599.99
539.094	618.59
539.548	625.99
540.001	622.79
540.455	618.39
540.908	619.29
541.362	628.69
541.815	637.49
542.269	645.09
542.722	635.59
543.175	652.19
543.629	661.39
544.082	675.19
544.536	673.89
544.989	670.89
545.442	669.89
545.895	668.99
546.349	664.09
546.802	673.29
547.255	676.69
547.708	677.29
548.161	693.29
548.614	700.79
549.067	704.89
549.52	691.19
549.973	683.39
550.426	684.09
550.879	668.19
551.332	671.39
551.785	684.19
552.238	682.99
552.691	692.79
553.144	696.79
553.596	703.39
554.049	721.19
554.502	752.59
554.955	769.49
555.407	768.49
555.86	763.09
556.313	756.19
556.765	742.99
557.218	754.09
557.67	745.59
558.123	728.49
558.576	734.39
559.028	740.79
559.48	740.79
559.933	724.39
560.385	699.59
560.838	680.49
561.29	650.79
561.742	656.39
562.195	648.09
562.647	638.09
563.099	643.19
563.551	642.09
564.004	666.89
564.456	643.89
564.908	629.79
565.36	620.79
565.812	613.69
566.264	603.39
566.716	610.49
567.168	591.89
567.62	606.39
568.072	581.19
568.524	579.19
568.976	566.99
569.428	561.79
569.88	555.99
570.332	552.99
570.784	566.09
571.235	560.29
571.687	577.99
572.139	582.09
572.59	592.39
573.042	590.59
573.494	584.39
573.945	581.29
574.397	569.49
574.849	574.29
575.3	568.19
575.752	561.89
576.203	565.99
576.655	564.29
577.106	549.59
577.557	551.89
578.009	556.99
578.46	552.49
578.912	545.09
579.363	546.19
579.814	542.69
580.265	536.49
580.717	541.59
581.168	546.69
581.619	552.89
582.07	554.79
582.521	555.39
582.972	553.19
583.423	552.99
583.875	553.49
584.326	566.19
584.777	612.89
585.227	679.49
585.678	757.79
586.129	815.99
586.58	895.29
587.031	969.09
587.482	1107.49
587.933	1271.99
588.384	1096.09
588.834	798.09
589.285	652.89
589.736	643.99
590.186	636.29
590.637	627.09
591.088	605.29
591.538	592.09
591.989	598.59
592.439	589.69
592.89	585.09
593.34	579.99
593.791	572.69
594.241	574.49
594.692	578.49
595.142	560.79
595.593	563.89
596.043	572.19
596.493	573.69
596.943	575.09
597.394	580.69
597.844	570.79
598.294	583.89
598.744	612.89
599.195	626.49
599.645	646.49
600.095	689.19
600.545	730.59
600.995	778.19
601.445	829.39
601.895	879.69
602.345	919.29
602.795	917.29
603.245	851.49
603.695	825.99
604.145	769.59
604.594	738.89
605.044	699.39
605.494	643.79
605.944	604.19
606.393	602.39
606.843	577.19
607.293	589.29
607.743	580.39
608.192	595.79
608.642	607.19
609.091	620.79
609.541	617.19
609.99	613.49
610.44	602.89
610.889	571.19
611.339	554.79
611.788	551.39
612.238	562.39
612.687	578.29
613.136	579.69
613.586	584.09
614.035	579.19
614.484	596.29
614.933	600.09
615.383	583.19
615.832	587.09
616.281	576.29
616.73	538.39
617.179	538.19
617.628	518.09
618.077	507.19
618.526	493.29
618.975	489.49
619.424	485.39
619.873	480.99
620.322	485.39
620.771	476.69
621.22	478.09
621.669	468.09
622.118	473.19
622.567	457.89
623.015	448.89
623.464	448.39
623.913	447.59
624.361	434.49
624.81	433.59
625.259	436.59
625.707	436.99
626.156	438.89
626.604	448.99
627.053	437.69
627.501	436.79
627.95	455.49
628.398	457.19
628.847	442.59
629.295	445.19
629.744	449.79
630.192	450.49
630.64	449.79
631.089	442.69
631.537	450.69
631.985	456.49
632.433	468.79
632.881	474.79
633.33	504.99
633.778	490.29
634.226	432.69
634.674	439.59
635.122	450.19
635.57	461.89
636.018	481.39
636.466	452.29
636.914	436.19
637.362	444.89
637.81	438.79
638.258	448.79
638.705	454.09
639.153	480.59
639.601	471.29
640.049	501.49
640.497	522.89
640.944	542.19
641.392	503.39
641.84	488.19
642.287	452.49
642.735	443.89
643.182	450.99
643.63	447.79
644.078	454.09
644.525	455.49
644.973	471.99
645.42	468.99
645.867	482.39
646.315	500.69
646.762	513.19
647.21	535.89
647.657	550.89
648.104	576.79
648.551	596.19
648.999	649.09
649.446	698.29
649.893	770.79
650.34	880.49
650.787	1056.99
651.234	1314.59
651.682	1713.79
652.129	2322.19
652.576	3328.39
653.023	4944.19
653.47	6892.69
653.917	8669.99
654.363	10219.39
654.81	11544.69
655.257	10974.49
655.704	7125.69
656.151	4164.59
656.598	2686.49
657.044	1906.89
657.491	1464.59
657.938	1156.99
658.385	965.69
658.831	844.69
659.278	743.49
659.724	666.59
660.171	611.09
660.618	565.69
661.064	536.29
661.511	510.59
661.957	497.09
662.404	477.79
662.85	493.29
663.296	479.39
663.743	432.79
664.189	416.19
664.635	414.49
665.082	400.19
665.528	401.19
665.974	395.49
666.42	393.39
666.867	390.39
667.313	371.89
667.759	366.39
668.205	375.59
668.651	380.69
669.097	377.99
669.543	387.79
669.989	364.99
670.435	349.99
670.881	345.59
671.327	353.49
671.773	363.59
672.219	380.69
672.665	418.89
673.11	450.59
673.556	480.69
674.002	518.89
674.448	507.59
674.893	427.59
675.339	363.79
675.785	347.09
676.23	321.39
676.676	302.49
677.122	288.69
677.567	288.09
678.013	281.09
678.458	278.09
678.904	278.09
679.349	264.49
679.794	265.29
680.24	269.39
680.685	260.39
681.131	267.19
681.576	262.39
682.021	274.29
682.466	267.59
682.912	259.89
683.357	261.79
683.802	287.39
684.247	310.69
684.692	341.89
685.137	373.69
685.583	407.99
686.028	434.59
686.473	394.29
686.918	340.29
687.363	315.09
687.807	299.49
688.252	286.59
688.697	274.39
689.142	253.39
689.587	257.59
690.032	244.19
690.477	258.69
690.921	263.19
691.366	290.89
691.811	309.59
692.255	326.99
692.7	355.09
693.145	376.89
693.589	519.09
694.034	829.99
694.478	1149.99
694.923	1342.89
695.367	1793.19
695.812	937.59
696.256	385.39
696.701	287.19
697.145	268.89
697.59	250.29
698.034	240.19
698.478	248.89
698.922	251.29
699.367	247.99
699.811	253.09
700.255	265.39
700.699	289.69
701.143	325.19
701.588	359.89
702.032	400.29
702.476	391.99
702.92	368.59
703.364	361.99
703.808	464.49
704.252	763.89
704.696	1097.39
705.14	1295.49
705.584	1689.29
706.027	832.69
706.471	403.99
706.915	297.59
707.359	267.99
707.803	242.49
708.246	231.89
708.69	235.39
709.134	243.99
709.577	239.29
710.021	244.99
710.465	234.89
710.908	224.09
711.352	224.09
711.795	238.39
712.239	264.99
712.682	288.29
713.126	322.89
713.569	357.69
714.012	279.49
714.456	249.79
714.899	224.09
715.342	213.99
715.786	201.09
716.229	191.19
716.672	202.69
717.115	189.89
717.558	191.09
718.002	191.99
718.445	201.99
718.888	220.09
719.331	220.39
719.774	229.59
720.217	235.29
720.66	222.39
721.103	201.59
721.546	188.09
721.989	188.29
722.432	170.39
722.874	174.29
723.317	169.49
723.76	175.49
724.203	195.19
724.645	237.29
725.088	330.39
725.531	425.99
725.974	494.69
726.416	417.59
726.859	229.69
727.301	182.29
727.744	181.99
728.187	171.09
728.629	180.69
729.071	183.29
729.514	190.59
729.956	204.49
730.399	208.59
730.841	214.49
731.283	208.99
731.726	200.19
732.168	198.19
732.61	204.69
733.053	216.09
733.495	234.49
733.937	264.99
734.379	304.99
734.821	328.89
735.263	394.59
735.705	617.69
736.148	1157.79
736.59	1941.09
737.032	2413.29
737.474	1969.99
737.916	618.39
738.357	324.49
738.799	247.99
739.241	229.49
739.683	215.49
740.125	217.59
740.567	226.69
741.008	243.79
741.45	244.89
741.892	239.99
742.334	272.69
742.775	279.89
743.217	262.79
743.658	208.29
744.1	198.69
744.542	198.79
744.983	236.09
745.425	273.09
745.866	266.69
746.307	216.59
746.749	213.69
747.19	246.19
747.632	340.09
748.073	624.79
748.514	1361.69
748.956	2174.39
749.397	2729.99
749.838	2267.39
750.279	2337.69
750.72	1175.59
751.162	419.99
751.603	251.09
752.044	194.19
752.485	163.59
752.926	158.59
753.367	156.99
753.808	143.59
754.249	143.29
754.69	140.39
755.131	136.29
755.572	137.39
756.013	134.39
756.453	140.69
756.894	137.09
757.335	144.29
757.776	138.09
758.216	143.79
758.657	145.39
759.098	149.39
759.538	170.09
759.979	192.89
760.42	270.49
760.86	512.29
761.301	1323.29
761.741	3335.49
762.182	5190.49
762.622	3647.99
763.063	1033.49
763.503	415.89
763.943	269.59
764.384	264.09
764.824	316.69
765.264	358.49
765.705	240.69
766.145	165.59
766.585	135.29
767.025	138.59
767.465	136.29
767.906	185.39
768.346	242.59
768.786	272.89
769.226	204.09
769.666	226.59
770.106	443.79
770.546	1130.49
770.986	2055.29
771.426	1896.69
771.866	612.59
772.306	250.09
772.745	160.39
773.185	134.09
773.625	130.89
774.065	123.29
774.505	141.79
774.944	218.59
775.384	490.39
775.824	946.09
776.263	954.09
776.703	396.89
777.142	170.29
777.582	117.69
778.021	102.79
778.461	102.09
778.9	109.29
779.34	99.99
779.779	92.59
780.219	83.59
780.658	76.09
781.097	80.29
781.537	86.29
781.976	86.99
782.415	81.49
782.855	77.29
783.294	74.69
783.733	75.49
784.172	81.29
784.611	74.09
785.05	84.19
785.489	83.29
785.928	96.29
786.367	94.29
786.806	86.89
787.245	100.19
787.684	106.79
788.123	114.59
788.562	102.39
789.001	98.49
789.44	95.49
789.879	87.79
790.317	85.79
790.756	96.29
791.195	91.29
791.634	109.69
792.072	150.99
792.511	265.09
792.95	734.09
793.388	1655.29
793.827	1575.29
794.265	518.69
794.704	211.49
795.142	141.89
795.581	115.79
796.019	109.59
796.458	97.89
796.896	93.39
797.334	94.39
797.773	119.39
798.211	159.29
798.649	316.29
799.087	757.89
799.526	1212.49
799.964	1544.69
800.402	1616.99
800.84	592.49
801.278	224.59
801.716	144.69
802.154	113.19
802.592	113.09
803.03	101.49
803.468	102.29
803.906	106.39
804.344	113.49
804.782	99.59
805.22	99.39
805.658	97.29
806.096	114.09
806.533	123.39
806.971	132.29
807.409	165.29
807.847	227.69
808.284	483.49
808.722	1396.59
809.16	2592.29
809.597	2387.19
810.035	4224.49
810.472	4755.49
810.91	1680.79
811.347	624.59
811.785	314.29
812.222	199.49
812.66	147.89
813.097	125.79
813.535	114.89
813.972	98.69
814.409	96.99
814.846	79.09
815.284	81.59
815.721	73.99
816.158	77.99
816.595	86.19
817.032	136.89
817.47	157.89
817.907	136.89
818.344	121.49
818.781	81.79
819.218	83.39
819.655	97.59
820.092	144.19
820.529	172.59
820.966	137.39
821.403	103.49
821.839	84.49
822.276	80.49
822.713	94.89
823.15	111.89
823.587	87.29
824.023	107.39
824.46	216.59
824.897	674.09
825.333	1076.79
825.77	452.99
826.206	174.29
826.643	105.49
827.08	75.89
827.516	61.09
827.953	65.49
828.389	66.69
828.825	60.99
829.262	53.79
829.698	40.19
830.135	51.69
830.571	48.19
831.007	51.19
831.443	42.89
831.88	47.29
832.316	45.69
832.752	46.39
833.188	52.99
833.624	49.59
834.06	48.09
834.497	50.69
834.933	50.39
835.369	55.19
835.805	53.09
836.241	53.69
836.677	55.89
837.112	62.99
837.548	74.99
837.984	97.49
838.42	147.29
838.856	358.79
839.292	1146.19
839.727	1859.39
840.163	841.69
840.599	697.09
841.034	1565.59
841.47	1733.29
841.906	620.89
842.341	260.39
842.777	172.29
843.212	247.19
843.648	246.89
844.083	115.79
844.519	80.19
844.954	56.79
845.39	38.79
845.825	42.39
846.261	45.99
846.696	39.19
847.131	42.29
847.566	41.89
848.002	37.69
848.437	38.89
848.872	46.79
849.307	39.69
849.742	58.39
850.177	129.89
850.613	416.59
851.048	695.49
851.483	294.99
851.918	111.79
852.353	65.89
852.788	41.29
853.223	43.09
853.657	40.09
854.092	37.69
854.527	33.39
854.962	29.99
855.397	38.49
855.832	35.89
856.266	32.79
856.701	33.99
857.136	26.49
857.57	33.49
858.005	36.29
858.44	46.99
858.874	35.99
859.309	44.89
859.743	28.09
860.178	29.19
860.612	28.09
861.047	38.59
861.481	47.29
861.915	54.49
862.35	35.09
862.784	30.09
863.218	31.59
863.653	25.59
864.087	32.89
864.521	36.79
864.955	49.69
865.39	117.39
865.824	134.59
866.258	92.19
866.692	130.99
867.126	145.09
867.56	90.19
867.994	42.19
868.428	25.99
868.862	43.79
869.296	41.89
869.73	47.09
870.164	38.79
870.598	35.69
871.031	26.09
871.465	22.89
871.899	30.89
872.333	18.19
872.766	25.49
873.2	19.29
873.634	21.49
874.067	18.89
874.501	16.29
874.935	29.79
875.368	22.69
875.802	20.99
876.235	16.79
876.669	21.79
877.102	19.39
877.535	19.09
877.969	19.29
878.402	20.99
878.836	12.09
879.269	14.69
879.702	17.69
880.135	12.29
880.569	22.19
881.002	17.09
881.435	18.39
881.868	3.79
882.301	13.79
882.734	11.99
883.167	21.29
883.601	11.79
884.034	17.89
884.467	10.39
884.899	16.69
885.332	16.59
885.765	10.39
886.198	12.89
886.631	10.79
887.064	20.29
887.497	15.19
887.929	15.09
888.362	10.19
888.795	2.39
889.228	12.39
889.66	17.99
890.093	13.99
890.526	8.69
890.958	12.99
891.391	12.89
891.823	15.49
892.256	16.39
892.688	8.69
893.121	8.69
893.553	12.19
893.985	17.59
894.418	22.09
894.85	13.99
895.282	14.59
895.715	14.39
896.147	13.19
896.579	14.39
897.011	13.19
897.444	8.69
897.876	7.29
898.308	16.09
898.74	10.59
899.172	7.09
899.604	17.09
900.036	14.49
900.468	3.19
900.9	11.39
901.332	11.59
901.764	5.39
902.196	16.29
902.628	20.69
903.06	11.69
903.491	18.69
903.923	18.99
904.355	17.39
904.787	16.99
905.218	17.39
905.65	14.89
906.082	10.09
906.513	8.39
906.945	16.59
907.376	13.59
907.808	17.09
908.239	19.19
908.671	15.39
909.102	17.89
909.534	21.19
909.965	36.09
910.397	67.99
910.828	245.39
911.259	399.09
911.691	174.79
912.122	81.19
912.553	39.29
912.984	22.89
913.415	22.99
913.847	16.59
914.278	11.69
914.709	14.99
915.14	14.79
915.571	16.09
916.002	10.29
916.433	19.89
916.864	12.29
917.295	8.59
917.726	10.39
918.157	9.89
918.587	22.69
919.018	14.69
919.449	15.19
919.88	20.59
920.311	31.29
920.741	33.09
921.172	124.29
921.603	116.99
922.033	47.29
922.464	37.09
922.895	15.39
923.325	21.49
923.756	8.59
924.186	12.89
924.617	20.49
925.047	28.29
925.478	38.99
925.908	35.69
926.338	15.19
926.769	17.59
927.199	15.69
927.629	4.39
928.06	19.09
928.49	15.39
928.92	13.29
929.35	1.99
929.78	14.79
930.21	0.39
930.641	9.09
931.071	6.19
931.501	6.39
931.931	4.59
932.361	7.99
932.791	5.19
933.221	4.19
933.651	3.39
934.08	13.29
934.51	25.59
934.94	11.79
935.37	13.39
935.8	12.79
936.229	-2.11
936.659	12.29
937.089	1.39
937.519	10.69
937.948	20.59
938.378	17.39
938.807	7.69
939.237	3.19
939.666	9.69
940.096	-3.81
940.525	4.49
940.955	-0.41
941.384	4.89
941.814	-3.51
942.243	-0.11
942.672	3.79
943.102	-2.11
943.531	2.09
943.96	2.99
944.39	0.09
944.819	1.59
945.248	4.99
945.677	4.89
946.106	6.69
946.535	3.09
946.964	3.59
947.393	1.69
947.822	-2.61
948.251	-1.21
948.68	-4.01
949.109	8.99
949.538	3.99
949.967	3.19
950.396	2.29
950.825	-2.81
951.254	-4.31
951.682	-5.11
952.111	5.89
952.54	5.59
952.969	-5.81
953.397	-1.81
953.826	3.69
954.254	-5.81
954.683	7.49
955.112	-4.81
955.54	-1.01
955.969	1.39
956.397	0.09
956.826	-1.41
957.254	2.99
957.682	-0.11
958.111	4.59
958.539	-3.81
958.967	1.89
959.396	-1.81
959.824	3.19
960.252	-3.21
960.68	-0.51
961.109	6.09
961.537	0.99
961.965	-2.51
962.393	0.49
962.821	-3.61
963.249	2.89
963.677	7.59
964.105	5.29
964.533	37.49
964.961	28.29
965.389	18.19
965.817	2.59
966.245	4.59
966.672	4.69
967.1	-1.81
967.528	-1.91
967.956	-0.21
968.383	-3.41
968.811	0.69
969.239	1.99
969.666	-5.11
970.094	0.59
970.522	5.89
970.949	2.49
971.377	-6.71
971.804	-1.61
972.232	-1.41
972.659	-5.01
973.087	0.59
973.514	-6.01
973.941	-5.11
974.369	4.19
974.796	1.79
975.223	6.19
975.651	-1.41
976.078	8.59
976.505	-3.61
976.932	-1.11
977.359	13.99
977.786	14.29
978.214	1.49
978.641	-7.91
979.068	-4.11
979.495	-9.91
979.922	-2.71
980.349	-3.91
980.776	1.19
981.202	-2.11
981.629	7.09
982.056	2.79
982.483	-9.21
982.91	-1.21
983.337	-10.41
983.763	3.49
984.19	-4.21
984.617	-0.11
985.043	-4.61
985.47	2.79
985.897	-3.41
986.323	-5.31
986.75	0.99
987.176	-7.61
987.603	1.79
988.029	-1.21
988.456	-0.81
988.882	2.99
989.308	0.59
989.735	-5.51
990.161	-1.71
990.587	-4.61
991.014	-2.51
991.44	0.19
991.866	-2.81
992.292	-5.71
992.719	0.89
993.145	2.69
993.571	-11.91
993.997	-5.51
994.423	0.69
994.849	-6.51
995.275	1.19
995.701	0.99
996.127	-1.81
996.553	-2.31
996.979	-0.31
997.405	-1.71
997.83	-11.51
998.256	-5.61
998.682	-5.31
999.108	-9.51
999.534	0.79
999.959	0.59
1000.385	0.89
1000.811	3.19
1001.236	-6.71
1001.662	-5.51
1002.087	-8.11
1002.513	2.59
1002.938	5.29
1003.364	1.49
1003.789	-1.01
1004.215	0.09
1004.64	-4.51
1005.066	1.79
1005.491	-0.51
1005.916	-0.81
1006.342	-5.51
1006.767	-7.91
1007.192	5.09
1007.617	-1.61
1008.042	-7.81
1008.468	-0.21
1008.893	-5.51
1009.318	-0.01
1009.743	-1.91
1010.168	6.19
1010.593	6.39
1011.018	-11.81
1011.443	-1.41
1011.868	0.69
1012.293	-2.61
1012.718	-7.61
1013.143	6.99
1013.567	6.09
1013.992	-1.11
1014.417	-8.61
1014.842	1.99
1015.267	-2.51
1015.691	-4.81
1016.116	5.19
1016.541	2.79
1016.965	7.59
1017.39	0.29
1017.814	1.39
1018.239	-2.71
1018.663	-5.51
1019.088	-9.61
1019.512	-3.21
1019.937	-0.41
1020.361	-3.91
1020.785	-7.31
1021.21	1.19
1021.634	-1.41
1022.058	-2.91
1022.483	-2.71
1022.907	-3.21
1023.331	-2.31
1023.755	2.69
1024.179	-1.91
1024.604	-2.71
1025.028	-7.81
1025.452	-3.61
1025.876	-2.01
1026.3	-0.11
1026.724	-8.61
1027.148	-8.61
1027.572	-8.51
1027.996	-5.61
1028.42	-2.81
1028.843	-1.81
1029.267	0.79
1029.691	-0.51
1030.115	-4.81
1030.539	-4.61
1030.962	-3.71
1031.386	-7.31
1031.81	4.79
1032.233	2.19
1032.657	-4.31
1033.08	1.09
1033.504	-0.71
1033.927	-7.11
1034.351	-3.41
1034.774	-7.01
1035.198	-2.81
1035.621	-8.01
1036.045	-2.51
1036.468	1.59
1036.891	-8.31
1037.315	-11.11
1037.738	-12.61
1038.161	-2.31
1038.584	-9.01
1039.008	-2.51
1039.431	-0.01
1039.854	-0.21
1040.277	-9.81
1040.7	-10.11
1041.123	-0.61
1041.546	-7.41
1041.969	-4.81
1042.392	-5.01
1042.815	0.19
1043.238	5.49
1043.661	0.79
1044.084	-6.31
1044.507	-7.31
1044.93	-1.21
1045.352	-5.01
1045.775	-1.01
1046.198	-3.21
1046.621	-1.21
1047.043	1.39
1047.466	9.99
1047.889	-5.71
1048.311	-5.41
1048.734	-4.91
1049.156	-1.51
1049.579	1.09
1050.001	-4.01
1050.424	2.09
1050.846	-5.51
1051.269	-4.71
1051.691	-2.11
1052.113	-6.81
1052.536	-0.71
1052.958	3.69
1053.38	-8.21
1053.802	-12.61
1054.225	2.49
1054.647	-9.21
1055.069	0.09
1055.491	8.29
1055.913	-1.01
1056.335	-1.71
1056.757	-8.01
1057.179	-8.61
1057.601	-3.41
1058.023	-3.21
1058.445	-2.41
1058.867	-4.01
1059.289	2.19
1059.711	-5.41
1060.133	-2.01
1060.555	-1.21
1060.976	-5.81
1061.398	-2.71
1061.82	-2.21
1062.241	-6.11
1062.663	-5.81
1063.085	-5.81
1063.506	1.99
1063.928	2.39
1064.35	-1.81
1064.771	-11.61
1065.193	0.99
1065.614	-6.21
1066.035	-1.51
1066.457	-2.81
1066.878	3.79
1067.3	-8.01
1067.721	-7.91
1068.142	-7.01
1068.564	-0.71
1068.985	-1.61
1069.406	-5.81
1069.827	-5.61
1070.248	-1.01
1070.67	-7.81
1071.091	-1.71
1071.512	-1.01
1071.933	-7.41
1072.354	-3.11
1072.775	-5.71
1073.196	-8.81
1073.617	0.39
1074.038	-1.21
1074.459	2.39
1074.88	-10.11
1075.3	-2.31
1075.721	-2.01
1076.142	1.39
1076.563	-4.41
1076.983	-13.71
1077.404	-3.41
1077.825	-11.91
1078.246	-13.11
1078.666	-11.01
1079.087	0.39
1079.507	-3.11
1079.928	-2.21
1080.348	-0.21
1080.769	-0.71
1081.189	3.79
1081.61	1.99
1082.03	-2.91
1082.451	-4.21
1082.871	1.59
1083.291	-7.01
1083.711	-6.61
1084.132	-6.81
1084.552	-9.01
1084.972	0.09
1085.392	-11.41
1085.813	-9.31
1086.233	-5.01
1086.653	0.09
1087.073	0.19
1087.493	-6.41
1087.913	-9.01
1088.333	-5.71
1088.753	-0.21
1089.173	-0.31
1089.593	-4.31
1090.013	3.99
1090.433	-4.91
1090.852	-3.81
1091.272	1.89
1091.692	-4.21
1092.112	-4.91
1092.531	-8.21
1092.951	-14.41
1093.371	-2.51
1093.79	-1.11
1094.21	-8.41
1094.63	-6.11
1095.049	-6.71
1095.469	1.99
1095.888	-6.51
1096.308	2.39
1096.727	3.49
1097.146	-7.51
1097.566	0.39
1097.985	-5.51
1098.405	-1.81
1098.824	-6.81
1099.243	0.19
1099.662	-5.31
1100.082	1.19
1100.501	-0.91
1100.92	-11.21
1101.339	-4.21
1101.758	-8.41
