Data from 20171114-ORNL-Ar_H_NY_Subt18_08-03-51-962.txt Node
Date: Tue Nov 14 08:03:51 EST 2017
User: Ender
Spectrometer: HR+D1039
Trigger mode: 0
Integration Time (sec): 2.730000E-2
Scans to average: 10
Electric dark correction enabled: true
Nonlinearity correction enabled: false
Boxcar width: 0
XAxis mode: Wavelengths
Number of Pixels in Spectrum: 2048
>>>>>Begin Spectral Data<<<<<
187.836	-1.59
188.309	-1.59
188.782	-1.59
189.255	1.71
189.728	1.21
190.201	9.61
190.674	2.61
191.147	0.11
191.619	-15.69
192.092	2.51
192.565	4.71
193.038	2.21
193.511	-0.99
193.984	2.11
194.456	-2.29
194.929	-0.39
195.402	-3.59
195.874	-2.19
196.347	-0.19
196.82	-6.09
197.292	-2.09
197.765	-1.19
198.237	-4.19
198.71	2.91
199.182	-5.19
199.655	-0.79
200.127	2.01
200.6	-4.59
201.072	-5.99
201.544	-0.39
202.017	4.71
202.489	2.21
202.961	-4.99
203.433	-5.69
203.906	-9.39
204.378	-8.39
204.85	-3.29
205.322	-5.09
205.794	0.71
206.266	-4.59
206.739	-3.09
207.211	2.31
207.683	-7.99
208.155	-5.19
208.627	-5.49
209.099	-4.39
209.57	-6.29
210.042	-8.59
210.514	-8.09
210.986	-3.59
211.458	-11.39
211.93	-3.89
212.402	-2.09
212.873	-8.89
213.345	-7.39
213.817	-19.09
214.288	-1.79
214.76	-11.39
215.232	1.21
215.703	-3.99
216.175	-10.59
216.646	-3.49
217.118	-5.39
217.589	-6.79
218.061	-2.39
218.532	-4.99
219.004	-2.49
219.475	-6.19
219.946	-5.69
220.418	-7.09
220.889	0.41
221.36	-4.79
221.832	-3.89
222.303	-4.19
222.774	2.91
223.245	-6.59
223.717	-5.19
224.188	-3.99
224.659	-5.09
225.13	-4.89
225.601	-3.09
226.072	-1.39
226.543	-1.59
227.014	4.81
227.485	-8.49
227.956	-8.79
228.427	-3.49
228.898	6.81
229.369	5.71
229.839	-1.19
230.31	-3.29
230.781	3.71
231.252	-3.29
231.722	-7.09
232.193	-4.69
232.664	-9.59
233.135	0.81
233.605	-2.39
234.076	-3.09
234.546	-0.49
235.017	0.91
235.487	-3.29
235.958	-8.29
236.428	-5.29
236.899	-0.19
237.369	2.31
237.84	-9.89
238.31	-0.29
238.78	1.91
239.251	-6.69
239.721	-4.99
240.191	-2.29
240.662	0.31
241.132	-6.99
241.602	-2.19
242.072	-6.59
242.542	2.01
243.013	-1.99
243.483	2.11
243.953	-4.39
244.423	-3.29
244.893	-6.99
245.363	-0.99
245.833	-2.09
246.303	-3.79
246.773	2.41
247.243	-3.09
247.712	-6.29
248.182	3.11
248.652	0.11
249.122	-11.59
249.592	1.41
250.061	0.81
250.531	7.91
251.001	-6.39
251.471	2.11
251.94	9.71
252.41	0.21
252.879	-9.29
253.349	9.31
253.818	11.11
254.288	-0.29
254.757	-6.59
255.227	-5.39
255.696	2.01
256.166	2.21
256.635	-0.49
257.105	-2.69
257.574	4.41
258.043	-3.59
258.513	1.01
258.982	1.41
259.451	-6.79
259.92	-0.69
260.389	2.61
260.859	8.11
261.328	-1.79
261.797	2.21
262.266	-2.69
262.735	4.81
263.204	1.01
263.673	-6.79
264.142	1.01
264.611	-2.39
265.08	2.01
265.549	-2.79
266.018	-0.29
266.487	-5.89
266.955	-5.29
267.424	-5.09
267.893	0.21
268.362	-0.29
268.83	-0.99
269.299	8.41
269.768	2.51
270.236	-0.79
270.705	-3.49
271.174	2.91
271.642	2.11
272.111	0.21
272.579	6.51
273.048	3.71
273.516	4.81
273.985	0.21
274.453	-0.29
274.922	6.31
275.39	6.01
275.858	-1.79
276.327	5.61
276.795	9.51
277.263	3.51
277.731	10.41
278.2	9.21
278.668	5.51
279.136	8.31
279.604	7.31
280.072	-0.89
280.54	7.51
281.008	1.91
281.477	2.91
281.945	5.91
282.413	3.91
282.881	10.91
283.348	1.31
283.816	6.91
284.284	10.71
284.752	15.11
285.22	7.11
285.688	7.51
286.156	-0.99
286.623	16.51
287.091	7.81
287.559	6.51
288.026	10.01
288.494	9.81
288.962	0.61
289.429	1.51
289.897	13.21
290.364	6.41
290.832	10.11
291.3	11.91
291.767	7.71
292.234	15.21
292.702	6.71
293.169	12.21
293.637	11.51
294.104	10.71
294.571	3.71
295.039	11.51
295.506	6.61
295.973	10.21
296.44	4.81
296.908	10.11
297.375	9.71
297.842	13.11
298.309	7.51
298.776	4.01
299.243	10.91
299.71	4.71
300.177	10.21
300.644	18.31
301.111	9.01
301.578	19.01
302.045	6.91
302.512	15.31
302.979	19.51
303.446	17.41
303.913	9.31
304.379	8.91
304.846	15.91
305.313	19.41
305.78	13.91
306.246	19.21
306.713	16.61
307.18	16.71
307.646	18.01
308.113	21.21
308.579	18.71
309.046	20.01
309.512	18.01
309.979	10.41
310.445	18.71
310.912	20.41
311.378	26.21
311.845	25.91
312.311	23.31
312.777	23.21
313.244	19.11
313.71	25.81
314.176	22.41
314.642	17.21
315.109	21.91
315.575	21.51
316.041	26.01
316.507	19.71
316.973	24.81
317.439	22.71
317.905	21.11
318.371	30.21
318.837	27.41
319.303	25.11
319.769	21.11
320.235	29.51
320.701	26.41
321.167	26.91
321.633	22.61
322.099	28.21
322.564	29.21
323.03	31.91
323.496	30.51
323.962	23.41
324.427	25.51
324.893	32.91
325.359	30.01
325.824	30.11
326.29	32.21
326.755	33.71
327.221	33.71
327.686	29.81
328.152	28.21
328.617	31.41
329.083	31.11
329.548	38.91
330.014	34.91
330.479	27.81
330.944	36.71
331.41	25.51
331.875	36.31
332.34	35.81
332.805	32.71
333.271	36.01
333.736	35.41
334.201	41.51
334.666	41.61
335.131	41.61
335.596	38.71
336.061	38.61
336.526	32.61
336.991	42.11
337.456	46.71
337.921	40.91
338.386	36.41
338.851	41.51
339.316	33.71
339.781	38.31
340.246	45.71
340.711	40.71
341.175	46.51
341.64	40.51
342.105	40.21
342.569	50.51
343.034	47.01
343.499	43.91
343.963	47.11
344.428	63.21
344.893	52.11
345.357	49.91
345.822	50.11
346.286	53.41
346.751	57.01
347.215	56.41
347.679	53.61
348.144	69.21
348.608	61.61
349.073	58.31
349.537	68.01
350.001	69.01
350.465	77.21
350.93	66.71
351.394	69.01
351.858	60.71
352.322	76.21
352.786	64.81
353.25	80.21
353.715	87.41
354.179	79.21
354.643	96.21
355.107	104.01
355.571	89.71
356.035	81.51
356.498	93.01
356.962	91.71
357.426	95.01
357.89	90.61
358.354	82.61
358.818	71.81
359.281	66.11
359.745	67.11
360.209	70.61
360.673	72.81
361.136	60.81
361.6	78.11
362.064	71.31
362.527	78.31
362.991	83.21
363.454	72.51
363.918	75.21
364.381	62.91
364.845	73.61
365.308	81.41
365.772	72.91
366.235	77.21
366.698	76.91
367.162	78.21
367.625	77.51
368.088	82.31
368.552	72.61
369.015	79.41
369.478	89.41
369.941	90.01
370.404	80.01
370.867	93.21
371.331	98.11
371.794	97.91
372.257	94.81
372.72	89.71
373.183	90.81
373.646	84.21
374.109	92.61
374.572	93.51
375.035	95.51
375.497	95.31
375.96	94.41
376.423	96.11
376.886	103.91
377.349	96.11
377.811	96.31
378.274	92.01
378.737	96.11
379.199	103.61
379.662	106.61
380.125	115.61
380.587	106.21
381.05	112.01
381.512	106.51
381.975	114.31
382.437	110.71
382.9	116.01
383.362	116.71
383.825	115.11
384.287	116.91
384.75	115.21
385.212	115.21
385.674	122.71
386.136	121.91
386.599	115.61
387.061	120.51
387.523	116.11
387.985	121.01
388.447	125.41
388.91	121.11
389.372	120.31
389.834	123.81
390.296	120.51
390.758	127.41
391.22	122.41
391.682	137.61
392.144	141.71
392.606	144.31
393.068	136.11
393.529	146.41
393.991	141.61
394.453	130.61
394.915	130.41
395.377	129.51
395.838	133.61
396.3	131.51
396.762	142.11
397.224	134.61
397.685	129.71
398.147	132.81
398.608	134.01
399.07	133.21
399.531	133.81
399.993	135.51
400.454	145.11
400.916	143.01
401.377	144.11
401.839	150.01
402.3	150.31
402.762	163.91
403.223	173.51
403.684	167.41
404.145	162.61
404.607	160.91
405.068	158.71
405.529	164.51
405.99	172.31
406.451	164.11
406.913	171.21
407.374	163.01
407.835	157.01
408.296	167.91
408.757	167.11
409.218	179.21
409.679	175.11
410.14	170.11
410.601	173.81
411.062	176.21
411.522	178.01
411.983	172.11
412.444	173.21
412.905	177.71
413.366	184.51
413.826	199.31
414.287	214.11
414.748	270.11
415.208	252.81
415.669	210.81
416.13	202.91
416.59	206.11
417.051	222.51
417.511	230.81
417.972	241.61
418.432	256.61
418.893	298.31
419.353	261.71
419.814	203.71
420.274	178.71
420.734	187.31
421.195	189.51
421.655	188.41
422.115	191.81
422.576	191.71
423.036	199.91
423.496	212.41
423.956	211.71
424.416	234.41
424.876	264.51
425.336	256.51
425.797	257.81
426.257	249.51
426.717	238.81
427.177	221.11
427.637	214.81
428.097	234.11
428.556	237.21
429.016	268.41
429.476	255.11
429.936	264.51
430.396	268.91
430.856	280.11
431.315	296.11
431.775	331.41
432.235	358.11
432.694	331.01
433.154	342.31
433.614	351.11
434.073	320.61
434.533	271.21
434.993	267.51
435.452	267.01
435.912	272.31
436.371	266.01
436.83	263.51
437.29	250.81
437.749	239.71
438.209	234.71
438.668	258.71
439.127	265.31
439.587	242.81
440.046	234.31
440.505	242.71
440.964	262.51
441.424	290.71
441.883	280.31
442.342	247.31
442.801	220.41
443.26	218.01
443.719	218.91
444.178	218.81
444.637	212.21
445.096	224.11
445.555	229.91
446.014	228.81
446.473	229.21
446.932	233.51
447.391	228.71
447.849	236.41
448.308	224.11
448.767	217.81
449.226	231.01
449.685	231.61
450.143	246.51
450.602	242.81
451.061	219.81
451.519	228.41
451.978	227.51
452.436	232.21
452.895	240.51
453.353	242.21
453.812	227.71
454.27	224.01
454.729	232.21
455.187	234.61
455.646	240.01
456.104	242.31
456.562	250.11
457.021	254.31
457.479	251.11
457.937	257.71
458.395	247.01
458.854	234.61
459.312	243.31
459.77	254.01
460.228	243.31
460.686	238.71
461.144	244.81
461.602	245.71
462.06	237.81
462.518	254.91
462.976	248.51
463.434	252.31
463.892	252.61
464.35	257.31
464.808	275.41
465.266	262.91
465.724	268.51
466.181	268.91
466.639	262.51
467.097	280.11
467.555	288.91
468.012	295.31
468.47	303.91
468.928	315.31
469.385	321.91
469.843	325.91
470.3	334.31
470.758	342.81
471.215	360.41
471.673	369.21
472.13	382.51
472.588	385.61
473.045	359.11
473.503	362.91
473.96	382.41
474.417	391.01
474.875	404.61
475.332	439.81
475.789	422.71
476.246	436.01
476.704	452.71
477.161	474.21
477.618	477.11
478.075	516.41
478.532	565.21
478.989	613.41
479.446	695.31
479.903	676.11
480.36	721.41
480.817	764.91
481.274	841.11
481.731	928.21
482.188	996.21
482.645	1110.81
483.102	1189.71
483.558	1294.41
484.015	1353.71
484.472	1332.51
484.929	1292.21
485.385	1265.91
485.842	1234.61
486.299	1181.81
486.755	1129.91
487.212	970.31
487.668	848.01
488.125	786.21
488.582	708.71
489.038	689.11
489.494	658.41
489.951	641.61
490.407	617.01
490.864	600.81
491.32	597.01
491.776	594.51
492.233	600.01
492.689	570.51
493.145	562.01
493.602	559.71
494.058	565.51
494.514	566.91
494.97	581.61
495.426	588.71
495.882	567.11
496.338	564.71
496.794	569.11
497.251	558.51
497.707	581.41
498.163	575.81
498.618	579.41
499.074	579.81
499.53	608.31
499.986	603.11
500.442	585.61
500.898	568.71
501.354	561.31
501.809	558.31
502.265	567.91
502.721	579.31
503.177	579.41
503.632	585.01
504.088	592.81
504.543	601.31
504.999	618.11
505.455	594.31
505.91	584.51
506.366	586.71
506.821	574.51
507.277	580.31
507.732	585.11
508.187	590.21
508.643	585.61
509.098	589.41
509.553	599.31
510.009	612.41
510.464	606.91
510.919	628.11
511.375	636.31
511.83	636.81
512.285	646.61
512.74	676.31
513.195	696.81
513.65	686.01
514.105	680.61
514.56	689.31
515.015	706.51
515.47	707.21
515.925	706.21
516.38	700.91
516.835	716.51
517.29	698.11
517.745	709.91
518.2	688.71
518.655	671.41
519.109	669.71
519.564	657.31
520.019	645.81
520.474	643.01
520.928	646.71
521.383	640.11
521.838	621.51
522.292	636.21
522.747	641.91
523.201	635.31
523.656	626.91
524.11	624.41
524.565	619.31
525.019	619.31
525.474	619.61
525.928	612.11
526.382	611.51
526.837	614.21
527.291	622.11
527.745	614.51
528.2	613.61
528.654	612.01
529.108	600.11
529.562	606.01
530.016	607.61
530.47	609.81
530.925	604.71
531.379	608.51
531.833	612.21
532.287	609.01
532.741	611.61
533.195	608.51
533.649	619.01
534.103	608.81
534.556	606.21
535.01	617.01
535.464	605.91
535.918	614.11
536.372	615.21
536.826	611.41
537.279	608.61
537.733	609.91
538.187	613.41
538.64	611.51
539.094	627.91
539.548	622.11
540.001	625.71
540.455	621.11
540.908	627.41
541.362	638.91
541.815	642.31
542.269	650.71
542.722	649.11
543.175	653.21
543.629	665.31
544.082	671.51
544.536	675.91
544.989	665.21
545.442	675.01
545.895	684.01
546.349	677.31
546.802	682.21
547.255	684.81
547.708	690.31
548.161	692.91
548.614	698.61
549.067	705.01
549.52	697.91
549.973	688.41
550.426	687.41
550.879	671.51
551.332	675.31
551.785	688.51
552.238	682.71
552.691	687.01
553.144	696.61
553.596	714.21
554.049	718.21
554.502	749.31
554.955	757.31
555.407	755.51
555.86	753.71
556.313	749.11
556.765	734.01
557.218	727.01
557.67	724.91
558.123	720.21
558.576	721.71
559.028	724.21
559.48	732.31
559.933	729.31
560.385	708.81
560.838	681.91
561.29	651.91
561.742	648.31
562.195	644.51
562.647	640.01
563.099	637.51
563.551	644.81
564.004	660.91
564.456	634.11
564.908	627.11
565.36	603.21
565.812	593.21
566.264	588.01
566.716	585.11
567.168	577.61
567.62	578.11
568.072	571.91
568.524	565.31
568.976	565.31
569.428	542.31
569.88	555.31
570.332	553.71
570.784	563.41
571.235	557.91
571.687	560.41
572.139	575.61
572.59	572.41
573.042	568.11
573.494	572.81
573.945	566.01
574.397	548.91
574.849	556.71
575.3	559.01
575.752	548.81
576.203	541.11
576.655	540.41
577.106	531.21
577.557	528.71
578.009	539.81
578.46	531.71
578.912	531.01
579.363	523.21
579.814	526.81
580.265	529.61
580.717	527.11
581.168	533.31
581.619	534.31
582.07	536.71
582.521	536.01
582.972	530.71
583.423	533.41
583.875	528.71
584.326	541.41
584.777	547.91
585.227	563.41
585.678	576.61
586.129	583.41
586.58	605.31
587.031	629.41
587.482	651.51
587.933	682.41
588.384	662.41
588.834	622.41
589.285	610.11
589.736	599.71
590.186	608.01
590.637	609.81
591.088	590.01
591.538	579.31
591.989	566.11
592.439	571.81
592.89	556.91
593.34	545.31
593.791	544.51
594.241	535.61
594.692	548.01
595.142	525.41
595.593	534.51
596.043	541.31
596.493	542.01
596.943	537.51
597.394	555.71
597.844	560.01
598.294	563.71
598.744	580.91
599.195	594.61
599.645	628.01
600.095	658.61
600.545	699.21
600.995	745.41
601.445	782.91
601.895	835.41
602.345	863.01
602.795	858.61
603.245	823.11
603.695	780.11
604.145	735.81
604.594	696.41
605.044	661.01
605.494	612.71
605.944	573.81
606.393	566.71
606.843	552.71
607.293	551.21
607.743	547.11
608.192	559.81
608.642	564.71
609.091	559.81
609.541	569.71
609.99	568.31
610.44	560.21
610.889	544.41
611.339	528.31
611.788	517.81
612.238	515.61
612.687	526.91
613.136	526.51
613.586	526.41
614.035	516.91
614.484	532.51
614.933	527.91
615.383	536.01
615.832	515.31
616.281	523.71
616.73	505.01
617.179	488.81
617.628	484.31
618.077	476.71
618.526	466.41
618.975	459.31
619.424	462.01
619.873	459.81
620.322	461.01
620.771	440.41
621.22	442.51
621.669	436.61
622.118	438.41
622.567	428.91
623.015	421.81
623.464	425.41
623.913	417.01
624.361	414.11
624.81	406.51
625.259	409.71
625.707	412.01
626.156	415.51
626.604	418.01
627.053	417.11
627.501	418.71
627.95	415.01
628.398	425.71
628.847	423.31
629.295	421.11
629.744	419.71
630.192	418.51
630.64	410.31
631.089	409.41
631.537	393.51
631.985	392.31
632.433	397.41
632.881	382.41
633.33	377.71
633.778	373.51
634.226	378.21
634.674	396.01
635.122	391.61
635.57	399.51
636.018	407.61
636.466	412.61
636.914	411.91
637.362	421.21
637.81	426.71
638.258	421.81
638.705	420.11
639.153	444.61
639.601	451.91
640.049	459.21
640.497	489.11
640.944	504.61
641.392	461.41
641.84	444.21
642.287	415.51
642.735	404.61
643.182	404.71
643.63	406.61
644.078	403.51
644.525	418.11
644.973	409.91
645.42	428.41
645.867	442.31
646.315	457.31
646.762	469.21
647.21	479.01
647.657	504.51
648.104	514.81
648.551	529.01
648.999	578.81
649.446	627.91
649.893	677.21
650.34	769.01
650.787	899.21
651.234	1116.11
651.682	1425.01
652.129	1910.51
652.576	2689.81
653.023	3918.71
653.47	5434.91
653.917	6866.91
654.363	8058.31
654.81	9121.21
655.257	8695.61
655.704	5742.31
656.151	3414.71
656.598	2234.01
657.044	1586.61
657.491	1239.01
657.938	997.71
658.385	830.51
658.831	723.51
659.278	663.11
659.724	580.01
660.171	540.31
660.618	493.61
661.064	466.01
661.511	448.21
661.957	440.71
662.404	431.91
662.85	435.81
663.296	420.91
663.743	382.41
664.189	371.31
664.635	382.11
665.082	375.31
665.528	364.61
665.974	366.91
666.42	353.21
666.867	352.51
667.313	337.51
667.759	328.81
668.205	316.81
668.651	310.51
669.097	324.71
669.543	307.21
669.989	309.51
670.435	320.11
670.881	310.71
671.327	321.31
671.773	335.31
672.219	352.71
672.665	387.51
673.11	409.71
673.556	440.01
674.002	472.61
674.448	469.21
674.893	397.61
675.339	338.31
675.785	315.91
676.23	305.01
676.676	280.31
677.122	267.81
677.567	267.21
678.013	262.21
678.458	256.31
678.904	249.81
679.349	240.01
679.794	251.11
680.24	250.11
680.685	247.61
681.131	242.11
681.576	243.11
682.021	253.81
682.466	242.41
682.912	248.61
683.357	248.01
683.802	267.01
684.247	281.31
684.692	314.01
685.137	338.21
685.583	384.31
686.028	401.11
686.473	376.11
686.918	313.11
687.363	296.71
687.807	276.51
688.252	256.91
688.697	253.91
689.142	239.61
689.587	226.71
690.032	234.71
690.477	246.61
690.921	246.91
691.366	264.61
691.811	278.71
692.255	299.11
692.7	326.51
693.145	349.71
693.589	474.51
694.034	767.31
694.478	1075.41
694.923	1247.11
695.367	1691.01
695.812	884.01
696.256	364.01
696.701	264.11
697.145	239.01
697.59	233.71
698.034	226.51
698.478	231.91
698.922	223.31
699.367	223.01
699.811	232.11
700.255	253.81
700.699	263.61
701.143	276.51
701.588	328.61
702.032	366.11
702.476	359.41
702.92	349.41
703.364	342.71
703.808	436.81
704.252	703.31
704.696	1016.11
705.14	1226.81
705.584	1567.91
706.027	780.81
706.471	377.61
706.915	279.11
707.359	249.71
707.803	217.51
708.246	220.51
708.69	220.51
709.134	220.11
709.577	215.51
710.021	227.71
710.465	216.31
710.908	210.11
711.352	210.21
711.795	210.81
712.239	237.31
712.682	258.11
713.126	290.31
713.569	325.31
714.012	251.61
714.456	215.61
714.899	196.61
715.342	196.71
715.786	182.31
716.229	182.91
716.672	180.31
717.115	173.31
717.558	173.11
718.002	174.71
718.445	177.31
718.888	202.21
719.331	198.91
719.774	217.11
720.217	205.71
720.66	199.81
721.103	190.81
721.546	175.71
721.989	171.81
722.432	158.31
722.874	162.61
723.317	155.01
723.76	161.41
724.203	183.71
724.645	221.21
725.088	307.11
725.531	399.01
725.974	468.91
726.416	392.61
726.859	207.71
727.301	171.21
727.744	163.31
728.187	160.11
728.629	165.01
729.071	169.61
729.514	180.11
729.956	191.71
730.399	198.11
730.841	205.31
731.283	194.71
731.726	187.11
732.168	183.91
732.61	187.61
733.053	193.01
733.495	216.11
733.937	245.21
734.379	271.71
734.821	294.61
735.263	371.61
735.705	565.01
736.148	1065.51
736.59	1798.81
737.032	2267.41
737.474	1858.21
737.916	581.41
738.357	309.31
738.799	228.61
739.241	207.01
739.683	196.91
740.125	202.21
740.567	211.41
741.008	228.21
741.45	228.31
741.892	224.91
742.334	250.91
742.775	262.41
743.217	253.91
743.658	190.61
744.1	180.11
744.542	191.51
744.983	231.21
745.425	263.11
745.866	256.41
746.307	202.71
746.749	192.81
747.19	221.71
747.632	305.81
748.073	579.91
748.514	1263.71
748.956	2030.21
749.397	2557.01
749.838	2101.91
750.279	2226.11
750.72	1102.01
751.162	398.51
751.603	233.01
752.044	178.51
752.485	150.51
752.926	144.01
753.367	141.51
753.808	136.51
754.249	131.61
754.69	132.51
755.131	125.41
755.572	121.21
756.013	125.41
756.453	127.81
756.894	127.01
757.335	135.41
757.776	136.11
758.216	133.11
758.657	134.31
759.098	144.51
759.538	155.81
759.979	181.31
760.42	251.41
760.86	473.51
761.301	1234.41
761.741	3102.01
762.182	4897.51
762.622	3502.71
763.063	979.41
763.503	395.31
763.943	235.41
764.384	194.91
764.824	182.71
765.264	172.51
765.705	149.81
766.145	128.71
766.585	125.51
767.025	121.61
767.465	111.71
767.906	124.71
768.346	137.81
768.786	143.61
769.226	149.11
769.666	201.51
770.106	405.11
770.546	1042.41
770.986	1937.71
771.426	1784.81
771.866	570.71
772.306	228.51
772.745	137.31
773.185	112.71
773.625	109.71
774.065	100.51
774.505	110.61
774.944	145.71
775.384	264.41
775.824	460.71
776.263	466.01
776.703	206.61
777.142	106.11
777.582	85.71
778.021	79.61
778.461	83.21
778.9	85.11
779.34	84.71
779.779	70.21
780.219	66.61
780.658	73.11
781.097	76.21
781.537	78.41
781.976	68.81
782.415	69.11
782.855	70.01
783.294	75.11
783.733	65.41
784.172	68.31
784.611	66.01
785.05	76.71
785.489	74.11
785.928	84.61
786.367	81.41
786.806	77.41
787.245	81.01
787.684	86.31
788.123	98.41
788.562	92.01
789.001	84.11
789.44	87.11
789.879	79.31
790.317	81.11
790.756	92.11
791.195	79.81
791.634	96.71
792.072	138.01
792.511	236.21
792.95	660.51
793.388	1516.71
793.827	1450.71
794.265	484.21
794.704	198.11
795.142	127.31
795.581	103.31
796.019	94.51
796.458	84.81
796.896	85.81
797.334	87.91
797.773	110.21
798.211	149.91
798.649	290.01
799.087	691.51
799.526	1141.11
799.964	1432.91
800.402	1526.51
800.84	559.41
801.278	209.41
801.716	133.51
802.154	107.31
802.592	102.91
803.03	94.91
803.468	92.01
803.906	99.71
804.344	97.91
804.782	102.91
805.22	91.51
805.658	94.01
806.096	104.41
806.533	107.01
806.971	121.01
807.409	159.11
807.847	215.81
808.284	446.91
808.722	1298.31
809.16	2426.21
809.597	2255.21
810.035	4028.41
810.472	4553.11
810.91	1613.81
811.347	592.41
811.785	300.41
812.222	183.41
812.66	136.81
813.097	117.11
813.535	95.91
813.972	96.01
814.409	83.51
814.846	74.91
815.284	77.81
815.721	66.01
816.158	71.31
816.595	79.71
817.032	105.11
817.47	138.01
817.907	99.41
818.344	70.51
818.781	65.21
819.218	62.61
819.655	86.61
820.092	143.81
820.529	167.81
820.966	129.81
821.403	95.11
821.839	65.51
822.276	69.91
822.713	87.71
823.15	105.61
823.587	78.21
824.023	100.01
824.46	194.61
824.897	616.11
825.333	1010.11
825.77	438.01
826.206	165.21
826.643	99.71
827.08	73.51
827.516	55.11
827.953	53.51
828.389	60.21
828.825	43.11
829.262	47.61
829.698	43.21
830.135	40.41
830.571	38.51
831.007	50.51
831.443	40.51
831.88	40.21
832.316	34.91
832.752	37.11
833.188	47.11
833.624	47.61
834.06	44.01
834.497	40.41
834.933	43.41
835.369	51.71
835.805	47.11
836.241	51.61
836.677	51.71
837.112	59.71
837.548	68.31
837.984	96.51
838.42	143.81
838.856	336.41
839.292	1082.91
839.727	1754.51
840.163	803.41
840.599	646.31
841.034	1485.41
841.47	1659.21
841.906	592.51
842.341	238.91
842.777	139.41
843.212	148.91
843.648	147.01
844.083	80.41
844.519	53.21
844.954	48.41
845.39	39.91
845.825	35.81
846.261	38.51
846.696	39.61
847.131	36.31
847.566	39.91
848.002	35.21
848.437	36.21
848.872	38.81
849.307	37.31
849.742	58.01
850.177	122.01
850.613	390.21
851.048	650.11
851.483	275.41
851.918	110.81
852.353	57.01
852.788	36.31
853.223	37.01
853.657	35.51
854.092	34.81
854.527	24.51
854.962	26.31
855.397	29.91
855.832	38.51
856.266	26.21
856.701	27.41
857.136	25.81
857.57	30.11
858.005	33.81
858.44	46.81
858.874	31.01
859.309	34.01
859.743	25.31
860.178	36.91
860.612	21.51
861.047	37.41
861.481	51.41
861.915	61.81
862.35	37.51
862.784	20.21
863.218	22.61
863.653	25.31
864.087	37.61
864.521	40.51
864.955	45.51
865.39	99.91
865.824	125.51
866.258	87.31
866.692	135.91
867.126	149.31
867.56	87.11
867.994	38.61
868.428	23.21
868.862	37.71
869.296	45.61
869.73	37.71
870.164	42.11
870.598	40.11
871.031	30.71
871.465	24.51
871.899	27.11
872.333	16.51
872.766	19.41
873.2	14.91
873.634	21.21
874.067	12.11
874.501	18.21
874.935	19.61
875.368	20.21
875.802	18.21
876.235	21.41
876.669	18.91
877.102	15.81
877.535	16.01
877.969	19.61
878.402	11.51
878.836	12.61
879.269	18.81
879.702	13.91
880.135	9.91
880.569	13.61
881.002	18.41
881.435	12.81
881.868	13.61
882.301	15.51
882.734	8.31
883.167	11.11
883.601	14.21
884.034	20.21
884.467	10.61
884.899	11.51
885.332	13.11
885.765	11.31
886.198	9.91
886.631	13.81
887.064	13.61
887.497	14.21
887.929	19.51
888.362	13.51
888.795	4.71
889.228	12.71
889.66	15.01
890.093	7.01
890.526	10.41
890.958	9.11
891.391	16.21
891.823	13.41
892.256	6.91
892.688	8.81
893.121	11.21
893.553	9.01
893.985	15.81
894.418	9.31
894.85	-0.19
895.282	10.11
895.715	7.81
896.147	11.21
896.579	7.71
897.011	11.31
897.444	12.61
897.876	3.51
898.308	7.71
898.74	6.61
899.172	9.21
899.604	16.51
900.036	18.81
900.468	6.11
900.9	9.61
901.332	12.41
901.764	11.41
902.196	15.91
902.628	11.41
903.06	7.81
903.491	22.41
903.923	21.01
904.355	9.31
904.787	18.21
905.218	13.21
905.65	11.51
906.082	7.81
906.513	9.61
906.945	15.71
907.376	11.51
907.808	11.11
908.239	8.01
908.671	7.41
909.102	13.51
909.534	15.21
909.965	33.91
910.397	64.01
910.828	239.51
911.259	365.81
911.691	160.41
912.122	71.41
912.553	34.71
912.984	21.91
913.415	18.71
913.847	18.31
914.278	13.61
914.709	13.21
915.14	10.91
915.571	14.91
916.002	10.71
916.433	14.91
916.864	12.01
917.295	6.41
917.726	10.01
918.157	12.21
918.587	19.91
919.018	11.31
919.449	11.41
919.88	11.01
920.311	21.01
920.741	29.51
921.172	115.91
921.603	109.81
922.033	44.81
922.464	33.81
922.895	11.21
923.325	15.21
923.756	6.21
924.186	6.81
924.617	9.61
925.047	7.21
925.478	18.31
925.908	12.71
926.338	6.11
926.769	9.51
927.199	17.61
927.629	1.81
928.06	13.91
928.49	3.81
928.92	5.81
929.35	5.91
929.78	8.91
930.21	1.81
930.641	7.61
931.071	5.61
931.501	1.41
931.931	6.81
932.361	5.21
932.791	1.91
933.221	2.61
933.651	1.81
934.08	7.61
934.51	19.81
934.94	6.61
935.37	3.61
935.8	8.01
936.229	3.41
936.659	5.11
937.089	0.41
937.519	11.51
937.948	22.51
938.378	12.71
938.807	4.01
939.237	2.61
939.666	5.11
940.096	-5.19
940.525	-0.59
940.955	-1.09
941.384	1.91
941.814	-7.99
942.243	-2.89
942.672	4.31
943.102	0.31
943.531	2.31
943.96	6.21
944.39	-0.49
944.819	2.51
945.248	0.41
945.677	2.31
946.106	2.51
946.535	4.41
946.964	2.41
947.393	-1.39
947.822	0.31
948.251	-6.99
948.68	4.71
949.109	1.41
949.538	-4.79
949.967	0.71
950.396	-0.89
950.825	-5.29
951.254	-1.49
951.682	-6.79
952.111	4.21
952.54	4.91
952.969	0.41
953.397	-10.89
953.826	2.41
954.254	-6.99
954.683	-4.29
955.112	-1.29
955.54	-1.69
955.969	1.61
956.397	-3.69
956.826	-7.99
957.254	4.21
957.682	4.71
958.111	9.01
958.539	-3.09
958.967	4.61
959.396	-4.29
959.824	0.11
960.252	1.31
960.68	-1.49
961.109	-3.49
961.537	-4.69
961.965	-4.89
962.393	2.71
962.821	-3.29
963.249	-1.59
963.677	2.31
964.105	-1.59
964.533	26.41
964.961	32.01
965.389	15.51
965.817	8.61
966.245	-0.59
966.672	-2.69
967.1	-4.79
967.528	-3.49
967.956	-10.29
968.383	0.71
968.811	-1.19
969.239	-3.69
969.666	-6.69
970.094	-2.29
970.522	1.31
970.949	-2.49
971.377	-4.99
971.804	-10.19
972.232	-3.49
972.659	-0.09
973.087	-3.59
973.514	-6.19
973.941	-7.89
974.369	-1.49
974.796	-0.29
975.223	1.01
975.651	-6.59
976.078	-0.99
976.505	-3.29
976.932	4.21
977.359	9.81
977.786	10.31
978.214	-2.79
978.641	-2.29
979.068	-1.19
979.495	-2.89
979.922	0.51
980.349	-1.29
980.776	4.11
981.202	-1.99
981.629	4.51
982.056	2.31
982.483	-1.59
982.91	-0.09
983.337	-9.89
983.763	3.71
984.19	-5.89
984.617	-7.79
985.043	-4.19
985.47	-3.29
985.897	-0.29
986.323	-8.89
986.75	1.51
987.176	-5.39
987.603	-0.09
988.029	0.11
988.456	1.01
988.882	1.71
989.308	-5.59
989.735	-1.99
990.161	6.81
990.587	-5.29
991.014	-3.59
991.44	6.01
991.866	0.31
992.292	-1.69
992.719	-3.29
993.145	-1.79
993.571	-10.19
993.997	-4.79
994.423	2.31
994.849	-2.29
995.275	-1.39
995.701	2.91
996.127	-10.29
996.553	-1.89
996.979	-7.49
997.405	-1.99
997.83	-13.29
998.256	-9.79
998.682	-4.59
999.108	-11.39
999.534	-2.79
999.959	-0.29
1000.385	-6.69
1000.811	-3.39
1001.236	-11.59
1001.662	-6.69
1002.087	-5.99
1002.513	3.71
1002.938	2.21
1003.364	-1.59
1003.789	1.11
1004.215	-2.99
1004.64	-2.49
1005.066	3.61
1005.491	-0.79
1005.916	-5.89
1006.342	-0.19
1006.767	-5.99
1007.192	4.41
1007.617	-5.19
1008.042	-2.59
1008.468	-5.79
1008.893	-7.49
1009.318	-8.19
1009.743	-5.99
1010.168	-0.49
1010.593	1.31
1011.018	-8.49
1011.443	-1.69
1011.868	0.71
1012.293	-8.89
1012.718	-10.79
1013.143	4.21
1013.567	-1.69
1013.992	-8.39
1014.417	-12.59
1014.842	2.91
1015.267	-7.99
1015.691	-5.79
1016.116	4.81
1016.541	0.91
1016.965	-1.79
1017.39	-0.19
1017.814	-1.49
1018.239	-2.79
1018.663	-10.79
1019.088	-13.09
1019.512	-7.69
1019.937	1.71
1020.361	-3.79
1020.785	-5.39
1021.21	-4.09
1021.634	-7.19
1022.058	1.61
1022.483	2.21
1022.907	-4.79
1023.331	-6.29
1023.755	-2.89
1024.179	-1.19
1024.604	-5.49
1025.028	-6.69
1025.452	-0.99
1025.876	-4.29
1026.3	0.91
1026.724	-16.69
1027.148	-6.19
1027.572	-5.89
1027.996	-4.29
1028.42	2.11
1028.843	-5.59
1029.267	-4.89
1029.691	0.61
1030.115	-6.19
1030.539	-3.19
1030.962	-6.79
1031.386	-9.49
1031.81	2.91
1032.233	3.51
1032.657	-4.99
1033.08	-1.79
1033.504	-8.09
1033.927	-7.39
1034.351	-3.19
1034.774	-3.39
1035.198	3.21
1035.621	-8.29
1036.045	-6.49
1036.468	-0.59
1036.891	-7.79
1037.315	-12.09
1037.738	-8.89
1038.161	0.61
1038.584	2.41
1039.008	-7.59
1039.431	-8.59
1039.854	-4.49
1040.277	-6.39
1040.7	-8.99
1041.123	-6.29
1041.546	-7.99
1041.969	-7.79
1042.392	-1.49
1042.815	1.51
1043.238	-1.49
1043.661	5.41
1044.084	-5.99
1044.507	-4.69
1044.93	-1.79
1045.352	-3.29
1045.775	-8.29
1046.198	-1.49
1046.621	-2.99
1047.043	-5.99
1047.466	4.51
1047.889	-7.39
1048.311	-2.49
1048.734	-3.29
1049.156	-5.89
1049.579	0.11
1050.001	-2.19
1050.424	-2.79
1050.846	-4.39
1051.269	-4.39
1051.691	-5.99
1052.113	-6.59
1052.536	-8.49
1052.958	-1.99
1053.38	0.71
1053.802	-14.79
1054.225	0.51
1054.647	-8.99
1055.069	-4.99
1055.491	-5.29
1055.913	-8.99
1056.335	-2.59
1056.757	-0.49
1057.179	-2.89
1057.601	-9.59
1058.023	-5.29
1058.445	-2.09
1058.867	-4.59
1059.289	-3.99
1059.711	-7.19
1060.133	-4.09
1060.555	-7.09
1060.976	-7.89
1061.398	-4.49
1061.82	-3.29
1062.241	-9.39
1062.663	-9.09
1063.085	-2.89
1063.506	-3.39
1063.928	-4.39
1064.35	1.41
1064.771	-10.49
1065.193	-4.19
1065.614	-7.39
1066.035	-3.99
1066.457	-1.49
1066.878	8.01
1067.3	-3.89
1067.721	-4.99
1068.142	-7.39
1068.564	-9.39
1068.985	-4.69
1069.406	-7.99
1069.827	-2.69
1070.248	0.01
1070.67	-8.39
1071.091	-4.79
1071.512	-6.79
1071.933	-6.39
1072.354	-4.29
1072.775	-12.99
1073.196	-4.69
1073.617	-2.89
1074.038	-8.69
1074.459	-1.39
1074.88	-7.99
1075.3	-3.29
1075.721	-5.79
1076.142	-1.19
1076.563	-3.39
1076.983	-11.99
1077.404	-3.49
1077.825	-5.89
1078.246	-3.19
1078.666	-8.09
1079.087	-7.79
1079.507	-8.39
1079.928	1.91
1080.348	4.41
1080.769	-8.19
1081.189	-1.79
1081.61	-2.69
1082.03	-1.99
1082.451	-6.19
1082.871	0.31
1083.291	-11.59
1083.711	-10.89
1084.132	-3.29
1084.552	-0.59
1084.972	-4.09
1085.392	-9.79
1085.813	-8.79
1086.233	-3.49
1086.653	-5.59
1087.073	-3.69
1087.493	-5.29
1087.913	-5.99
1088.333	-9.89
1088.753	-6.49
1089.173	1.41
1089.593	-4.19
1090.013	1.51
1090.433	6.01
1090.852	-3.49
1091.272	-3.29
1091.692	-0.49
1092.112	-2.99
1092.531	-11.69
1092.951	-12.79
1093.371	-6.79
1093.79	-4.09
1094.21	-7.59
1094.63	-8.69
1095.049	-8.59
1095.469	-1.49
1095.888	-3.79
1096.308	-1.19
1096.727	9.81
1097.146	-8.19
1097.566	3.81
1097.985	-4.49
1098.405	-0.79
1098.824	-5.19
1099.243	-5.49
1099.662	-8.39
1100.082	-3.99
1100.501	-0.19
1100.92	-8.89
1101.339	-1.39
1101.758	-7.99
