Data from 20171114-ORNL-Ar_H_NY_Subt18_08-03-33-946.txt Node
Date: Tue Nov 14 08:03:33 EST 2017
User: Ender
Spectrometer: HR+D1039
Trigger mode: 0
Integration Time (sec): 2.730000E-2
Scans to average: 10
Electric dark correction enabled: true
Nonlinearity correction enabled: false
Boxcar width: 0
XAxis mode: Wavelengths
Number of Pixels in Spectrum: 2048
>>>>>Begin Spectral Data<<<<<
187.836	-4.38
188.309	-4.38
188.782	-4.38
189.255	0.42
189.728	2.33
190.201	7.32
190.674	0.42
191.147	2.92
191.619	-6.88
192.092	-0.68
192.565	3.52
193.038	-0.28
193.511	2.82
193.984	-0.48
194.456	-3.98
194.929	2.73
195.402	-0.68
195.874	-5.18
196.347	-0.08
196.82	-10.38
197.292	3.32
197.765	0.12
198.237	-5.98
198.71	3.02
199.182	-2.88
199.655	0.42
200.127	2.42
200.6	1.82
201.072	-1.28
201.544	-2.18
202.017	-5.58
202.489	1.42
202.961	-1.48
203.433	-8.48
203.906	-7.38
204.378	-5.98
204.85	-5.08
205.322	-10.88
205.794	-5.88
206.266	2.12
206.739	-3.78
207.211	0.42
207.683	-5.17
208.155	-6.68
208.627	-5.68
209.099	2.02
209.57	-13.27
210.042	-2.28
210.514	-1.77
210.986	-6.98
211.458	-13.48
211.93	1.02
212.402	4.42
212.873	-4.78
213.345	-9.77
213.817	-18.58
214.288	-5.28
214.76	-17.48
215.232	2.62
215.703	-2.08
216.175	-1.08
216.646	-2.48
217.118	-5.28
217.589	-4.88
218.061	-5.88
218.532	-6.58
219.004	-2.68
219.475	-9.58
219.946	-5.68
220.418	-10.08
220.889	-0.78
221.36	-2.88
221.832	-5.18
222.303	-12.68
222.774	1.92
223.245	-10.88
223.717	-8.48
224.188	-2.58
224.659	-6.58
225.13	-9.58
225.601	-0.98
226.072	-4.08
226.543	-7.58
227.014	-5.58
227.485	-11.18
227.956	-5.88
228.427	-3.48
228.898	-0.48
229.369	0.02
229.839	-3.68
230.31	-8.68
230.781	-2.68
231.252	0.72
231.722	-3.88
232.193	-2.88
232.664	-9.38
233.135	-5.18
233.605	-3.67
234.076	-10.28
234.546	2.42
235.017	5.92
235.487	0.12
235.958	-6.68
236.428	-5.98
236.899	-1.27
237.369	0.62
237.84	-4.58
238.31	3.22
238.78	-4.08
239.251	-7.48
239.721	-1.38
240.191	-6.17
240.662	-4.38
241.132	-1.58
241.602	-6.58
242.072	-6.18
242.542	-5.98
243.013	-10.38
243.483	-0.38
243.953	-2.17
244.423	-5.67
244.893	-9.18
245.363	1.02
245.833	-0.48
246.303	-5.68
246.773	-3.58
247.243	-9.78
247.712	-6.88
248.182	0.72
248.652	-1.18
249.122	-9.08
249.592	-5.48
250.061	-7.88
250.531	5.23
251.001	-1.48
251.471	-3.18
251.94	2.02
252.41	-6.67
252.879	-4.77
253.349	2.92
253.818	2.42
254.288	-0.88
254.757	-4.77
255.227	-12.27
255.696	-4.08
256.166	-2.17
256.635	0.92
257.105	0.52
257.574	-1.88
258.043	-3.38
258.513	-3.58
258.982	0.83
259.451	-9.38
259.92	-5.88
260.389	-3.77
260.859	8.22
261.328	-4.48
261.797	2.02
262.266	-5.68
262.735	2.12
263.204	0.82
263.673	-6.38
264.142	-0.48
264.611	-15.18
265.08	-6.08
265.549	-9.48
266.018	-1.17
266.487	-11.78
266.955	-10.88
267.424	-2.98
267.893	2.42
268.362	-12.77
268.83	-7.98
269.299	-2.27
269.768	-1.08
270.236	-10.27
270.705	-11.98
271.174	-3.58
271.642	-7.88
272.111	-6.88
272.579	-3.18
273.048	-6.88
273.516	-5.18
273.985	-6.77
274.453	2.32
274.922	0.22
275.39	-2.18
275.858	-11.28
276.327	-1.68
276.795	4.62
277.263	-4.68
277.731	3.52
278.2	-0.18
278.668	-2.18
279.136	-2.78
279.604	-7.88
280.072	-3.68
280.54	-2.27
281.008	0.12
281.477	2.02
281.945	-3.08
282.413	0.52
282.881	2.32
283.348	-10.27
283.816	0.62
284.284	-4.58
284.752	9.02
285.22	-0.88
285.688	2.92
286.156	-4.18
286.623	4.12
287.091	-5.88
287.559	-3.78
288.026	1.42
288.494	-2.58
288.962	-12.78
289.429	-6.98
289.897	2.92
290.364	2.02
290.832	-0.67
291.3	-2.98
291.767	2.23
292.234	1.32
292.702	-8.08
293.169	-2.88
293.637	5.12
294.104	0.12
294.571	-10.28
295.039	-7.38
295.506	-10.98
295.973	-7.28
296.44	-6.08
296.908	0.52
297.375	-3.28
297.842	3.02
298.309	-3.68
298.776	-5.67
299.243	1.62
299.71	-2.08
300.177	10.62
300.644	-2.58
301.111	-3.77
301.578	1.82
302.045	-1.98
302.512	-2.27
302.979	2.82
303.446	0.42
303.913	-1.88
304.379	0.32
304.846	8.02
305.313	4.22
305.78	2.42
306.246	0.72
306.713	-2.28
307.18	3.42
307.646	2.12
308.113	0.82
308.579	-7.88
309.046	-5.67
309.512	6.73
309.979	-4.58
310.445	-3.48
310.912	4.72
311.378	4.32
311.845	3.33
312.311	-4.08
312.777	4.82
313.244	2.42
313.71	6.62
314.176	-0.38
314.642	-0.58
315.109	2.72
315.575	5.73
316.041	9.52
316.507	0.72
316.973	6.02
317.439	3.62
317.905	2.02
318.371	4.72
318.837	5.92
319.303	5.62
319.769	1.23
320.235	0.52
320.701	4.02
321.167	2.62
321.633	4.83
322.099	10.22
322.564	8.92
323.03	3.32
323.496	8.02
323.962	5.83
324.427	2.32
324.893	5.82
325.359	3.32
325.824	4.72
326.29	3.12
326.755	9.62
327.221	7.62
327.686	0.22
328.152	5.62
328.617	2.32
329.083	10.02
329.548	12.92
330.014	7.42
330.479	3.92
330.944	4.42
331.41	6.42
331.875	12.52
332.34	4.82
332.805	5.72
333.271	7.42
333.736	3.52
334.201	7.62
334.666	7.52
335.131	8.22
335.596	8.72
336.061	8.22
336.526	0.22
336.991	3.42
337.456	14.52
337.921	7.02
338.386	9.82
338.851	8.52
339.316	14.32
339.781	2.73
340.246	5.32
340.711	7.32
341.175	8.02
341.64	3.23
342.105	13.62
342.569	9.32
343.034	8.52
343.499	13.02
343.963	5.62
344.428	16.12
344.893	9.02
345.357	13.42
345.822	13.62
346.286	11.32
346.751	18.23
347.215	10.12
347.679	11.42
348.144	18.62
348.608	14.42
349.073	8.62
349.537	20.23
350.001	14.62
350.465	15.12
350.93	21.02
351.394	16.62
351.858	9.42
352.322	19.42
352.786	13.23
353.25	20.92
353.715	25.82
354.179	21.92
354.643	24.02
355.107	22.92
355.571	25.32
356.035	21.22
356.498	29.92
356.962	21.02
357.426	33.12
357.89	22.02
358.354	12.32
358.818	16.92
359.281	16.02
359.745	18.52
360.209	16.23
360.673	13.52
361.136	20.92
361.6	17.32
362.064	23.23
362.527	19.32
362.991	26.32
363.454	15.52
363.918	15.72
364.381	8.82
364.845	11.92
365.308	23.62
365.772	24.22
366.235	14.02
366.698	15.02
367.162	14.52
367.625	13.92
368.088	19.52
368.552	24.02
369.015	20.32
369.478	20.92
369.941	25.62
370.404	20.22
370.867	21.82
371.331	24.52
371.794	19.92
372.257	19.73
372.72	26.42
373.183	22.82
373.646	20.32
374.109	21.73
374.572	25.22
375.035	19.22
375.497	21.52
375.96	22.32
376.423	25.22
376.886	22.23
377.349	27.52
377.811	24.23
378.274	28.42
378.737	26.02
379.199	28.52
379.662	32.22
380.125	27.02
380.587	20.73
381.05	27.33
381.512	27.32
381.975	32.92
382.437	30.52
382.9	24.82
383.362	29.92
383.825	27.83
384.287	31.32
384.75	27.52
385.212	33.52
385.674	33.22
386.136	31.73
386.599	27.72
387.061	31.12
387.523	29.32
387.985	30.82
388.447	35.22
388.91	35.73
389.372	35.23
389.834	41.82
390.296	29.02
390.758	33.12
391.22	40.62
391.682	42.82
392.144	39.52
392.606	42.62
393.068	38.62
393.529	44.32
393.991	34.12
394.453	26.72
394.915	40.52
395.377	38.42
395.838	33.02
396.3	35.52
396.762	44.73
397.224	31.92
397.685	30.42
398.147	41.52
398.608	31.52
399.07	27.73
399.531	31.52
399.993	30.83
400.454	46.92
400.916	42.12
401.377	34.92
401.839	38.82
402.3	30.62
402.762	49.32
403.223	50.32
403.684	40.72
404.145	44.32
404.607	40.52
405.068	43.32
405.529	41.02
405.99	44.62
406.451	37.52
406.913	43.92
407.374	39.92
407.835	31.32
408.296	40.33
408.757	43.62
409.218	49.82
409.679	45.42
410.14	52.52
410.601	45.72
411.062	52.52
411.522	57.32
411.983	48.62
412.444	45.32
412.905	54.62
413.366	49.82
413.826	58.12
414.287	70.12
414.748	98.62
415.208	85.72
415.669	64.62
416.13	65.52
416.59	71.12
417.051	74.02
417.511	81.72
417.972	88.23
418.432	86.42
418.893	111.02
419.353	88.92
419.814	63.52
420.274	62.02
420.734	54.32
421.195	55.32
421.655	47.23
422.115	62.82
422.576	60.62
423.036	57.62
423.496	67.32
423.956	68.12
424.416	73.12
424.876	87.22
425.336	72.92
425.797	81.22
426.257	75.22
426.717	64.12
427.177	73.42
427.637	60.12
428.097	56.62
428.556	57.73
429.016	73.52
429.476	60.32
429.936	65.33
430.396	61.92
430.856	60.82
431.315	67.92
431.775	80.72
432.235	99.52
432.694	81.42
433.154	84.12
433.614	85.82
434.073	76.02
434.533	70.12
434.993	59.92
435.452	70.42
435.912	71.82
436.371	66.33
436.83	63.73
437.29	70.72
437.749	64.42
438.209	62.62
438.668	74.22
439.127	70.92
439.587	70.12
440.046	66.73
440.505	68.73
440.964	77.82
441.424	81.82
441.883	84.42
442.342	79.12
442.801	61.12
443.26	69.42
443.719	63.12
444.178	71.02
444.637	60.02
445.096	66.62
445.555	67.42
446.014	66.32
446.473	74.23
446.932	72.12
447.391	65.52
447.849	67.32
448.308	62.62
448.767	60.82
449.226	78.32
449.685	74.22
450.143	78.22
450.602	68.62
451.061	60.72
451.519	67.02
451.978	70.42
452.436	58.12
452.895	66.83
453.353	73.92
453.812	71.23
454.27	75.12
454.729	74.12
455.187	64.22
455.646	75.32
456.104	73.73
456.562	78.92
457.021	76.72
457.479	75.12
457.937	76.22
458.395	80.52
458.854	80.02
459.312	74.32
459.77	73.92
460.228	72.92
460.686	71.72
461.144	81.22
461.602	76.22
462.06	72.82
462.518	73.42
462.976	73.12
463.434	69.23
463.892	72.92
464.35	76.82
464.808	83.92
465.266	76.32
465.724	75.02
466.181	81.42
466.639	76.02
467.097	88.82
467.555	84.52
468.012	93.62
468.47	88.62
468.928	95.02
469.385	103.83
469.843	91.42
470.3	99.62
470.758	95.23
471.215	102.62
471.673	105.02
472.13	106.92
472.588	115.23
473.045	101.83
473.503	105.33
473.96	105.62
474.417	106.22
474.875	110.12
475.332	128.62
475.789	122.02
476.246	117.82
476.704	120.12
477.161	122.12
477.618	119.62
478.075	129.92
478.532	131.32
478.989	139.42
479.446	152.92
479.903	143.23
480.36	134.52
480.817	131.32
481.274	141.12
481.731	136.72
482.188	138.12
482.645	149.62
483.102	148.22
483.558	156.52
484.015	165.12
484.472	158.02
484.929	156.82
485.385	159.92
485.842	164.52
486.299	164.92
486.755	183.12
487.212	168.62
487.668	148.42
488.125	158.42
488.582	154.23
489.038	157.02
489.494	149.62
489.951	145.62
490.407	159.02
490.864	144.22
491.32	160.32
491.776	164.32
492.233	160.02
492.689	150.82
493.145	154.82
493.602	151.52
494.058	157.12
494.514	159.83
494.97	166.62
495.426	167.23
495.882	161.42
496.338	151.02
496.794	162.42
497.251	155.62
497.707	167.12
498.163	160.52
498.618	164.02
499.074	161.32
499.53	162.82
499.986	173.22
500.442	168.62
500.898	161.12
501.354	166.02
501.809	164.62
502.265	165.42
502.721	174.22
503.177	180.62
503.632	180.62
504.088	173.42
504.543	182.02
504.999	176.82
505.455	169.82
505.91	170.32
506.366	175.32
506.821	165.12
507.277	165.82
507.732	173.22
508.187	173.82
508.643	172.42
509.098	173.12
509.553	183.82
510.009	180.82
510.464	173.22
510.919	186.32
511.375	183.22
511.83	194.22
512.285	181.02
512.74	200.23
513.195	206.73
513.65	209.03
514.105	215.32
514.56	204.72
515.015	222.72
515.47	219.62
515.925	215.62
516.38	218.23
516.835	220.42
517.29	221.03
517.745	216.92
518.2	210.22
518.655	200.02
519.109	198.53
519.564	202.83
520.019	187.42
520.474	182.62
520.928	184.32
521.383	186.52
521.838	185.42
522.292	195.93
522.747	192.62
523.201	194.62
523.656	181.62
524.11	183.62
524.565	179.52
525.019	169.12
525.474	175.22
525.928	180.73
526.382	178.32
526.837	178.12
527.291	177.32
527.745	179.72
528.2	184.32
528.654	175.32
529.108	170.42
529.562	174.42
530.016	169.92
530.47	165.92
530.925	167.22
531.379	169.42
531.833	173.82
532.287	165.12
532.741	170.42
533.195	170.82
533.649	167.02
534.103	176.32
534.556	168.82
535.01	171.82
535.464	161.22
535.918	170.33
536.372	165.42
536.826	173.42
537.279	166.12
537.733	171.62
538.187	172.62
538.64	166.62
539.094	174.82
539.548	178.32
540.001	173.62
540.455	176.52
540.908	179.72
541.362	177.82
541.815	183.73
542.269	184.82
542.722	183.82
543.175	189.92
543.629	191.62
544.082	192.82
544.536	195.23
544.989	194.42
545.442	197.12
545.895	194.02
546.349	196.92
546.802	205.12
547.255	201.73
547.708	203.02
548.161	205.92
548.614	214.42
549.067	214.12
549.52	205.02
549.973	197.92
550.426	197.32
550.879	191.02
551.332	190.92
551.785	192.82
552.238	192.42
552.691	203.42
553.144	200.02
553.596	205.62
554.049	212.02
554.502	228.52
554.955	227.32
555.407	222.12
555.86	211.73
556.313	218.62
556.765	210.62
557.218	214.42
557.67	203.72
558.123	202.72
558.576	205.62
559.028	209.33
559.48	208.83
559.933	210.23
560.385	203.92
560.838	197.62
561.29	186.12
561.742	180.73
562.195	170.62
562.647	178.02
563.099	185.72
563.551	180.23
564.004	190.52
564.456	177.72
564.908	178.72
565.36	168.72
565.812	160.22
566.264	161.62
566.716	164.02
567.168	158.62
567.62	167.12
568.072	151.52
568.524	154.02
568.976	155.02
569.428	145.62
569.88	144.52
570.332	152.62
570.784	159.52
571.235	150.32
571.687	155.73
572.139	161.92
572.59	161.72
573.042	160.72
573.494	163.12
573.945	155.22
574.397	149.23
574.849	148.72
575.3	152.32
575.752	150.62
576.203	145.82
576.655	150.32
577.106	148.23
577.557	144.23
578.009	141.62
578.46	138.32
578.912	140.32
579.363	137.02
579.814	142.22
580.265	137.22
580.717	130.62
581.168	137.52
581.619	144.12
582.07	145.12
582.521	144.62
582.972	139.02
583.423	143.82
583.875	142.82
584.326	146.12
584.777	148.52
585.227	157.02
585.678	149.32
586.129	155.82
586.58	157.02
587.031	166.62
587.482	176.82
587.933	174.23
588.384	172.72
588.834	173.52
589.285	180.82
589.736	172.72
590.186	164.72
590.637	168.32
591.088	159.02
591.538	165.62
591.989	156.73
592.439	159.22
592.89	162.42
593.34	141.92
593.791	138.72
594.241	136.62
594.692	145.12
595.142	137.23
595.593	142.62
596.043	142.12
596.493	146.82
596.943	145.42
597.394	151.42
597.844	150.32
598.294	146.12
598.744	168.32
599.195	173.12
599.645	186.73
600.095	186.92
600.545	204.72
600.995	228.02
601.445	254.12
601.895	259.42
602.345	282.43
602.795	265.32
603.245	241.33
603.695	220.83
604.145	205.12
604.594	195.33
605.044	184.82
605.494	162.92
605.944	151.52
606.393	158.62
606.843	149.42
607.293	150.02
607.743	148.73
608.192	150.42
608.642	159.73
609.091	157.02
609.541	166.02
609.99	157.02
610.44	157.92
610.889	144.02
611.339	145.62
611.788	121.92
612.238	130.92
612.687	159.42
613.136	148.12
613.586	150.02
614.035	139.73
614.484	142.22
614.933	136.82
615.383	149.52
615.832	149.33
616.281	139.23
616.73	140.73
617.179	135.52
617.628	130.42
618.077	116.12
618.526	121.32
618.975	120.92
619.424	130.02
619.873	119.73
620.322	131.62
620.771	120.32
621.22	125.62
621.669	120.02
622.118	111.92
622.567	99.12
623.015	103.52
623.464	112.32
623.913	101.32
624.361	104.22
624.81	103.92
625.259	100.62
625.707	105.42
626.156	101.42
626.604	114.22
627.053	108.62
627.501	113.92
627.95	111.42
628.398	116.02
628.847	105.02
629.295	106.92
629.744	115.82
630.192	112.92
630.64	107.12
631.089	97.42
631.537	94.73
631.985	95.73
632.433	101.82
632.881	94.33
633.33	100.02
633.778	96.72
634.226	93.12
634.674	99.92
635.122	100.42
635.57	105.92
636.018	105.82
636.466	109.32
636.914	106.92
637.362	106.73
637.81	113.72
638.258	106.02
638.705	105.82
639.153	113.12
639.601	116.02
640.049	125.82
640.497	135.72
640.944	147.52
641.392	118.12
641.84	104.02
642.287	99.23
642.735	85.62
643.182	88.73
643.63	91.72
644.078	82.73
644.525	87.62
644.973	88.42
645.42	90.22
645.867	92.52
646.315	90.33
646.762	89.33
647.21	91.52
647.657	89.32
648.104	95.12
648.551	84.62
648.999	79.73
649.446	81.52
649.893	85.22
650.34	87.32
650.787	81.62
651.234	96.32
651.682	88.23
652.129	91.12
652.576	87.82
653.023	108.82
653.47	106.22
653.917	111.12
654.363	117.02
654.81	122.92
655.257	124.62
655.704	100.42
656.151	89.72
656.598	87.32
657.044	82.52
657.491	76.22
657.938	85.82
658.385	86.92
658.831	89.92
659.278	95.02
659.724	75.82
660.171	87.72
660.618	79.02
661.064	82.62
661.511	80.32
661.957	75.32
662.404	76.12
662.85	94.23
663.296	85.72
663.743	87.52
664.189	83.72
664.635	79.02
665.082	89.02
665.528	81.12
665.974	77.32
666.42	79.82
666.867	82.12
667.313	70.12
667.759	79.62
668.205	70.92
668.651	79.02
669.097	82.52
669.543	63.82
669.989	71.72
670.435	77.73
670.881	68.92
671.327	86.62
671.773	79.92
672.219	85.62
672.665	102.22
673.11	109.72
673.556	127.42
674.002	140.82
674.448	134.02
674.893	104.73
675.339	91.52
675.785	83.02
676.23	77.32
676.676	65.02
677.122	64.32
677.567	65.92
678.013	71.32
678.458	60.23
678.904	58.73
679.349	50.23
679.794	58.42
680.24	58.22
680.685	54.22
681.131	59.22
681.576	61.42
682.021	64.32
682.466	57.92
682.912	56.52
683.357	56.23
683.802	70.33
684.247	70.32
684.692	87.12
685.137	96.62
685.583	110.22
686.028	117.82
686.473	101.72
686.918	83.62
687.363	72.92
687.807	72.52
688.252	66.72
688.697	66.62
689.142	55.02
689.587	50.92
690.032	45.32
690.477	55.32
690.921	56.32
691.366	75.02
691.811	72.12
692.255	83.92
692.7	97.23
693.145	93.83
693.589	146.92
694.034	246.52
694.478	359.33
694.923	436.12
695.367	590.23
695.812	286.83
696.256	100.22
696.701	64.62
697.145	64.32
697.59	62.02
698.034	58.62
698.478	63.73
698.922	55.92
699.367	61.23
699.811	61.12
700.255	69.42
700.699	78.62
701.143	86.52
701.588	100.82
702.032	111.92
702.476	108.92
702.92	94.33
703.364	90.62
703.808	135.42
704.252	232.42
704.696	336.53
705.14	423.62
705.584	550.12
706.027	256.92
706.471	102.12
706.915	68.92
707.359	67.22
707.803	51.52
708.246	57.52
708.69	57.42
709.134	57.62
709.577	58.92
710.021	62.62
710.465	54.82
710.908	49.32
711.352	47.32
711.795	54.92
712.239	67.92
712.682	70.32
713.126	82.22
713.569	95.62
714.012	71.92
714.456	60.92
714.899	49.32
715.342	45.62
715.786	39.62
716.229	48.72
716.672	48.22
717.115	41.82
717.558	39.42
718.002	36.22
718.445	43.32
718.888	59.32
719.331	51.33
719.774	59.12
720.217	57.12
720.66	49.12
721.103	47.92
721.546	47.62
721.989	46.12
722.432	25.82
722.874	37.22
723.317	34.82
723.76	36.72
724.203	48.02
724.645	67.32
725.088	91.42
725.531	125.22
725.974	145.02
726.416	118.42
726.859	58.82
727.301	39.02
727.744	35.42
728.187	34.12
728.629	41.02
729.071	41.73
729.514	49.12
729.956	46.92
730.399	56.42
730.841	58.52
731.283	43.33
731.726	46.92
732.168	43.42
732.61	45.82
733.053	43.83
733.495	53.92
733.937	68.92
734.379	83.72
734.821	82.42
735.263	103.02
735.705	187.62
736.148	357.52
736.59	623.62
737.032	773.62
737.474	627.62
737.916	179.32
738.357	91.62
738.799	63.02
739.241	49.12
739.683	45.22
740.125	59.22
740.567	55.52
741.008	61.42
741.45	66.32
741.892	60.32
742.334	70.02
742.775	74.82
743.217	64.72
743.658	44.92
744.1	45.02
744.542	40.82
744.983	61.42
745.425	63.92
745.866	66.92
746.307	50.42
746.749	50.73
747.19	61.23
747.632	93.83
748.073	183.22
748.514	442.33
748.956	708.92
749.397	875.02
749.838	728.22
750.279	768.83
750.72	350.82
751.162	123.73
751.603	64.62
752.044	45.92
752.485	35.73
752.926	30.52
753.367	35.22
753.808	33.42
754.249	26.62
754.69	27.52
755.131	28.12
755.572	26.82
756.013	34.42
756.453	29.32
756.894	35.92
757.335	31.92
757.776	34.92
758.216	35.92
758.657	33.33
759.098	30.92
759.538	36.23
759.979	39.22
760.42	66.32
760.86	139.82
761.301	411.32
761.741	1036.22
762.182	1639.62
762.622	1162.62
763.063	306.42
763.503	108.32
763.943	58.32
764.384	48.02
764.824	44.92
765.264	31.12
765.705	35.82
766.145	32.02
766.585	28.02
767.025	28.52
767.465	24.42
767.906	30.42
768.346	38.52
768.786	28.82
769.226	28.73
769.666	56.92
770.106	124.52
770.546	363.12
770.986	684.33
771.426	619.62
771.866	182.02
772.306	68.52
772.745	32.72
773.185	26.12
773.625	31.32
774.065	23.52
774.505	35.02
774.944	32.02
775.384	60.02
775.824	107.42
776.263	110.73
776.703	41.42
777.142	21.32
777.582	22.72
778.021	16.52
778.461	26.62
778.9	27.02
779.34	32.23
779.779	11.52
780.219	5.02
780.658	13.02
781.097	6.73
781.537	21.22
781.976	18.52
782.415	17.72
782.855	14.52
783.294	11.33
783.733	13.92
784.172	23.22
784.611	13.52
785.05	14.72
785.489	16.62
785.928	17.82
786.367	20.72
786.806	20.82
787.245	19.92
787.684	22.62
788.123	30.62
788.562	17.92
789.001	22.23
789.44	18.32
789.879	15.42
790.317	15.42
790.756	20.42
791.195	13.33
791.634	22.23
792.072	36.52
792.511	67.42
792.95	219.62
793.388	530.12
793.827	504.02
794.265	149.72
794.704	55.82
795.142	33.83
795.581	27.02
796.019	25.02
796.458	20.92
796.896	22.02
797.334	19.02
797.773	29.42
798.211	47.72
798.649	92.82
799.087	248.33
799.526	383.82
799.964	502.83
800.402	534.23
800.84	184.72
801.278	59.92
801.716	34.62
802.154	30.12
802.592	29.23
803.03	23.12
803.468	18.33
803.906	22.73
804.344	29.92
804.782	17.02
805.22	15.12
805.658	19.02
806.096	25.83
806.533	30.32
806.971	33.52
807.409	39.12
807.847	54.82
808.284	130.02
808.722	448.02
809.16	845.23
809.597	738.22
810.035	1326.12
810.472	1510.32
810.91	524.82
811.347	183.02
811.785	84.42
812.222	56.72
812.66	37.33
813.097	33.22
813.535	29.52
813.972	21.82
814.409	23.02
814.846	19.12
815.284	22.82
815.721	13.92
816.158	16.52
816.595	20.73
817.032	30.92
817.47	32.82
817.907	32.73
818.344	21.32
818.781	15.92
819.218	7.92
819.655	19.62
820.092	31.52
820.529	28.32
820.966	20.73
821.403	16.32
821.839	15.82
822.276	15.42
822.713	17.72
823.15	19.62
823.587	12.62
824.023	30.72
824.46	60.62
824.897	210.52
825.333	356.42
825.77	143.92
826.206	47.12
826.643	31.92
827.08	21.02
827.516	11.42
827.953	9.72
828.389	17.12
828.825	8.92
829.262	12.32
829.698	0.22
830.135	7.62
830.571	7.92
831.007	7.92
831.443	17.62
831.88	5.83
832.316	9.82
832.752	9.52
833.188	8.83
833.624	2.52
834.06	6.23
834.497	11.32
834.933	14.42
835.369	13.02
835.805	7.92
836.241	13.82
836.677	8.92
837.112	14.52
837.548	13.02
837.984	18.42
838.42	33.12
838.856	104.72
839.292	370.02
839.727	601.72
840.163	260.72
840.599	215.02
841.034	520.52
841.47	567.83
841.906	186.83
842.341	68.82
842.777	33.33
843.212	32.02
843.648	32.62
844.083	17.32
844.519	13.42
844.954	15.52
845.39	2.92
845.825	4.32
846.261	8.33
846.696	5.12
847.131	7.73
847.566	12.42
848.002	5.62
848.437	4.82
848.872	9.73
849.307	3.23
849.742	6.62
850.177	36.73
850.613	127.23
851.048	225.42
851.483	85.22
851.918	21.32
852.353	10.72
852.788	6.92
853.223	5.12
853.657	11.12
854.092	9.73
854.527	2.82
854.962	5.52
855.397	4.92
855.832	11.82
856.266	5.73
856.701	2.73
857.136	-0.88
857.57	8.52
858.005	8.73
858.44	10.72
858.874	3.33
859.309	15.83
859.743	-1.18
860.178	1.42
860.612	0.82
861.047	6.02
861.481	4.02
861.915	5.62
862.35	4.82
862.784	2.82
863.218	4.42
863.653	-1.28
864.087	9.62
864.521	8.62
864.955	7.62
865.39	37.62
865.824	40.73
866.258	25.02
866.692	27.12
867.126	33.42
867.56	12.02
867.994	6.32
868.428	4.92
868.862	3.52
869.296	12.33
869.73	17.12
870.164	5.62
870.598	3.23
871.031	1.72
871.465	3.82
871.899	1.23
872.333	2.42
872.766	2.02
873.2	-0.78
873.634	3.12
874.067	0.12
874.501	0.92
874.935	9.72
875.368	2.62
875.802	2.92
876.235	2.02
876.669	-0.18
877.102	2.92
877.535	0.02
877.969	1.23
878.402	0.82
878.836	-6.08
879.269	-2.77
879.702	3.52
880.135	1.32
880.569	-1.78
881.002	0.83
881.435	-1.38
881.868	-3.48
882.301	0.42
882.734	-1.68
883.167	4.62
883.601	-1.88
884.034	0.82
884.467	-4.08
884.899	-2.18
885.332	-3.77
885.765	0.23
886.198	-0.88
886.631	-1.48
887.064	-1.28
887.497	1.52
887.929	5.02
888.362	-3.28
888.795	-5.48
889.228	4.32
889.66	2.12
890.093	4.32
890.526	-2.08
890.958	-3.58
891.391	-3.27
891.823	3.42
892.256	-1.08
892.688	-1.28
893.121	0.12
893.553	0.92
893.985	3.52
894.418	0.92
894.85	2.02
895.282	2.72
895.715	2.32
896.147	2.42
896.579	-3.88
897.011	-3.77
897.444	1.02
897.876	-0.77
898.308	3.12
898.74	-1.67
899.172	-2.27
899.604	3.23
900.036	5.02
900.468	-4.58
900.9	-7.98
901.332	9.92
901.764	-4.58
902.196	3.02
902.628	3.22
903.06	1.32
903.491	0.52
903.923	-1.48
904.355	-1.67
904.787	4.12
905.218	-0.77
905.65	2.42
906.082	-2.58
906.513	-5.98
906.945	-4.78
907.376	-7.08
907.808	0.92
908.239	5.23
908.671	-0.68
909.102	3.02
909.534	3.33
909.965	12.32
910.397	14.42
910.828	85.62
911.259	126.92
911.691	51.92
912.122	23.92
912.553	4.92
912.984	13.52
913.415	6.62
913.847	5.92
914.278	-7.68
914.709	-7.08
915.14	2.83
915.571	2.72
916.002	-6.38
916.433	7.02
916.864	3.42
917.295	-2.38
917.726	8.82
918.157	-1.98
918.587	5.12
919.018	6.33
919.449	3.73
919.88	5.02
920.311	9.32
920.741	3.92
921.172	42.02
921.603	28.22
922.033	11.22
922.464	5.73
922.895	-0.48
923.325	5.62
923.756	0.62
924.186	-0.58
924.617	-2.88
925.047	-8.38
925.478	-10.58
925.908	-0.58
926.338	-2.48
926.769	1.02
927.199	7.42
927.629	-4.68
928.06	2.62
928.49	-0.38
928.92	-3.98
929.35	-2.58
929.78	1.52
930.21	-1.18
930.641	4.32
931.071	1.32
931.501	-4.77
931.931	-3.08
932.361	-3.48
932.791	-5.38
933.221	-5.98
933.651	-2.67
934.08	-2.58
934.51	13.42
934.94	-4.88
935.37	-2.17
935.8	5.62
936.229	-1.88
936.659	2.02
937.089	-4.77
937.519	0.62
937.948	4.62
938.378	1.12
938.807	-3.28
939.237	-1.88
939.666	5.62
940.096	-6.68
940.525	1.62
940.955	-0.88
941.384	-3.88
941.814	-7.88
942.243	-6.18
942.672	-0.78
943.102	-7.98
943.531	-6.27
943.96	8.12
944.39	-4.58
944.819	-4.78
945.248	-0.08
945.677	-1.58
946.106	-1.68
946.535	3.02
946.964	-6.08
947.393	-2.18
947.822	-6.98
948.251	-4.28
948.68	2.33
949.109	6.42
949.538	1.42
949.967	-0.88
950.396	-3.28
950.825	-6.38
951.254	-7.58
951.682	-8.08
952.111	-4.58
952.54	5.73
952.969	-6.58
953.397	-13.28
953.826	-2.78
954.254	-6.58
954.683	3.92
955.112	-7.27
955.54	-2.98
955.969	-2.38
956.397	-0.48
956.826	-3.48
957.254	1.92
957.682	-7.08
958.111	-0.68
958.539	-4.08
958.967	-4.58
959.396	6.92
959.824	-1.38
960.252	0.62
960.68	-8.98
961.109	-2.58
961.537	-8.68
961.965	-4.68
962.393	-2.27
962.821	-7.88
963.249	-8.68
963.677	0.12
964.105	-2.68
964.533	8.73
964.961	9.72
965.389	2.92
965.817	0.62
966.245	-3.78
966.672	-1.67
967.1	-7.27
967.528	4.12
967.956	-9.77
968.383	-1.28
968.811	-1.08
969.239	-2.48
969.666	-8.77
970.094	-0.88
970.522	-3.68
970.949	-1.38
971.377	-1.98
971.804	-8.27
972.232	-2.68
972.659	-4.38
973.087	-5.48
973.514	-5.68
973.941	-7.78
974.369	6.42
974.796	-3.98
975.223	-2.18
975.651	-9.27
976.078	3.12
976.505	1.62
976.932	0.62
977.359	-3.98
977.786	2.22
978.214	-6.28
978.641	-8.68
979.068	-6.68
979.495	-3.58
979.922	-2.88
980.349	-2.48
980.776	2.82
981.202	1.22
981.629	1.02
982.056	4.12
982.483	-11.38
982.91	3.42
983.337	-8.38
983.763	-0.08
984.19	-1.58
984.617	-5.88
985.043	-10.88
985.47	-3.77
985.897	-5.98
986.323	-7.08
986.75	0.33
987.176	-4.88
987.603	-4.28
988.029	-2.68
988.456	-7.08
988.882	6.42
989.308	-10.38
989.735	-6.28
990.161	-1.38
990.587	-4.38
991.014	-0.18
991.44	2.82
991.866	-3.38
992.292	-8.77
992.719	-8.78
993.145	0.92
993.571	-8.27
993.997	-1.98
994.423	-2.68
994.849	-5.58
995.275	1.12
995.701	0.62
996.127	-4.28
996.553	-0.08
996.979	-4.27
997.405	-4.98
997.83	-6.48
998.256	-10.18
998.682	-8.08
999.108	-13.88
999.534	-3.38
999.959	-9.88
1000.385	-10.28
1000.811	1.52
1001.236	-13.98
1001.662	-7.38
1002.087	-9.08
1002.513	-1.98
1002.938	0.73
1003.364	-2.98
1003.789	4.23
1004.215	3.92
1004.64	-2.98
1005.066	0.42
1005.491	-2.17
1005.916	-12.68
1006.342	-10.08
1006.767	-12.08
1007.192	-3.18
1007.617	-4.28
1008.042	-6.77
1008.468	-7.08
1008.893	-10.58
1009.318	-5.08
1009.743	-6.68
1010.168	-1.38
1010.593	-6.08
1011.018	-8.58
1011.443	-1.68
1011.868	3.52
1012.293	-4.98
1012.718	-5.27
1013.143	-4.68
1013.567	3.72
1013.992	0.12
1014.417	-14.08
1014.842	-3.28
1015.267	-12.88
1015.691	-4.58
1016.116	3.32
1016.541	-1.28
1016.965	-1.48
1017.39	0.62
1017.814	-0.27
1018.239	-4.08
1018.663	-10.48
1019.088	-11.48
1019.512	-8.08
1019.937	0.82
1020.361	-7.98
1020.785	-8.28
1021.21	0.92
1021.634	-2.48
1022.058	-0.38
1022.483	-1.58
1022.907	-2.18
1023.331	-3.27
1023.755	-7.88
1024.179	-1.88
1024.604	-7.88
1025.028	-11.68
1025.452	-2.58
1025.876	-3.98
1026.3	-0.48
1026.724	-13.68
1027.148	-6.08
1027.572	-3.48
1027.996	-6.28
1028.42	-0.98
1028.843	-0.78
1029.267	-8.28
1029.691	-0.88
1030.115	-8.28
1030.539	-12.08
1030.962	-5.18
1031.386	-7.27
1031.81	0.52
1032.233	0.82
1032.657	2.92
1033.08	-3.28
1033.504	-10.38
1033.927	-1.88
1034.351	1.83
1034.774	-6.98
1035.198	-4.38
1035.621	-5.48
1036.045	-6.08
1036.468	-2.88
1036.891	-12.98
1037.315	-10.78
1037.738	-9.68
1038.161	-0.48
1038.584	-11.18
1039.008	-3.88
1039.431	-3.58
1039.854	-4.28
1040.277	-13.08
1040.7	-5.48
1041.123	-3.88
1041.546	-13.17
1041.969	-5.98
1042.392	-5.68
1042.815	-4.98
1043.238	-1.98
1043.661	-3.18
1044.084	-3.77
1044.507	-0.98
1044.93	-8.98
1045.352	-6.58
1045.775	-3.18
1046.198	-2.98
1046.621	-2.48
1047.043	-2.98
1047.466	4.82
1047.889	-3.38
1048.311	-7.98
1048.734	-5.98
1049.156	-6.77
1049.579	-4.98
1050.001	-1.18
1050.424	3.02
1050.846	-1.18
1051.269	0.42
1051.691	-7.27
1052.113	-7.48
1052.536	-1.38
1052.958	-7.38
1053.38	-7.58
1053.802	-15.88
1054.225	5.62
1054.647	-9.88
1055.069	-5.88
1055.491	-3.18
1055.913	-6.78
1056.335	-7.38
1056.757	-2.77
1057.179	-7.88
1057.601	-9.58
1058.023	-2.88
1058.445	-10.38
1058.867	2.92
1059.289	-4.78
1059.711	-7.98
1060.133	-6.28
1060.555	-7.48
1060.976	-9.48
1061.398	-9.08
1061.82	-1.98
1062.241	-5.08
1062.663	-11.78
1063.085	-7.48
1063.506	0.62
1063.928	-2.58
1064.35	-2.98
1064.771	-7.58
1065.193	-0.28
1065.614	-7.68
1066.035	-3.08
1066.457	-3.48
1066.878	-7.78
1067.3	-8.48
1067.721	-4.98
1068.142	-6.78
1068.564	-4.78
1068.985	-3.58
1069.406	-5.18
1069.827	-5.68
1070.248	2.42
1070.67	-2.58
1071.091	-5.88
1071.512	0.32
1071.933	-2.08
1072.354	-8.08
1072.775	-2.88
1073.196	-9.77
1073.617	-2.68
1074.038	-0.88
1074.459	-1.17
1074.88	-9.38
1075.3	-0.18
1075.721	0.42
1076.142	3.83
1076.563	1.42
1076.983	-3.08
1077.404	-12.88
1077.825	-12.98
1078.246	-1.98
1078.666	-8.28
1079.087	-4.67
1079.507	-11.18
1079.928	3.82
1080.348	-2.38
1080.769	1.02
1081.189	1.52
1081.61	-1.18
1082.03	-5.78
1082.451	-2.98
1082.871	-4.58
1083.291	-6.58
1083.711	-2.08
1084.132	-5.88
1084.552	-5.38
1084.972	-0.27
1085.392	-9.78
1085.813	-12.28
1086.233	-7.88
1086.653	-9.98
1087.073	-3.98
1087.493	-9.18
1087.913	-3.68
1088.333	-6.18
1088.753	-6.48
1089.173	3.22
1089.593	-1.77
1090.013	-5.28
1090.433	-0.28
1090.852	-5.78
1091.272	-4.38
1091.692	-5.08
1092.112	-5.78
1092.531	-11.68
1092.951	-12.58
1093.371	1.02
1093.79	8.02
1094.21	-1.98
1094.63	-4.38
1095.049	-3.98
1095.469	-2.78
1095.888	-5.68
1096.308	-0.78
1096.727	-0.98
1097.146	-3.88
1097.566	-0.48
1097.985	-11.88
1098.405	-6.38
1098.824	-4.88
1099.243	-12.48
1099.662	-5.58
1100.082	-1.67
1100.501	-1.28
1100.92	-1.58
1101.339	-2.88
1101.758	-1.88
