Data from 20171114-ORNL-Ar_H_NY_Subt18_08-03-39-132.txt Node
Date: Tue Nov 14 08:03:39 EST 2017
User: Ender
Spectrometer: HR+D1039
Trigger mode: 0
Integration Time (sec): 2.730000E-2
Scans to average: 10
Electric dark correction enabled: true
Nonlinearity correction enabled: false
Boxcar width: 0
XAxis mode: Wavelengths
Number of Pixels in Spectrum: 2048
>>>>>Begin Spectral Data<<<<<
187.836	-5.69
188.309	-5.69
188.782	-5.69
189.255	-1.79
189.728	-4.69
190.201	5.51
190.674	3.71
191.147	3.41
191.619	0.21
192.092	-3.09
192.565	1.71
193.038	-1.29
193.511	4.21
193.984	2.51
194.456	-1.49
194.929	-0.29
195.402	-0.69
195.874	-2.19
196.347	-0.49
196.82	-6.29
197.292	9.81
197.765	0.41
198.237	-6.69
198.71	3.51
199.182	-4.59
199.655	1.81
200.127	4.61
200.6	-3.19
201.072	-2.89
201.544	-7.49
202.017	-2.59
202.489	2.31
202.961	-3.29
203.433	0.81
203.906	-7.29
204.378	-1.59
204.85	0.11
205.322	-10.19
205.794	-2.99
206.266	-6.79
206.739	-7.29
207.211	9.31
207.683	-2.09
208.155	-4.79
208.627	-2.89
209.099	-4.19
209.57	-2.89
210.042	-1.99
210.514	0.81
210.986	0.01
211.458	-7.49
211.93	-0.69
212.402	1.41
212.873	-5.19
213.345	-6.39
213.817	-6.59
214.288	-6.19
214.76	-10.79
215.232	-4.39
215.703	-0.09
216.175	-3.59
216.646	-3.59
217.118	-6.39
217.589	1.91
218.061	-6.09
218.532	-5.59
219.004	-0.49
219.475	-6.69
219.946	3.81
220.418	-7.89
220.889	5.51
221.36	5.91
221.832	-4.69
222.303	-5.09
222.774	3.21
223.245	-4.39
223.717	-4.99
224.188	0.81
224.659	-1.19
225.13	-5.49
225.601	-2.99
226.072	0.11
226.543	2.41
227.014	3.41
227.485	1.21
227.956	-10.99
228.427	-3.99
228.898	0.01
229.369	0.51
229.839	-4.79
230.31	-3.29
230.781	-3.29
231.252	-1.49
231.722	-6.59
232.193	-7.09
232.664	3.31
233.135	-10.99
233.605	-3.29
234.076	-9.09
234.546	2.31
235.017	2.11
235.487	0.01
235.958	2.81
236.428	-5.89
236.899	-4.29
237.369	-0.29
237.84	-2.59
238.31	-4.69
238.78	-3.39
239.251	-1.89
239.721	-7.09
240.191	-1.09
240.662	-0.29
241.132	-5.39
241.602	-3.79
242.072	0.21
242.542	6.71
243.013	0.71
243.483	-5.89
243.953	0.61
244.423	1.91
244.893	-5.19
245.363	-2.59
245.833	-3.89
246.303	-4.39
246.773	-1.19
247.243	-4.59
247.712	-5.99
248.182	0.21
248.652	3.11
249.122	-17.89
249.592	2.91
250.061	1.71
250.531	13.41
251.001	4.11
251.471	10.61
251.94	8.01
252.41	-0.29
252.879	-0.59
253.349	9.11
253.818	8.51
254.288	2.81
254.757	3.31
255.227	-4.29
255.696	-2.89
256.166	5.71
256.635	-0.79
257.105	-1.19
257.574	2.41
258.043	5.81
258.513	-4.39
258.982	2.21
259.451	-5.09
259.92	4.61
260.389	0.51
260.859	1.31
261.328	-1.59
261.797	7.41
262.266	1.31
262.735	10.31
263.204	0.61
263.673	-1.69
264.142	3.21
264.611	-7.99
265.08	-5.09
265.549	-1.09
266.018	-1.09
266.487	-4.79
266.955	-5.59
267.424	-4.39
267.893	5.21
268.362	-2.59
268.83	1.41
269.299	8.91
269.768	-1.69
270.236	0.91
270.705	3.31
271.174	4.01
271.642	3.61
272.111	0.81
272.579	-0.09
273.048	-0.69
273.516	-1.49
273.985	-0.29
274.453	5.71
274.922	6.81
275.39	6.71
275.858	-3.29
276.327	4.11
276.795	14.21
277.263	-2.89
277.731	13.31
278.2	4.21
278.668	4.41
279.136	9.81
279.604	11.81
280.072	18.51
280.54	8.61
281.008	13.91
281.477	5.91
281.945	5.01
282.413	10.51
282.881	8.71
283.348	0.81
283.816	12.01
284.284	7.61
284.752	12.71
285.22	4.91
285.688	7.01
286.156	12.21
286.623	10.61
287.091	3.21
287.559	8.71
288.026	10.51
288.494	8.21
288.962	1.11
289.429	7.71
289.897	14.41
290.364	10.61
290.832	10.51
291.3	6.31
291.767	4.11
292.234	8.01
292.702	7.31
293.169	12.51
293.637	17.61
294.104	11.71
294.571	7.11
295.039	4.61
295.506	10.31
295.973	9.21
296.44	9.81
296.908	12.41
297.375	8.41
297.842	16.31
298.309	8.91
298.776	18.51
299.243	9.61
299.71	9.21
300.177	15.81
300.644	6.71
301.111	16.51
301.578	18.91
302.045	12.61
302.512	18.31
302.979	20.71
303.446	21.01
303.913	14.01
304.379	8.41
304.846	21.41
305.313	19.11
305.78	17.31
306.246	21.91
306.713	22.21
307.18	20.81
307.646	21.01
308.113	23.11
308.579	16.81
309.046	23.01
309.512	24.61
309.979	13.41
310.445	25.91
310.912	27.51
311.378	28.81
311.845	27.71
312.311	26.61
312.777	24.61
313.244	24.31
313.71	28.61
314.176	23.81
314.642	22.41
315.109	25.81
315.575	31.71
316.041	26.61
316.507	24.51
316.973	28.51
317.439	28.41
317.905	29.81
318.371	34.71
318.837	26.91
319.303	29.31
319.769	30.61
320.235	27.21
320.701	29.81
321.167	29.51
321.633	26.41
322.099	27.91
322.564	30.81
323.03	42.01
323.496	34.11
323.962	30.81
324.427	37.61
324.893	41.21
325.359	34.61
325.824	34.01
326.29	34.91
326.755	39.91
327.221	36.51
327.686	40.81
328.152	44.91
328.617	42.61
329.083	45.41
329.548	47.61
330.014	49.01
330.479	37.11
330.944	40.81
331.41	39.71
331.875	48.91
332.34	44.71
332.805	42.91
333.271	50.61
333.736	41.81
334.201	50.71
334.666	46.41
335.131	53.61
335.596	52.21
336.061	56.61
336.526	52.21
336.991	50.21
337.456	60.81
337.921	49.51
338.386	43.71
338.851	47.21
339.316	51.61
339.781	48.61
340.246	56.51
340.711	53.61
341.175	54.51
341.64	42.91
342.105	49.41
342.569	60.41
343.034	57.71
343.499	59.61
343.963	48.41
344.428	70.91
344.893	67.11
345.357	64.71
345.822	74.11
346.286	72.91
346.751	78.21
347.215	70.71
347.679	73.91
348.144	92.91
348.608	83.11
349.073	74.71
349.537	83.21
350.001	82.11
350.465	90.81
350.93	84.11
351.394	85.91
351.858	80.61
352.322	89.21
352.786	86.61
353.25	96.51
353.715	115.81
354.179	102.31
354.643	120.11
355.107	121.91
355.571	122.41
356.035	104.71
356.498	108.31
356.962	109.31
357.426	114.41
357.89	113.81
358.354	97.11
358.818	89.61
359.281	96.01
359.745	90.21
360.209	95.61
360.673	88.01
361.136	92.81
361.6	94.51
362.064	96.21
362.527	97.91
362.991	106.01
363.454	94.01
363.918	86.31
364.381	100.41
364.845	100.21
365.308	98.91
365.772	101.01
366.235	105.11
366.698	95.61
367.162	95.41
367.625	106.11
368.088	104.11
368.552	105.21
369.015	98.01
369.478	112.81
369.941	104.61
370.404	111.21
370.867	117.81
371.331	122.51
371.794	121.31
372.257	117.31
372.72	125.11
373.183	121.41
373.646	117.31
374.109	117.91
374.572	121.41
375.035	115.01
375.497	129.81
375.96	127.91
376.423	125.11
376.886	133.51
377.349	133.41
377.811	122.61
378.274	132.11
378.737	129.01
379.199	138.61
379.662	136.91
380.125	136.91
380.587	134.41
381.05	142.31
381.512	141.41
381.975	153.01
382.437	151.11
382.9	150.21
383.362	159.21
383.825	156.11
384.287	158.51
384.75	149.31
385.212	160.01
385.674	160.31
386.136	161.31
386.599	147.51
387.061	158.61
387.523	154.71
387.985	162.61
388.447	160.71
388.91	159.21
389.372	156.21
389.834	162.51
390.296	153.61
390.758	162.21
391.22	168.51
391.682	182.51
392.144	174.11
392.606	170.91
393.068	164.41
393.529	184.91
393.991	178.91
394.453	165.21
394.915	171.71
395.377	166.01
395.838	174.01
396.3	180.71
396.762	178.91
397.224	174.91
397.685	169.31
398.147	167.41
398.608	174.81
399.07	175.21
399.531	181.71
399.993	185.61
400.454	194.61
400.916	189.01
401.377	191.61
401.839	198.31
402.3	191.61
402.762	214.31
403.223	232.41
403.684	219.81
404.145	200.81
404.607	199.81
405.068	203.21
405.529	208.91
405.99	222.21
406.451	217.11
406.913	221.01
407.374	212.81
407.835	215.21
408.296	213.21
408.757	224.81
409.218	230.51
409.679	225.21
410.14	219.51
410.601	220.41
411.062	229.01
411.522	227.51
411.983	230.61
412.444	222.51
412.905	231.51
413.366	241.81
413.826	258.01
414.287	291.41
414.748	346.31
415.208	338.01
415.669	280.91
416.13	271.91
416.59	275.31
417.051	288.41
417.511	293.81
417.972	323.71
418.432	347.31
418.893	397.91
419.353	341.91
419.814	266.31
420.274	248.11
420.734	240.61
421.195	253.91
421.655	251.31
422.115	256.51
422.576	249.81
423.036	261.91
423.496	271.51
423.956	284.71
424.416	304.21
424.876	349.81
425.336	349.71
425.797	339.31
426.257	334.11
426.717	301.11
427.177	293.31
427.637	284.61
428.097	288.51
428.556	308.91
429.016	335.01
429.476	326.51
429.936	330.11
430.396	335.51
430.856	351.61
431.315	360.41
431.775	404.01
432.235	453.21
432.694	420.51
433.154	421.71
433.614	436.51
434.073	395.11
434.533	342.41
434.993	331.81
435.452	341.41
435.912	335.61
436.371	338.21
436.83	332.71
437.29	314.11
437.749	302.01
438.209	299.61
438.668	333.41
439.127	335.41
439.587	311.61
440.046	301.51
440.505	311.21
440.964	323.91
441.424	361.21
441.883	352.11
442.342	315.11
442.801	291.91
443.26	292.71
443.719	294.71
444.178	287.01
444.637	277.31
445.096	293.61
445.555	296.01
446.014	289.61
446.473	301.01
446.932	297.11
447.391	296.41
447.849	300.01
448.308	283.71
448.767	286.71
449.226	305.01
449.685	304.71
450.143	327.71
450.602	303.91
451.061	293.81
451.519	297.01
451.978	298.61
452.436	296.81
452.895	294.81
453.353	311.21
453.812	310.21
454.27	309.41
454.729	305.01
455.187	305.81
455.646	301.91
456.104	300.91
456.562	325.51
457.021	328.41
457.479	316.61
457.937	333.01
458.395	332.71
458.854	318.61
459.312	308.81
459.77	339.21
460.228	319.21
460.686	311.81
461.144	324.51
461.602	319.71
462.06	320.81
462.518	323.31
462.976	321.81
463.434	324.71
463.892	327.91
464.35	340.31
464.808	340.71
465.266	334.61
465.724	341.21
466.181	339.91
466.639	338.01
467.097	353.91
467.555	370.61
468.012	372.31
468.47	379.31
468.928	400.61
469.385	413.01
469.843	411.91
470.3	409.01
470.758	425.51
471.215	443.41
471.673	474.21
472.13	474.31
472.588	483.61
473.045	448.21
473.503	462.71
473.96	487.21
474.417	487.31
474.875	518.91
475.332	533.91
475.789	531.81
476.246	539.11
476.704	572.71
477.161	584.71
477.618	603.31
478.075	628.21
478.532	682.91
478.989	733.61
479.446	830.71
479.903	810.41
480.36	843.41
480.817	878.91
481.274	959.41
481.731	1047.61
482.188	1118.41
482.645	1234.61
483.102	1322.61
483.558	1421.01
484.015	1477.61
484.472	1455.21
484.929	1411.41
485.385	1384.71
485.842	1352.61
486.299	1304.31
486.755	1272.41
487.212	1122.01
487.668	986.41
488.125	926.31
488.582	853.61
489.038	822.41
489.494	787.21
489.951	764.41
490.407	736.91
490.864	739.21
491.32	726.11
491.776	729.21
492.233	724.61
492.689	698.11
493.145	697.91
493.602	698.81
494.058	694.11
494.514	690.71
494.97	716.31
495.426	717.81
495.882	704.11
496.338	686.41
496.794	697.21
497.251	695.21
497.707	706.91
498.163	708.61
498.618	706.31
499.074	707.91
499.53	736.61
499.986	737.01
500.442	718.31
500.898	698.51
501.354	702.71
501.809	702.51
502.265	707.51
502.721	707.71
503.177	726.51
503.632	738.61
504.088	727.11
504.543	743.41
504.999	761.51
505.455	731.21
505.91	720.11
506.366	724.51
506.821	726.51
507.277	719.41
507.732	720.01
508.187	726.51
508.643	724.61
509.098	728.31
509.553	748.11
510.009	754.61
510.464	749.31
510.919	776.41
511.375	778.81
511.83	774.61
512.285	791.01
512.74	819.71
513.195	843.21
513.65	830.61
514.105	830.01
514.56	834.21
515.015	848.01
515.47	874.61
515.925	849.21
516.38	853.81
516.835	859.51
517.29	852.21
517.745	850.41
518.2	825.21
518.655	820.41
519.109	809.11
519.564	804.01
520.019	799.01
520.474	780.31
520.928	783.71
521.383	777.81
521.838	768.61
522.292	774.41
522.747	768.01
523.201	776.41
523.656	765.51
524.11	761.81
524.565	749.91
525.019	751.61
525.474	762.81
525.928	754.71
526.382	761.01
526.837	751.01
527.291	752.71
527.745	750.11
528.2	754.31
528.654	732.41
529.108	737.21
529.562	733.81
530.016	746.31
530.47	737.01
530.925	730.01
531.379	733.31
531.833	746.11
532.287	738.01
532.741	736.91
533.195	741.01
533.649	746.21
534.103	751.51
534.556	735.01
535.01	736.61
535.464	731.41
535.918	744.61
536.372	737.21
536.826	735.21
537.279	725.31
537.733	737.41
538.187	741.61
538.64	743.31
539.094	747.61
539.548	760.91
540.001	747.61
540.455	758.11
540.908	755.81
541.362	756.71
541.815	774.41
542.269	779.21
542.722	782.71
543.175	789.31
543.629	799.51
544.082	806.51
544.536	809.91
544.989	803.61
545.442	818.01
545.895	820.21
546.349	821.41
546.802	823.11
547.255	822.91
547.708	823.51
548.161	827.71
548.614	834.71
549.067	835.61
549.52	830.91
549.973	823.81
550.426	819.71
550.879	813.21
551.332	814.61
551.785	813.01
552.238	825.21
552.691	827.31
553.144	843.91
553.596	848.31
554.049	853.21
554.502	888.91
554.955	905.61
555.407	896.51
555.86	890.21
556.313	884.41
556.765	871.71
557.218	872.21
557.67	860.51
558.123	859.11
558.576	852.41
559.028	867.91
559.48	873.41
559.933	876.21
560.385	837.81
560.838	816.81
561.29	779.31
561.742	787.51
562.195	771.91
562.647	757.51
563.099	767.01
563.551	759.21
564.004	773.01
564.456	760.71
564.908	741.21
565.36	732.81
565.812	711.31
566.264	706.01
566.716	705.61
567.168	695.91
567.62	694.51
568.072	691.21
568.524	681.71
568.976	680.61
569.428	666.51
569.88	667.61
570.332	666.11
570.784	659.51
571.235	671.71
571.687	670.51
572.139	682.11
572.59	682.91
573.042	682.91
573.494	688.61
573.945	676.31
574.397	655.31
574.849	664.21
575.3	660.11
575.752	648.41
576.203	651.31
576.655	652.31
577.106	634.01
577.557	642.21
578.009	635.91
578.46	633.11
578.912	626.71
579.363	637.31
579.814	622.31
580.265	626.51
580.717	625.41
581.168	623.71
581.619	637.91
582.07	640.91
582.521	630.01
582.972	627.31
583.423	637.11
583.875	620.91
584.326	638.71
584.777	655.61
585.227	679.41
585.678	690.01
586.129	712.81
586.58	732.61
587.031	745.61
587.482	792.51
587.933	826.01
588.384	795.01
588.834	744.31
589.285	723.21
589.736	717.31
590.186	728.41
590.637	717.11
591.088	690.61
591.538	686.31
591.989	662.41
592.439	678.31
592.89	661.41
593.34	645.71
593.791	644.21
594.241	639.21
594.692	644.51
595.142	644.71
595.593	636.61
596.043	647.61
596.493	646.01
596.943	648.71
597.394	657.11
597.844	650.81
598.294	671.31
598.744	691.71
599.195	706.91
599.645	740.81
600.095	768.01
600.545	820.51
600.995	849.41
601.445	900.41
601.895	951.21
602.345	1010.61
602.795	982.81
603.245	954.21
603.695	913.91
604.145	867.61
604.594	831.11
605.044	776.81
605.494	721.51
605.944	680.31
606.393	667.91
606.843	655.11
607.293	651.61
607.743	646.61
608.192	653.21
608.642	673.91
609.091	663.31
609.541	667.41
609.99	664.41
610.44	666.01
610.889	634.11
611.339	625.71
611.788	609.71
612.238	616.61
612.687	623.81
613.136	610.31
613.586	630.11
614.035	620.71
614.484	636.21
614.933	627.51
615.383	626.11
615.832	620.11
616.281	613.01
616.73	599.31
617.179	581.81
617.628	572.81
618.077	565.81
618.526	554.71
618.975	536.41
619.424	541.31
619.873	537.71
620.322	534.21
620.771	528.01
621.22	522.41
621.669	509.41
622.118	510.41
622.567	500.21
623.015	488.01
623.464	495.61
623.913	484.31
624.361	481.11
624.81	471.71
625.259	483.81
625.707	481.61
626.156	482.31
626.604	492.31
627.053	488.01
627.501	475.41
627.95	493.51
628.398	499.01
628.847	492.31
629.295	490.71
629.744	491.51
630.192	482.91
630.64	482.31
631.089	471.21
631.537	458.31
631.985	448.31
632.433	449.41
632.881	447.31
633.33	450.91
633.778	441.61
634.226	441.31
634.674	455.71
635.122	450.11
635.57	460.31
636.018	470.11
636.466	481.51
636.914	466.31
637.362	483.71
637.81	485.21
638.258	486.91
638.705	490.61
639.153	513.31
639.601	514.41
640.049	538.21
640.497	561.51
640.944	593.81
641.392	543.61
641.84	520.21
642.287	485.71
642.735	470.71
643.182	476.61
643.63	475.01
644.078	460.81
644.525	480.31
644.973	479.71
645.42	487.81
645.867	503.91
646.315	516.81
646.762	530.01
647.21	549.01
647.657	560.31
648.104	574.51
648.551	591.51
648.999	624.11
649.446	683.81
649.893	722.01
650.34	814.71
650.787	947.31
651.234	1135.21
651.682	1428.01
652.129	1879.41
652.576	2620.01
653.023	3748.11
653.47	5155.81
653.917	6509.51
654.363	7546.61
654.81	8550.81
655.257	8122.21
655.704	5481.31
656.151	3309.71
656.598	2191.71
657.044	1598.61
657.491	1261.11
657.938	1017.91
658.385	875.61
658.831	778.21
659.278	695.31
659.724	617.71
660.171	587.61
660.618	542.71
661.064	521.01
661.511	506.61
661.957	489.91
662.404	479.11
662.85	494.41
663.296	467.91
663.743	449.41
664.189	431.71
664.635	434.61
665.082	419.91
665.528	429.31
665.974	419.61
666.42	405.01
666.867	409.21
667.313	386.41
667.759	377.21
668.205	361.51
668.651	370.01
669.097	365.21
669.543	367.21
669.989	366.91
670.435	362.11
670.881	373.91
671.327	370.41
671.773	381.31
672.219	404.21
672.665	454.11
673.11	476.21
673.556	522.31
674.002	554.61
674.448	533.61
674.893	462.61
675.339	398.91
675.785	363.91
676.23	356.41
676.676	323.91
677.122	316.91
677.567	310.61
678.013	306.41
678.458	301.11
678.904	297.91
679.349	288.01
679.794	295.21
680.24	291.41
680.685	277.51
681.131	285.31
681.576	284.71
682.021	297.81
682.466	282.91
682.912	284.51
683.357	287.21
683.802	316.81
684.247	334.51
684.692	367.01
685.137	402.91
685.583	436.11
686.028	462.01
686.473	434.31
686.918	368.41
687.363	334.41
687.807	320.41
688.252	298.61
688.697	299.11
689.142	278.11
689.587	280.01
690.032	267.21
690.477	280.41
690.921	284.61
691.366	313.31
691.811	325.21
692.255	353.81
692.7	376.61
693.145	410.41
693.589	547.71
694.034	867.61
694.478	1241.21
694.923	1460.61
695.367	1948.51
695.812	1023.41
696.256	419.91
696.701	310.41
697.145	282.71
697.59	271.11
698.034	265.01
698.478	271.91
698.922	262.11
699.367	268.11
699.811	276.81
700.255	288.31
700.699	310.31
701.143	333.41
701.588	383.41
702.032	417.11
702.476	419.81
702.92	403.21
703.364	412.01
703.808	502.51
704.252	806.61
704.696	1158.51
705.14	1397.61
705.584	1803.91
706.027	905.61
706.471	447.71
706.915	320.41
707.359	289.51
707.803	271.41
708.246	260.11
708.69	254.41
709.134	258.11
709.577	249.91
710.021	256.71
710.465	250.11
710.908	242.41
711.352	242.51
711.795	244.31
712.239	275.81
712.682	307.11
713.126	343.41
713.569	378.41
714.012	294.51
714.456	253.51
714.899	231.51
715.342	229.71
715.786	216.11
716.229	211.11
716.672	207.61
717.115	206.61
717.558	205.21
718.002	203.31
718.445	214.41
718.888	229.41
719.331	233.21
719.774	238.01
720.217	250.41
720.66	236.71
721.103	219.31
721.546	211.01
721.989	203.91
722.432	191.01
722.874	194.61
723.317	187.31
723.76	179.51
724.203	201.21
724.645	250.81
725.088	345.41
725.531	453.81
725.974	534.61
726.416	460.31
726.859	250.51
727.301	204.41
727.744	193.41
728.187	193.41
728.629	195.71
729.071	192.01
729.514	207.91
729.956	223.51
730.399	227.21
730.841	232.91
731.283	226.81
731.726	212.01
732.168	210.41
732.61	215.81
733.053	228.61
733.495	259.21
733.937	277.51
734.379	327.41
734.821	348.81
735.263	427.41
735.705	637.71
736.148	1210.21
736.59	2054.51
737.032	2603.91
737.474	2143.61
737.916	683.51
738.357	349.41
738.799	266.21
739.241	240.41
739.683	225.21
740.125	236.51
740.567	248.31
741.008	272.91
741.45	270.51
741.892	260.91
742.334	290.11
742.775	315.71
743.217	306.61
743.658	230.61
744.1	207.61
744.542	218.11
744.983	275.41
745.425	315.91
745.866	316.51
746.307	234.21
746.749	226.01
747.19	260.01
747.632	351.01
748.073	664.01
748.514	1427.21
748.956	2321.91
749.397	2908.91
749.838	2438.71
750.279	2522.51
750.72	1293.91
751.162	456.11
751.603	268.41
752.044	204.61
752.485	181.21
752.926	175.81
753.367	159.91
753.808	159.21
754.249	155.91
754.69	155.91
755.131	154.61
755.572	145.81
756.013	151.01
756.453	151.81
756.894	152.81
757.335	149.01
757.776	157.31
758.216	161.61
758.657	161.01
759.098	164.91
759.538	181.61
759.979	213.61
760.42	286.41
760.86	541.61
761.301	1386.51
761.741	3500.01
762.182	5562.41
762.622	3992.51
763.063	1133.71
763.503	458.01
763.943	276.31
764.384	230.11
764.824	216.41
765.264	207.11
765.705	183.11
766.145	150.11
766.585	142.11
767.025	140.71
767.465	128.91
767.906	149.31
768.346	170.11
768.786	177.21
769.226	169.71
769.666	234.11
770.106	460.11
770.546	1188.01
770.986	2182.51
771.426	2034.71
771.866	671.81
772.306	266.51
772.745	169.41
773.185	140.71
773.625	134.41
774.065	112.91
774.505	127.21
774.944	175.91
775.384	318.91
775.824	575.41
776.263	587.31
776.703	264.01
777.142	133.91
777.582	109.81
778.021	99.31
778.461	104.31
778.9	102.11
779.34	102.21
779.779	92.11
780.219	85.91
780.658	80.71
781.097	85.71
781.537	89.81
781.976	78.91
782.415	83.71
782.855	82.11
783.294	85.21
783.733	83.11
784.172	86.21
784.611	80.81
785.05	87.61
785.489	94.51
785.928	101.21
786.367	95.61
786.806	93.81
787.245	105.41
787.684	107.71
788.123	113.31
788.562	106.31
789.001	99.61
789.44	105.61
789.879	91.01
790.317	92.91
790.756	99.71
791.195	99.51
791.634	117.51
792.072	159.41
792.511	277.71
792.95	757.71
793.388	1739.91
793.827	1659.11
794.265	560.91
794.704	230.91
795.142	153.81
795.581	126.51
796.019	109.71
796.458	102.41
796.896	97.41
797.334	107.41
797.773	122.21
798.211	177.11
798.649	328.41
799.087	791.11
799.526	1296.71
799.964	1625.11
800.402	1730.51
800.84	648.61
801.278	244.91
801.716	151.71
802.154	127.61
802.592	123.31
803.03	115.51
803.468	103.51
803.906	118.01
804.344	121.91
804.782	117.01
805.22	111.01
805.658	103.91
806.096	120.71
806.533	130.31
806.971	147.41
807.409	179.11
807.847	254.81
808.284	511.11
808.722	1469.11
809.16	2738.91
809.597	2540.91
810.035	4490.31
810.472	5126.11
810.91	1853.71
811.347	679.41
811.785	345.71
812.222	214.91
812.66	162.81
813.097	136.51
813.535	115.31
813.972	108.21
814.409	100.41
814.846	90.61
815.284	87.31
815.721	80.81
816.158	87.31
816.595	92.51
817.032	142.01
817.47	175.11
817.907	127.81
818.344	88.11
818.781	91.51
819.218	82.81
819.655	104.81
820.092	182.21
820.529	218.31
820.966	161.11
821.403	117.31
821.839	86.31
822.276	79.61
822.713	105.21
823.15	125.71
823.587	95.91
824.023	118.01
824.46	225.01
824.897	694.61
825.333	1152.01
825.77	496.81
826.206	191.41
826.643	115.01
827.08	87.21
827.516	75.41
827.953	61.31
828.389	66.31
828.825	58.01
829.262	52.31
829.698	51.61
830.135	48.11
830.571	50.61
831.007	55.91
831.443	50.31
831.88	50.21
832.316	46.91
832.752	50.01
833.188	47.11
833.624	53.91
834.06	54.81
834.497	55.31
834.933	58.21
835.369	58.01
835.805	47.01
836.241	61.21
836.677	65.01
837.112	74.31
837.548	87.51
837.984	109.81
838.42	159.21
838.856	384.21
839.292	1201.81
839.727	1976.51
840.163	921.21
840.599	736.41
841.034	1666.51
841.47	1883.31
841.906	675.51
842.341	270.41
842.777	169.51
843.212	180.01
843.648	172.21
844.083	99.41
844.519	72.61
844.954	60.21
845.39	46.71
845.825	50.21
846.261	45.01
846.696	39.11
847.131	43.31
847.566	52.61
848.002	43.51
848.437	41.11
848.872	49.11
849.307	51.11
849.742	64.31
850.177	139.31
850.613	431.71
851.048	738.11
851.483	322.11
851.918	130.01
852.353	69.11
852.788	44.51
853.223	40.31
853.657	42.81
854.092	41.71
854.527	27.81
854.962	31.91
855.397	37.11
855.832	43.11
856.266	37.91
856.701	37.21
857.136	31.51
857.57	34.01
858.005	47.51
858.44	51.61
858.874	39.11
859.309	45.51
859.743	31.41
860.178	35.51
860.612	34.31
861.047	45.01
861.481	61.71
861.915	75.71
862.35	42.71
862.784	25.81
863.218	32.31
863.653	24.01
864.087	45.31
864.521	40.71
864.955	52.91
865.39	126.51
865.824	146.61
866.258	104.91
866.692	166.61
867.126	192.31
867.56	113.91
867.994	49.21
868.428	37.21
868.862	40.11
869.296	57.11
869.73	50.31
870.164	56.91
870.598	50.31
871.031	37.91
871.465	30.61
871.899	29.71
872.333	25.01
872.766	28.71
873.2	21.21
873.634	20.41
874.067	24.31
874.501	21.91
874.935	27.21
875.368	25.71
875.802	19.71
876.235	19.91
876.669	21.21
877.102	20.41
877.535	25.21
877.969	21.41
878.402	22.91
878.836	17.01
879.269	20.11
879.702	16.41
880.135	18.81
880.569	14.61
881.002	17.31
881.435	17.81
881.868	10.71
882.301	23.01
882.734	16.01
883.167	24.01
883.601	14.21
884.034	20.11
884.467	9.01
884.899	16.31
885.332	10.71
885.765	13.91
886.198	8.01
886.631	11.31
887.064	9.01
887.497	21.61
887.929	18.71
888.362	9.41
888.795	16.31
889.228	11.61
889.66	18.01
890.093	11.41
890.526	8.81
890.958	12.91
891.391	12.11
891.823	18.51
892.256	8.71
892.688	3.51
893.121	14.51
893.553	7.51
893.985	17.11
894.418	16.21
894.85	8.21
895.282	10.11
895.715	15.81
896.147	12.61
896.579	14.41
897.011	14.01
897.444	11.31
897.876	8.31
898.308	14.11
898.74	6.91
899.172	7.41
899.604	20.11
900.036	19.81
900.468	12.41
900.9	9.61
901.332	13.61
901.764	12.11
902.196	17.71
902.628	13.61
903.06	13.11
903.491	31.91
903.923	18.21
904.355	22.01
904.787	23.91
905.218	21.71
905.65	12.11
906.082	7.31
906.513	11.31
906.945	14.41
907.376	12.81
907.808	10.21
908.239	14.01
908.671	14.71
909.102	14.51
909.534	21.61
909.965	38.91
910.397	75.21
910.828	259.31
911.259	416.41
911.691	185.51
912.122	89.61
912.553	37.51
912.984	28.41
913.415	20.51
913.847	21.11
914.278	11.91
914.709	13.51
915.14	15.31
915.571	17.21
916.002	11.01
916.433	21.21
916.864	19.01
917.295	10.51
917.726	12.21
918.157	13.61
918.587	17.11
919.018	18.21
919.449	17.91
919.88	21.91
920.311	26.41
920.741	32.91
921.172	128.61
921.603	125.51
922.033	58.31
922.464	39.51
922.895	15.21
923.325	17.51
923.756	10.61
924.186	14.41
924.617	21.41
925.047	17.01
925.478	29.41
925.908	22.31
926.338	12.21
926.769	9.61
927.199	15.71
927.629	1.41
928.06	14.01
928.49	10.01
928.92	9.01
929.35	11.41
929.78	7.41
930.21	5.21
930.641	4.71
931.071	11.11
931.501	0.51
931.931	7.21
932.361	8.11
932.791	0.61
933.221	0.41
933.651	3.81
934.08	15.41
934.51	21.51
934.94	7.21
935.37	9.61
935.8	10.91
936.229	9.31
936.659	9.61
937.089	0.41
937.519	16.91
937.948	30.71
938.378	13.31
938.807	4.61
939.237	0.91
939.666	0.61
940.096	-2.29
940.525	1.81
940.955	0.11
941.384	-0.79
941.814	-2.99
942.243	0.81
942.672	4.01
943.102	-2.69
943.531	-6.69
943.96	4.91
944.39	5.81
944.819	2.81
945.248	-1.59
945.677	0.61
946.106	-0.49
946.535	7.71
946.964	0.81
947.393	4.01
947.822	-1.79
948.251	-0.49
948.68	0.01
949.109	3.31
949.538	7.81
949.967	-5.49
950.396	0.31
950.825	-4.59
951.254	0.61
951.682	-4.69
952.111	8.51
952.54	4.91
952.969	-1.19
953.397	-4.09
953.826	6.01
954.254	-3.69
954.683	1.61
955.112	3.21
955.54	3.31
955.969	4.61
956.397	4.11
956.826	-4.89
957.254	0.81
957.682	-7.69
958.111	9.61
958.539	-0.09
958.967	-2.19
959.396	3.71
959.824	-0.99
960.252	5.11
960.68	-11.09
961.109	1.11
961.537	-9.19
961.965	6.11
962.393	4.81
962.821	2.41
963.249	-2.39
963.677	7.11
964.105	-0.29
964.533	36.31
964.961	37.61
965.389	13.91
965.817	11.81
966.245	-0.69
966.672	-1.29
967.1	-10.09
967.528	-1.39
967.956	-2.59
968.383	1.21
968.811	-1.19
969.239	2.61
969.666	-3.29
970.094	-2.49
970.522	2.21
970.949	-5.59
971.377	-6.69
971.804	2.01
972.232	1.61
972.659	1.51
973.087	-1.89
973.514	1.61
973.941	-4.29
974.369	-0.39
974.796	0.91
975.223	-0.09
975.651	-6.39
976.078	3.81
976.505	2.31
976.932	2.11
977.359	15.71
977.786	15.31
978.214	0.91
978.641	-6.59
979.068	-1.89
979.495	-3.29
979.922	-2.99
980.349	-2.29
980.776	2.81
981.202	0.91
981.629	3.11
982.056	10.41
982.483	-2.29
982.91	6.51
983.337	-5.99
983.763	3.41
984.19	-0.99
984.617	-4.79
985.043	-2.19
985.47	-1.89
985.897	2.91
986.323	-8.99
986.75	3.91
987.176	-0.09
987.603	-1.19
988.029	-0.69
988.456	-0.79
988.882	7.11
989.308	-6.79
989.735	-6.39
990.161	2.81
990.587	0.01
991.014	-2.99
991.44	4.41
991.866	-0.39
992.292	-7.49
992.719	-0.99
993.145	0.21
993.571	-7.19
993.997	-1.39
994.423	1.41
994.849	-10.09
995.275	-5.09
995.701	2.31
996.127	-1.19
996.553	8.11
996.979	1.01
997.405	2.21
997.83	-6.59
998.256	-10.49
998.682	-7.79
999.108	-6.89
999.534	-4.39
999.959	5.51
1000.385	-3.89
1000.811	-1.59
1001.236	-10.69
1001.662	-6.29
1002.087	-8.59
1002.513	-2.29
1002.938	3.31
1003.364	0.91
1003.789	-2.29
1004.215	0.61
1004.64	-2.59
1005.066	-0.79
1005.491	-1.49
1005.916	1.61
1006.342	-8.99
1006.767	-6.29
1007.192	8.11
1007.617	-1.39
1008.042	-5.49
1008.468	-8.79
1008.893	-6.59
1009.318	-4.19
1009.743	-11.89
1010.168	-4.29
1010.593	7.51
1011.018	-7.39
1011.443	-6.39
1011.868	-1.29
1012.293	-1.79
1012.718	-7.19
1013.143	4.21
1013.567	7.91
1013.992	-8.99
1014.417	-9.99
1014.842	4.61
1015.267	-3.49
1015.691	-5.79
1016.116	5.11
1016.541	-1.99
1016.965	3.21
1017.39	3.61
1017.814	-0.89
1018.239	-0.39
1018.663	-5.29
1019.088	-11.69
1019.512	-9.69
1019.937	-0.29
1020.361	-5.99
1020.785	-15.59
1021.21	-0.69
1021.634	0.01
1022.058	4.41
1022.483	3.51
1022.907	-1.59
1023.331	-10.59
1023.755	-1.59
1024.179	3.01
1024.604	-11.89
1025.028	-1.99
1025.452	-4.29
1025.876	-2.19
1026.3	0.01
1026.724	-6.59
1027.148	-5.99
1027.572	-9.19
1027.996	-6.49
1028.42	-1.69
1028.843	-4.09
1029.267	-4.49
1029.691	1.81
1030.115	-3.29
1030.539	-3.19
1030.962	-4.29
1031.386	-6.59
1031.81	-3.79
1032.233	0.51
1032.657	-5.29
1033.08	-0.79
1033.504	-4.19
1033.927	-3.19
1034.351	-0.29
1034.774	-10.69
1035.198	-5.29
1035.621	-3.29
1036.045	-6.39
1036.468	0.81
1036.891	-9.49
1037.315	-8.69
1037.738	-12.69
1038.161	3.41
1038.584	-1.89
1039.008	-1.19
1039.431	-0.09
1039.854	-3.19
1040.277	-5.89
1040.7	-0.29
1041.123	1.11
1041.546	-11.79
1041.969	-9.09
1042.392	-7.99
1042.815	-1.19
1043.238	1.71
1043.661	5.11
1044.084	-6.39
1044.507	0.91
1044.93	-3.49
1045.352	-8.09
1045.775	-1.99
1046.198	-1.39
1046.621	-6.99
1047.043	-4.49
1047.466	11.21
1047.889	3.81
1048.311	-3.69
1048.734	-4.99
1049.156	-1.69
1049.579	-0.09
1050.001	-3.69
1050.424	-0.19
1050.846	-3.39
1051.269	-3.39
1051.691	-4.79
1052.113	-0.59
1052.536	-4.39
1052.958	-3.59
1053.38	-8.09
1053.802	-11.19
1054.225	-0.09
1054.647	-13.09
1055.069	-5.09
1055.491	4.11
1055.913	-7.79
1056.335	-0.09
1056.757	-4.29
1057.179	-5.89
1057.601	-1.89
1058.023	-4.49
1058.445	-6.89
1058.867	-9.09
1059.289	-4.49
1059.711	-6.49
1060.133	1.61
1060.555	-3.79
1060.976	0.01
1061.398	-10.09
1061.82	-7.29
1062.241	-4.29
1062.663	-11.69
1063.085	-6.39
1063.506	-0.39
1063.928	1.51
1064.35	-1.09
1064.771	-6.59
1065.193	-8.69
1065.614	-6.19
1066.035	-2.09
1066.457	-0.39
1066.878	2.71
1067.3	-3.69
1067.721	-7.09
1068.142	-4.59
1068.564	-4.39
1068.985	-6.19
1069.406	-5.79
1069.827	-7.09
1070.248	0.81
1070.67	-8.19
1071.091	-3.79
1071.512	-7.59
1071.933	-3.19
1072.354	-3.39
1072.775	-8.69
1073.196	-10.09
1073.617	-4.59
1074.038	-4.59
1074.459	-10.99
1074.88	-11.59
1075.3	2.41
1075.721	-5.39
1076.142	2.71
1076.563	0.21
1076.983	-8.49
1077.404	-7.49
1077.825	-7.29
1078.246	-0.69
1078.666	-11.79
1079.087	-1.99
1079.507	-5.99
1079.928	-0.49
1080.348	-0.69
1080.769	-4.69
1081.189	-3.89
1081.61	-1.59
1082.03	-5.29
1082.451	-5.39
1082.871	-3.69
1083.291	-8.29
1083.711	-9.79
1084.132	-8.29
1084.552	-7.39
1084.972	-3.09
1085.392	-7.89
1085.813	-11.49
1086.233	-6.49
1086.653	-7.19
1087.073	-4.59
1087.493	-10.59
1087.913	-6.19
1088.333	-14.79
1088.753	-6.69
1089.173	5.21
1089.593	-4.79
1090.013	-0.79
1090.433	-0.79
1090.852	-4.79
1091.272	-5.19
1091.692	-11.89
1092.112	-2.99
1092.531	-7.89
1092.951	-11.49
1093.371	-8.79
1093.79	-1.89
1094.21	-8.89
1094.63	-3.79
1095.049	-5.59
1095.469	4.51
1095.888	-2.19
1096.308	6.51
1096.727	4.71
1097.146	-10.99
1097.566	-9.89
1097.985	-5.59
1098.405	-3.19
1098.824	-6.69
1099.243	-7.99
1099.662	-8.29
1100.082	-1.99
1100.501	-2.19
1100.92	-1.69
1101.339	-1.49
1101.758	-4.19
