Data from 20171114-ORNL-Ar_H_NY_Subt18_08-04-18-987.txt Node
Date: Tue Nov 14 08:04:18 EST 2017
User: Ender
Spectrometer: HR+D1039
Trigger mode: 0
Integration Time (sec): 2.730000E-2
Scans to average: 10
Electric dark correction enabled: true
Nonlinearity correction enabled: false
Boxcar width: 0
XAxis mode: Wavelengths
Number of Pixels in Spectrum: 2048
>>>>>Begin Spectral Data<<<<<
187.836	-2.89
188.309	-2.89
188.782	-2.89
189.255	-2.89
189.728	0.21
190.201	3.91
190.674	-6.29
191.147	3.81
191.619	-10.19
192.092	0.91
192.565	4.01
193.038	0.11
193.511	1.91
193.984	3.41
194.456	-2.19
194.929	1.71
195.402	2.91
195.874	1.61
196.347	-1.39
196.82	-0.69
197.292	-2.99
197.765	-2.19
198.237	-4.89
198.71	6.11
199.182	-1.49
199.655	5.61
200.127	4.01
200.6	-3.89
201.072	-2.89
201.544	-5.09
202.017	-2.19
202.489	9.61
202.961	-5.29
203.433	-4.69
203.906	-5.19
204.378	2.01
204.85	0.11
205.322	-10.89
205.794	2.81
206.266	-5.99
206.739	-8.99
207.211	0.91
207.683	-5.19
208.155	-1.19
208.627	-1.59
209.099	-6.09
209.57	-8.69
210.042	-0.59
210.514	-2.99
210.986	-0.39
211.458	-7.29
211.93	-0.99
212.402	3.11
212.873	-3.99
213.345	-5.29
213.817	-9.89
214.288	-3.79
214.76	-10.09
215.232	-3.19
215.703	-2.89
216.175	-3.79
216.646	-6.59
217.118	-3.09
217.589	-2.79
218.061	-3.69
218.532	-1.09
219.004	-0.79
219.475	-5.99
219.946	-2.39
220.418	0.61
220.889	1.51
221.36	-1.49
221.832	-10.69
222.303	-3.69
222.774	1.31
223.245	-8.69
223.717	-5.99
224.188	-4.89
224.659	-5.89
225.13	-2.29
225.601	0.41
226.072	-1.09
226.543	3.11
227.014	4.21
227.485	-7.49
227.956	-2.29
228.427	-0.69
228.898	3.51
229.369	2.61
229.839	-4.99
230.31	-5.09
230.781	2.61
231.252	-1.19
231.722	-9.09
232.193	2.31
232.664	7.11
233.135	9.21
233.605	1.51
234.076	-1.99
234.546	-0.89
235.017	5.11
235.487	0.91
235.958	-1.09
236.428	3.61
236.899	5.61
237.369	4.11
237.84	-5.19
238.31	8.01
238.78	4.51
239.251	6.21
239.721	0.91
240.191	4.61
240.662	3.01
241.132	4.51
241.602	2.71
242.072	5.21
242.542	10.21
243.013	2.21
243.483	4.31
243.953	3.61
244.423	4.31
244.893	-1.59
245.363	9.71
245.833	0.31
246.303	0.71
246.773	9.41
247.243	1.81
247.712	2.51
248.182	10.91
248.652	7.61
249.122	3.21
249.592	15.31
250.061	26.61
250.531	32.11
251.001	19.81
251.471	21.51
251.94	19.21
252.41	7.51
252.879	0.91
253.349	12.21
253.818	12.11
254.288	3.91
254.757	2.21
255.227	0.11
255.696	4.61
256.166	7.61
256.635	8.21
257.105	11.11
257.574	7.61
258.043	11.91
258.513	11.81
258.982	17.91
259.451	10.91
259.92	16.41
260.389	13.41
260.859	16.61
261.328	12.31
261.797	18.51
262.266	7.31
262.735	15.81
263.204	8.81
263.673	1.61
264.142	4.21
264.611	-8.49
265.08	-0.59
265.549	3.31
266.018	5.91
266.487	1.91
266.955	-0.29
267.424	0.31
267.893	5.61
268.362	2.91
268.83	0.61
269.299	14.11
269.768	4.51
270.236	9.71
270.705	2.71
271.174	7.51
271.642	8.61
272.111	14.11
272.579	19.51
273.048	30.41
273.516	31.11
273.985	31.61
274.453	26.71
274.922	22.71
275.39	12.91
275.858	6.81
276.327	17.71
276.795	19.71
277.263	15.81
277.731	32.11
278.2	48.91
278.668	54.61
279.136	45.71
279.604	22.31
280.072	15.91
280.54	10.61
281.008	12.71
281.477	20.91
281.945	12.91
282.413	14.91
282.881	5.51
283.348	11.01
283.816	18.81
284.284	13.81
284.752	18.51
285.22	11.11
285.688	19.61
286.156	14.21
286.623	38.31
287.091	48.21
287.559	26.61
288.026	17.21
288.494	16.41
288.962	4.71
289.429	4.71
289.897	12.81
290.364	10.61
290.832	17.91
291.3	19.01
291.767	22.01
292.234	18.61
292.702	8.21
293.169	14.01
293.637	21.01
294.104	19.11
294.571	10.01
295.039	6.21
295.506	14.01
295.973	17.81
296.44	19.41
296.908	19.61
297.375	20.11
297.842	20.21
298.309	22.11
298.776	10.21
299.243	24.01
299.71	6.41
300.177	22.71
300.644	20.91
301.111	18.31
301.578	23.01
302.045	13.91
302.512	22.91
302.979	23.71
303.446	23.91
303.913	9.21
304.379	11.71
304.846	23.51
305.313	28.41
305.78	22.31
306.246	27.21
306.713	21.91
307.18	23.31
307.646	28.21
308.113	26.51
308.579	27.21
309.046	26.61
309.512	28.21
309.979	13.51
310.445	30.71
310.912	28.61
311.378	32.51
311.845	32.71
312.311	30.51
312.777	29.61
313.244	24.11
313.71	38.31
314.176	29.71
314.642	31.61
315.109	29.81
315.575	23.51
316.041	39.91
316.507	37.31
316.973	42.81
317.439	32.91
317.905	34.31
318.371	32.91
318.837	32.51
319.303	30.11
319.769	35.31
320.235	35.91
320.701	31.01
321.167	34.71
321.633	25.01
322.099	36.01
322.564	41.91
323.03	38.51
323.496	27.21
323.962	34.91
324.427	33.01
324.893	40.21
325.359	35.61
325.824	43.71
326.29	43.51
326.755	36.51
327.221	40.91
327.686	38.41
328.152	39.31
328.617	40.51
329.083	43.51
329.548	47.01
330.014	40.31
330.479	32.51
330.944	35.81
331.41	38.71
331.875	38.61
332.34	41.61
332.805	42.21
333.271	45.11
333.736	42.31
334.201	54.51
334.666	48.81
335.131	50.31
335.596	52.31
336.061	45.81
336.526	40.81
336.991	42.91
337.456	48.91
337.921	46.81
338.386	40.21
338.851	45.51
339.316	37.91
339.781	38.81
340.246	46.11
340.711	41.21
341.175	45.41
341.64	45.61
342.105	51.21
342.569	47.51
343.034	55.51
343.499	49.21
343.963	42.91
344.428	60.51
344.893	56.31
345.357	59.41
345.822	52.41
346.286	57.41
346.751	61.61
347.215	58.11
347.679	60.41
348.144	83.41
348.608	65.61
349.073	65.31
349.537	66.41
350.001	70.81
350.465	85.71
350.93	70.71
351.394	74.71
351.858	60.41
352.322	86.31
352.786	77.31
353.25	86.81
353.715	98.31
354.179	91.11
354.643	101.41
355.107	109.11
355.571	95.61
356.035	97.71
356.498	101.41
356.962	108.61
357.426	118.41
357.89	100.91
358.354	87.51
358.818	74.71
359.281	68.91
359.745	69.01
360.209	71.41
360.673	71.51
361.136	69.81
361.6	77.11
362.064	73.11
362.527	77.11
362.991	86.61
363.454	72.81
363.918	78.91
364.381	66.31
364.845	73.31
365.308	73.11
365.772	76.11
366.235	77.51
366.698	78.31
367.162	78.31
367.625	78.31
368.088	79.41
368.552	83.71
369.015	87.81
369.478	88.81
369.941	91.41
370.404	82.61
370.867	98.21
371.331	90.71
371.794	96.01
372.257	101.81
372.72	99.01
373.183	98.21
373.646	100.61
374.109	91.81
374.572	93.71
375.035	97.71
375.497	95.11
375.96	93.71
376.423	94.11
376.886	104.41
377.349	96.01
377.811	89.91
378.274	95.81
378.737	91.61
379.199	108.11
379.662	99.61
380.125	104.61
380.587	100.51
381.05	106.41
381.512	118.51
381.975	122.41
382.437	107.61
382.9	116.41
383.362	120.61
383.825	119.21
384.287	132.71
384.75	124.01
385.212	115.61
385.674	129.71
386.136	124.21
386.599	112.81
387.061	111.81
387.523	115.01
387.985	121.81
388.447	131.91
388.91	124.41
389.372	146.01
389.834	139.61
390.296	127.21
390.758	141.11
391.22	150.01
391.682	181.11
392.144	255.91
392.606	210.71
393.068	147.51
393.529	150.01
393.991	146.01
394.453	132.61
394.915	142.11
395.377	172.21
395.838	189.61
396.3	137.21
396.762	132.81
397.224	114.81
397.685	113.61
398.147	115.01
398.608	115.61
399.07	118.41
399.531	126.41
399.993	123.51
400.454	133.71
400.916	125.41
401.377	130.31
401.839	136.61
402.3	141.31
402.762	148.91
403.223	165.51
403.684	150.71
404.145	143.51
404.607	145.51
405.068	147.81
405.529	153.51
405.99	164.11
406.451	151.71
406.913	156.81
407.374	145.81
407.835	143.81
408.296	150.21
408.757	152.51
409.218	169.91
409.679	164.91
410.14	159.91
410.601	156.91
411.062	160.21
411.522	172.91
411.983	172.11
412.444	154.21
412.905	162.91
413.366	164.41
413.826	174.51
414.287	192.61
414.748	238.01
415.208	227.21
415.669	197.81
416.13	184.31
416.59	178.81
417.051	191.81
417.511	200.51
417.972	215.41
418.432	222.91
418.893	264.91
419.353	223.81
419.814	181.41
420.274	163.01
420.734	164.21
421.195	179.01
421.655	179.71
422.115	174.91
422.576	163.51
423.036	172.41
423.496	192.41
423.956	192.51
424.416	205.41
424.876	242.51
425.336	233.61
425.797	231.31
426.257	228.51
426.717	208.61
427.177	212.51
427.637	198.41
428.097	204.91
428.556	223.61
429.016	244.91
429.476	231.11
429.936	246.01
430.396	244.81
430.856	255.61
431.315	280.11
431.775	302.91
432.235	330.41
432.694	315.41
433.154	323.31
433.614	344.31
434.073	301.41
434.533	252.51
434.993	231.71
435.452	249.21
435.912	263.81
436.371	251.81
436.83	250.61
437.29	237.41
437.749	212.71
438.209	212.91
438.668	236.31
439.127	260.01
439.587	234.51
440.046	216.91
440.505	234.61
440.964	245.81
441.424	274.91
441.883	272.21
442.342	239.51
442.801	200.01
443.26	192.11
443.719	196.31
444.178	195.81
444.637	190.11
445.096	192.01
445.555	197.41
446.014	193.91
446.473	209.61
446.932	209.21
447.391	204.71
447.849	209.31
448.308	192.11
448.767	199.51
449.226	217.81
449.685	219.71
450.143	224.21
450.602	216.81
451.061	200.71
451.519	210.51
451.978	210.01
452.436	209.61
452.895	213.41
453.353	222.81
453.812	208.91
454.27	215.01
454.729	218.91
455.187	214.91
455.646	222.01
456.104	220.31
456.562	227.81
457.021	238.11
457.479	225.21
457.937	238.21
458.395	233.01
458.854	221.61
459.312	225.11
459.77	239.41
460.228	222.61
460.686	218.91
461.144	217.31
461.602	220.01
462.06	217.71
462.518	221.91
462.976	222.91
463.434	228.31
463.892	240.31
464.35	250.81
464.808	248.31
465.266	239.21
465.724	240.71
466.181	241.11
466.639	247.51
467.097	264.21
467.555	265.01
468.012	273.91
468.47	275.31
468.928	300.51
469.385	298.21
469.843	303.51
470.3	313.81
470.758	322.61
471.215	334.71
471.673	358.41
472.13	353.41
472.588	360.91
473.045	329.21
473.503	332.51
473.96	359.81
474.417	360.91
474.875	385.11
475.332	416.31
475.789	409.21
476.246	409.51
476.704	430.61
477.161	460.51
477.618	461.71
478.075	497.01
478.532	538.21
478.989	608.71
479.446	707.51
479.903	685.61
480.36	730.51
480.817	768.41
481.274	868.31
481.731	969.71
482.188	1045.51
482.645	1177.11
483.102	1278.61
483.558	1378.61
484.015	1435.21
484.472	1422.41
484.929	1366.31
485.385	1329.31
485.842	1300.11
486.299	1227.51
486.755	1166.11
487.212	981.21
487.668	827.61
488.125	766.71
488.582	713.31
489.038	671.91
489.494	643.01
489.951	620.71
490.407	602.41
490.864	591.11
491.32	574.61
491.776	576.81
492.233	578.61
492.689	541.91
493.145	539.81
493.602	530.11
494.058	547.41
494.514	546.71
494.97	572.31
495.426	576.31
495.882	557.81
496.338	547.31
496.794	560.91
497.251	551.61
497.707	568.01
498.163	575.91
498.618	572.21
499.074	574.31
499.53	608.01
499.986	597.31
500.442	579.11
500.898	565.11
501.354	569.71
501.809	571.31
502.265	581.71
502.721	591.71
503.177	600.61
503.632	590.51
504.088	613.71
504.543	638.61
504.999	624.51
505.455	577.71
505.91	554.01
506.366	564.61
506.821	559.31
507.277	556.21
507.732	560.81
508.187	550.81
508.643	574.71
509.098	567.01
509.553	583.21
510.009	594.51
510.464	588.71
510.919	609.81
511.375	631.01
511.83	635.31
512.285	643.61
512.74	676.91
513.195	699.01
513.65	686.91
514.105	694.71
514.56	696.21
515.015	708.91
515.47	720.71
515.925	712.41
516.38	710.81
516.835	716.71
517.29	708.41
517.745	701.71
518.2	694.41
518.655	671.31
519.109	677.01
519.564	667.61
520.019	655.21
520.474	646.61
520.928	648.31
521.383	640.71
521.838	643.31
522.292	640.61
522.747	631.71
523.201	632.71
523.656	612.01
524.11	615.71
524.565	630.41
525.019	608.31
525.474	629.91
525.928	621.31
526.382	615.31
526.837	615.81
527.291	629.61
527.745	623.01
528.2	622.21
528.654	614.71
529.108	617.41
529.562	621.21
530.016	614.91
530.47	611.81
530.925	613.01
531.379	622.71
531.833	629.01
532.287	632.61
532.741	631.41
533.195	626.11
533.649	628.11
534.103	639.21
534.556	617.11
535.01	635.41
535.464	620.61
535.918	634.51
536.372	639.81
536.826	637.61
537.279	636.51
537.733	629.01
538.187	631.91
538.64	629.41
539.094	638.21
539.548	649.51
540.001	649.31
540.455	638.81
540.908	645.01
541.362	645.31
541.815	664.51
542.269	665.01
542.722	671.71
543.175	679.21
543.629	675.01
544.082	691.51
544.536	687.21
544.989	691.81
545.442	695.41
545.895	689.31
546.349	704.21
546.802	699.71
547.255	699.01
547.708	720.71
548.161	712.91
548.614	717.61
549.067	718.51
549.52	730.51
549.973	714.01
550.426	705.21
550.879	693.71
551.332	695.21
551.785	706.11
552.238	709.71
552.691	717.21
553.144	726.51
553.596	739.11
554.049	751.31
554.502	792.71
554.955	801.01
555.407	800.41
555.86	795.31
556.313	775.81
556.765	764.71
557.218	771.11
557.67	782.71
558.123	767.11
558.576	764.71
559.028	762.51
559.48	772.51
559.933	771.81
560.385	732.41
560.838	707.61
561.29	684.21
561.742	680.21
562.195	652.51
562.647	662.31
563.099	670.21
563.551	675.81
564.004	689.81
564.456	675.01
564.908	669.31
565.36	646.01
565.812	641.01
566.264	635.31
566.716	627.21
567.168	620.81
567.62	632.01
568.072	608.91
568.524	596.51
568.976	591.71
569.428	580.41
569.88	574.01
570.332	585.51
570.784	586.21
571.235	585.21
571.687	591.91
572.139	604.21
572.59	610.01
573.042	612.71
573.494	616.91
573.945	621.21
574.397	586.51
574.849	595.91
575.3	601.21
575.752	597.21
576.203	578.21
576.655	582.11
577.106	581.01
577.557	571.31
578.009	573.91
578.46	567.01
578.912	572.81
579.363	567.81
579.814	572.31
580.265	559.21
580.717	580.31
581.168	570.21
581.619	577.41
582.07	571.01
582.521	579.21
582.972	576.71
583.423	573.61
583.875	581.21
584.326	608.21
584.777	633.41
585.227	712.01
585.678	773.81
586.129	849.11
586.58	918.71
587.031	989.71
587.482	1143.91
587.933	1301.61
588.384	1118.31
588.834	835.51
589.285	700.21
589.736	670.21
590.186	657.21
590.637	649.61
591.088	634.51
591.538	627.71
591.989	622.01
592.439	617.11
592.89	609.81
593.34	613.91
593.791	596.11
594.241	601.31
594.692	599.41
595.142	588.41
595.593	584.31
596.043	605.21
596.493	603.91
596.943	600.51
597.394	609.81
597.844	597.91
598.294	620.71
598.744	636.71
599.195	658.21
599.645	682.41
600.095	716.41
600.545	769.51
600.995	806.41
601.445	864.41
601.895	924.31
602.345	960.61
602.795	938.41
603.245	901.21
603.695	854.01
604.145	809.51
604.594	772.31
605.044	717.81
605.494	669.71
605.944	644.51
606.393	625.61
606.843	610.61
607.293	611.21
607.743	607.81
608.192	620.61
608.642	638.31
609.091	636.21
609.541	646.01
609.99	651.21
610.44	648.21
610.889	605.11
611.339	576.31
611.788	556.61
612.238	582.31
612.687	599.11
613.136	598.91
613.586	613.91
614.035	617.01
614.484	624.21
614.933	629.31
615.383	614.91
615.832	616.51
616.281	606.61
616.73	567.91
617.179	557.31
617.628	542.41
618.077	530.31
618.526	518.81
618.975	516.91
619.424	507.31
619.873	505.71
620.322	513.51
620.771	509.01
621.22	500.01
621.669	487.61
622.118	495.61
622.567	480.51
623.015	470.11
623.464	475.31
623.913	456.71
624.361	460.41
624.81	456.21
625.259	457.41
625.707	454.81
626.156	460.71
626.604	478.11
627.053	463.51
627.501	463.31
627.95	472.31
628.398	483.31
628.847	467.41
629.295	469.71
629.744	470.71
630.192	472.51
630.64	462.31
631.089	460.71
631.537	475.91
631.985	475.91
632.433	485.21
632.881	492.21
633.33	539.51
633.778	526.41
634.226	456.91
634.674	475.01
635.122	474.21
635.57	489.71
636.018	513.21
636.466	476.71
636.914	452.01
637.362	465.61
637.81	465.21
638.258	478.51
638.705	473.61
639.153	488.61
639.601	499.21
640.049	524.31
640.497	554.71
640.944	573.81
641.392	521.91
641.84	496.01
642.287	477.91
642.735	466.71
643.182	468.41
643.63	474.11
644.078	468.31
644.525	481.11
644.973	485.91
645.42	490.21
645.867	505.31
646.315	520.11
646.762	542.61
647.21	561.81
647.657	580.01
648.104	609.01
648.551	630.41
648.999	679.71
649.446	741.11
649.893	812.61
650.34	931.31
650.787	1120.51
651.234	1395.61
651.682	1802.41
652.129	2452.31
652.576	3514.31
653.023	5223.51
653.47	7240.31
653.917	9148.71
654.363	10798.91
654.81	12130.81
655.257	11544.61
655.704	7444.31
656.151	4366.61
656.598	2818.41
657.044	2001.11
657.491	1529.31
657.938	1215.11
658.385	1019.51
658.831	878.81
659.278	789.61
659.724	694.01
660.171	649.61
660.618	581.11
661.064	556.61
661.511	537.71
661.957	523.71
662.404	509.41
662.85	515.61
663.296	496.61
663.743	452.81
664.189	434.61
664.635	437.91
665.082	428.11
665.528	424.91
665.974	422.21
666.42	416.11
666.867	411.11
667.313	386.51
667.759	393.51
668.205	386.51
668.651	398.81
669.097	394.91
669.543	406.41
669.989	383.31
670.435	371.21
670.881	355.31
671.327	358.61
671.773	381.31
672.219	395.51
672.665	434.61
673.11	460.51
673.556	507.61
674.002	539.81
674.448	532.51
674.893	442.71
675.339	389.41
675.785	357.41
676.23	339.51
676.676	315.91
677.122	305.11
677.567	292.41
678.013	298.51
678.458	295.41
678.904	291.01
679.349	279.21
679.794	279.91
680.24	281.81
680.685	280.41
681.131	275.31
681.576	284.41
682.021	291.21
682.466	278.61
682.912	278.91
683.357	283.41
683.802	303.61
684.247	330.51
684.692	364.91
685.137	396.61
685.583	430.91
686.028	460.41
686.473	419.41
686.918	359.41
687.363	334.51
687.807	320.51
688.252	292.11
688.697	283.01
689.142	266.91
689.587	268.81
690.032	258.21
690.477	276.31
690.921	275.11
691.366	299.41
691.811	324.61
692.255	344.31
692.7	372.01
693.145	397.61
693.589	536.21
694.034	870.01
694.478	1222.11
694.923	1436.41
695.367	1880.51
695.812	976.01
696.256	408.51
696.701	298.61
697.145	276.31
697.59	258.91
698.034	255.81
698.478	261.61
698.922	263.11
699.367	259.61
699.811	271.31
700.255	289.91
700.699	303.71
701.143	336.41
701.588	377.81
702.032	421.61
702.476	412.31
702.92	394.31
703.364	387.61
703.808	498.31
704.252	797.51
704.696	1145.51
705.14	1363.01
705.584	1778.51
706.027	866.11
706.471	416.41
706.915	311.71
707.359	278.41
707.803	262.71
708.246	248.51
708.69	251.51
709.134	252.51
709.577	249.41
710.021	254.41
710.465	243.21
710.908	235.01
711.352	239.51
711.795	244.71
712.239	277.51
712.682	302.51
713.126	327.41
713.569	377.41
714.012	302.31
714.456	263.11
714.899	239.61
715.342	220.61
715.786	205.41
716.229	204.81
716.672	198.61
717.115	195.21
717.558	204.21
718.002	193.81
718.445	207.71
718.888	224.11
719.331	232.81
719.774	247.31
720.217	240.31
720.66	220.71
721.103	212.01
721.546	205.51
721.989	191.71
722.432	180.31
722.874	191.41
723.317	178.01
723.76	188.21
724.203	204.71
724.645	250.11
725.088	349.41
725.531	453.91
725.974	530.41
726.416	446.91
726.859	246.71
727.301	197.51
727.744	186.81
728.187	184.51
728.629	186.91
729.071	191.21
729.514	210.41
729.956	210.71
730.399	226.31
730.841	230.91
731.283	214.11
731.726	210.41
732.168	205.21
732.61	211.61
733.053	231.41
733.495	245.21
733.937	279.71
734.379	315.41
734.821	347.71
735.263	424.71
735.705	638.31
736.148	1211.51
736.59	2041.31
737.032	2529.61
737.474	2048.61
737.916	656.81
738.357	337.31
738.799	259.41
739.241	235.91
739.683	228.61
740.125	238.91
740.567	237.71
741.008	252.21
741.45	249.71
741.892	251.91
742.334	274.41
742.775	282.91
743.217	274.71
743.658	218.51
744.1	199.51
744.542	205.61
744.983	240.61
745.425	272.01
745.866	278.01
746.307	230.01
746.749	225.71
747.19	256.41
747.632	348.01
748.073	664.21
748.514	1430.41
748.956	2288.11
749.397	2860.91
749.838	2400.51
750.279	2451.21
750.72	1221.81
751.162	435.41
751.603	251.31
752.044	194.91
752.485	170.51
752.926	165.91
753.367	162.11
753.808	159.41
754.249	147.21
754.69	142.11
755.131	142.31
755.572	139.81
756.013	141.41
756.453	147.61
756.894	147.71
757.335	147.91
757.776	149.21
758.216	148.31
758.657	156.51
759.098	157.11
759.538	175.51
759.979	210.61
760.42	290.11
760.86	533.61
761.301	1389.51
761.741	3487.91
762.182	5383.61
762.622	3799.01
763.063	1076.61
763.503	445.91
763.943	282.51
764.384	267.81
764.824	327.61
765.264	362.01
765.705	248.91
766.145	165.81
766.585	148.11
767.025	134.41
767.465	145.51
767.906	191.91
768.346	260.51
768.786	282.21
769.226	211.21
769.666	253.51
770.106	476.01
770.546	1198.21
770.986	2162.51
771.426	1971.61
771.866	649.41
772.306	265.01
772.745	163.01
773.185	145.81
773.625	132.91
774.065	130.91
774.505	155.21
774.944	236.41
775.384	527.91
775.824	985.61
776.263	1006.11
776.703	412.21
777.142	177.91
777.582	123.51
778.021	105.11
778.461	114.31
778.9	114.01
779.34	112.31
779.779	96.01
780.219	84.91
780.658	80.21
781.097	84.11
781.537	94.51
781.976	89.11
782.415	88.11
782.855	80.71
783.294	78.91
783.733	82.41
784.172	81.41
784.611	80.41
785.05	87.51
785.489	90.11
785.928	89.21
786.367	97.91
786.806	87.41
787.245	101.61
787.684	109.41
788.123	115.31
788.562	109.41
789.001	100.81
789.44	95.81
789.879	94.11
790.317	89.61
790.756	105.61
791.195	99.51
791.634	117.51
792.072	155.61
792.511	274.21
792.95	771.21
793.388	1739.21
793.827	1627.51
794.265	556.81
794.704	221.51
795.142	156.11
795.581	122.81
796.019	107.21
796.458	102.61
796.896	96.91
797.334	102.71
797.773	124.61
798.211	173.81
798.649	331.41
799.087	814.51
799.526	1277.71
799.964	1593.31
800.402	1680.11
800.84	628.81
801.278	237.71
801.716	149.41
802.154	119.01
802.592	116.51
803.03	115.11
803.468	105.71
803.906	114.31
804.344	117.71
804.782	112.91
805.22	104.21
805.658	98.61
806.096	118.21
806.533	122.51
806.971	140.01
807.409	171.51
807.847	237.71
808.284	496.11
808.722	1454.91
809.16	2695.91
809.597	2484.71
810.035	4421.01
810.472	4950.11
810.91	1737.11
811.347	642.41
811.785	319.71
812.222	210.31
812.66	158.01
813.097	128.51
813.535	108.11
813.972	100.41
814.409	96.61
814.846	85.01
815.284	86.91
815.721	80.71
816.158	78.51
816.595	94.91
817.032	142.91
817.47	164.31
817.907	144.01
818.344	116.51
818.781	88.91
819.218	82.11
819.655	99.21
820.092	148.61
820.529	173.31
820.966	150.21
821.403	110.81
821.839	83.01
822.276	83.51
822.713	97.31
823.15	110.91
823.587	95.71
824.023	114.61
824.46	223.91
824.897	706.21
825.333	1137.51
825.77	475.41
826.206	183.51
826.643	107.31
827.08	81.81
827.516	64.51
827.953	62.01
828.389	67.51
828.825	59.11
829.262	52.31
829.698	49.41
830.135	48.21
830.571	46.61
831.007	47.51
831.443	51.01
831.88	49.71
832.316	49.31
832.752	50.11
833.188	50.51
833.624	51.71
834.06	53.91
834.497	58.31
834.933	60.91
835.369	62.61
835.805	51.21
836.241	59.71
836.677	70.01
837.112	72.01
837.548	77.71
837.984	99.11
838.42	155.11
838.856	377.71
839.292	1201.11
839.727	1929.21
840.163	884.41
840.599	726.51
841.034	1640.21
841.47	1806.91
841.906	651.31
842.341	262.41
842.777	189.51
843.212	252.61
843.648	263.81
844.083	118.11
844.519	73.61
844.954	65.01
845.39	44.31
845.825	46.11
846.261	43.91
846.696	43.61
847.131	45.31
847.566	49.01
848.002	39.51
848.437	44.41
848.872	47.61
849.307	46.81
849.742	61.11
850.177	135.21
850.613	440.81
851.048	726.61
851.483	313.01
851.918	126.91
852.353	69.01
852.788	43.71
853.223	40.41
853.657	41.31
854.092	32.81
854.527	31.11
854.962	33.21
855.397	39.91
855.832	40.41
856.266	26.71
856.701	32.01
857.136	29.61
857.57	36.11
858.005	42.31
858.44	51.21
858.874	34.81
859.309	42.61
859.743	27.41
860.178	36.31
860.612	28.51
861.047	38.21
861.481	56.51
861.915	54.01
862.35	42.71
862.784	28.11
863.218	23.81
863.653	25.71
864.087	37.01
864.521	46.31
864.955	48.41
865.39	123.81
865.824	134.21
866.258	88.61
866.692	132.31
867.126	152.61
867.56	82.11
867.994	44.01
868.428	30.11
868.862	37.91
869.296	41.81
869.73	46.51
870.164	39.21
870.598	39.31
871.031	22.71
871.465	24.31
871.899	29.81
872.333	16.21
872.766	18.81
873.2	18.61
873.634	24.81
874.067	19.81
874.501	20.81
874.935	34.11
875.368	28.21
875.802	24.11
876.235	17.41
876.669	20.41
877.102	16.71
877.535	22.61
877.969	16.91
878.402	17.51
878.836	14.51
879.269	20.81
879.702	17.01
880.135	18.01
880.569	14.61
881.002	26.71
881.435	13.71
881.868	11.31
882.301	21.21
882.734	12.21
883.167	17.21
883.601	19.51
884.034	13.91
884.467	8.41
884.899	13.51
885.332	16.31
885.765	12.41
886.198	8.01
886.631	17.91
887.064	8.51
887.497	11.91
887.929	14.11
888.362	11.61
888.795	7.71
889.228	16.31
889.66	18.71
890.093	10.01
890.526	13.91
890.958	12.41
891.391	10.81
891.823	14.81
892.256	10.61
892.688	12.81
893.121	11.81
893.553	10.01
893.985	18.81
894.418	9.91
894.85	9.41
895.282	9.31
895.715	9.41
896.147	11.01
896.579	10.31
897.011	9.11
897.444	17.21
897.876	7.41
898.308	12.61
898.74	11.81
899.172	11.91
899.604	22.71
900.036	17.21
900.468	9.21
900.9	10.21
901.332	9.81
901.764	5.31
902.196	14.91
902.628	14.41
903.06	12.91
903.491	24.71
903.923	18.61
904.355	21.11
904.787	20.71
905.218	18.91
905.65	11.71
906.082	5.01
906.513	13.31
906.945	16.41
907.376	11.11
907.808	16.01
908.239	17.01
908.671	13.51
909.102	17.81
909.534	20.81
909.965	36.71
910.397	73.51
910.828	257.71
911.259	403.71
911.691	181.81
912.122	86.01
912.553	39.21
912.984	22.41
913.415	21.31
913.847	20.51
914.278	11.11
914.709	8.51
915.14	13.21
915.571	15.71
916.002	12.31
916.433	22.11
916.864	16.01
917.295	11.21
917.726	12.71
918.157	11.21
918.587	24.21
919.018	15.11
919.449	16.21
919.88	14.21
920.311	20.01
920.741	32.31
921.172	139.91
921.603	125.71
922.033	56.11
922.464	39.41
922.895	22.11
923.325	18.91
923.756	5.81
924.186	8.11
924.617	20.71
925.047	29.41
925.478	44.81
925.908	41.91
926.338	19.51
926.769	10.61
927.199	21.31
927.629	2.71
928.06	14.21
928.49	10.21
928.92	13.51
929.35	12.11
929.78	11.51
930.21	5.61
930.641	1.91
931.071	6.31
931.501	2.21
931.931	6.91
932.361	3.41
932.791	-4.29
933.221	5.11
933.651	1.31
934.08	15.21
934.51	26.41
934.94	8.41
935.37	5.51
935.8	5.41
936.229	6.31
936.659	6.51
937.089	-2.29
937.519	13.21
937.948	17.81
938.378	18.01
938.807	5.01
939.237	4.71
939.666	6.61
940.096	-0.79
940.525	5.81
940.955	0.41
941.384	3.81
941.814	-6.29
942.243	0.91
942.672	-0.69
943.102	-0.59
943.531	4.01
943.96	0.61
944.39	2.71
944.819	1.21
945.248	3.01
945.677	-3.39
946.106	-1.09
946.535	5.91
946.964	-2.09
947.393	4.41
947.822	2.71
948.251	-4.49
948.68	8.11
949.109	6.91
949.538	3.71
949.967	-1.49
950.396	-1.69
950.825	-3.59
951.254	0.81
951.682	-1.59
952.111	5.61
952.54	4.01
952.969	-2.49
953.397	-7.89
953.826	0.51
954.254	-0.69
954.683	3.01
955.112	-6.89
955.54	3.11
955.969	-0.79
956.397	2.21
956.826	-4.89
957.254	7.61
957.682	0.11
958.111	9.21
958.539	2.51
958.967	1.81
959.396	-5.39
959.824	-2.59
960.252	7.01
960.68	-4.69
961.109	-4.69
961.537	-4.09
961.965	6.61
962.393	-0.39
962.821	0.51
963.249	0.01
963.677	4.71
964.105	0.21
964.533	35.91
964.961	30.31
965.389	16.91
965.817	2.51
966.245	1.51
966.672	1.31
967.1	-8.79
967.528	0.61
967.956	-6.19
968.383	1.11
968.811	-2.29
969.239	-5.09
969.666	-5.99
970.094	-2.99
970.522	-0.89
970.949	-4.49
971.377	-7.79
971.804	-3.39
972.232	-3.09
972.659	-5.19
973.087	-7.59
973.514	1.71
973.941	-6.79
974.369	4.81
974.796	0.71
975.223	0.21
975.651	-1.39
976.078	1.41
976.505	3.51
976.932	4.51
977.359	18.21
977.786	10.51
978.214	1.01
978.641	-3.49
979.068	-5.69
979.495	-5.99
979.922	-2.09
980.349	-8.49
980.776	2.21
981.202	-1.69
981.629	8.81
982.056	0.61
982.483	-5.29
982.91	-0.09
983.337	-6.59
983.763	3.41
984.19	-6.69
984.617	-5.99
985.043	-6.19
985.47	-6.59
985.897	-7.79
986.323	-9.89
986.75	5.11
987.176	-6.39
987.603	-2.89
988.029	0.21
988.456	-2.39
988.882	0.01
989.308	-5.79
989.735	-13.59
990.161	-1.79
990.587	-7.69
991.014	1.21
991.44	14.31
991.866	-0.19
992.292	-2.69
992.719	-2.79
993.145	4.91
993.571	-12.19
993.997	-8.69
994.423	-3.39
994.849	-0.49
995.275	0.11
995.701	0.41
996.127	-4.29
996.553	1.41
996.979	-2.59
997.405	-2.79
997.83	-4.99
998.256	-3.39
998.682	-5.99
999.108	-9.59
999.534	-7.49
999.959	-7.79
1000.385	-3.39
1000.811	1.61
1001.236	-6.59
1001.662	-4.49
1002.087	-5.69
1002.513	-6.09
1002.938	0.21
1003.364	-7.39
1003.789	1.01
1004.215	1.21
1004.64	-0.59
1005.066	-0.39
1005.491	4.61
1005.916	-4.89
1006.342	-5.49
1006.767	-6.69
1007.192	4.71
1007.617	-1.39
1008.042	-0.49
1008.468	-5.69
1008.893	-2.19
1009.318	-3.59
1009.743	2.21
1010.168	3.11
1010.593	2.31
1011.018	-9.49
1011.443	-6.49
1011.868	5.11
1012.293	0.41
1012.718	-4.19
1013.143	-0.49
1013.567	2.81
1013.992	-4.69
1014.417	-13.19
1014.842	1.01
1015.267	-6.39
1015.691	-1.29
1016.116	-1.79
1016.541	-4.49
1016.965	4.81
1017.39	10.21
1017.814	1.11
1018.239	-2.99
1018.663	-4.19
1019.088	-7.49
1019.512	2.41
1019.937	-3.79
1020.361	-4.39
1020.785	-7.49
1021.21	-0.39
1021.634	-3.59
1022.058	2.11
1022.483	2.01
1022.907	-9.19
1023.331	-12.59
1023.755	0.11
1024.179	-6.19
1024.604	-4.79
1025.028	-6.49
1025.452	-9.29
1025.876	-0.19
1026.3	3.61
1026.724	-11.59
1027.148	-4.39
1027.572	-3.79
1027.996	-5.69
1028.42	-3.19
1028.843	-1.09
1029.267	-5.69
1029.691	-1.69
1030.115	-5.49
1030.539	-5.19
1030.962	-8.09
1031.386	-11.59
1031.81	-2.49
1032.233	1.01
1032.657	-2.19
1033.08	-4.19
1033.504	-4.49
1033.927	-4.09
1034.351	-0.89
1034.774	-3.69
1035.198	-5.89
1035.621	-13.19
1036.045	-10.49
1036.468	-1.69
1036.891	-8.29
1037.315	-7.99
1037.738	-11.79
1038.161	-0.29
1038.584	-4.59
1039.008	-2.89
1039.431	0.61
1039.854	-2.09
1040.277	-6.79
1040.7	-12.89
1041.123	-0.79
1041.546	-5.19
1041.969	-4.29
1042.392	-8.99
1042.815	0.41
1043.238	-1.39
1043.661	0.41
1044.084	-10.49
1044.507	-4.69
1044.93	-0.79
1045.352	-4.39
1045.775	-3.99
1046.198	-2.09
1046.621	-1.89
1047.043	3.81
1047.466	7.51
1047.889	-9.69
1048.311	-7.29
1048.734	-4.19
1049.156	-4.09
1049.579	-4.09
1050.001	-8.49
1050.424	-3.49
1050.846	-0.39
1051.269	-7.39
1051.691	-8.39
1052.113	-6.49
1052.536	-4.39
1052.958	-8.39
1053.38	-2.29
1053.802	-9.39
1054.225	6.11
1054.647	-2.89
1055.069	-6.69
1055.491	7.31
1055.913	-6.29
1056.335	-0.79
1056.757	-0.89
1057.179	-3.89
1057.601	-7.39
1058.023	-3.29
1058.445	-5.39
1058.867	-6.19
1059.289	0.01
1059.711	-11.49
1060.133	-0.59
1060.555	-4.29
1060.976	-9.09
1061.398	-2.09
1061.82	-2.69
1062.241	-5.39
1062.663	-7.49
1063.085	-3.09
1063.506	-1.09
1063.928	-1.79
1064.35	-2.99
1064.771	-11.49
1065.193	-0.49
1065.614	-6.29
1066.035	-8.39
1066.457	-1.59
1066.878	-0.79
1067.3	-7.49
1067.721	-7.09
1068.142	-3.59
1068.564	-6.59
1068.985	-0.99
1069.406	-2.29
1069.827	0.11
1070.248	-3.69
1070.67	-4.19
1071.091	-2.29
1071.512	-3.09
1071.933	-3.49
1072.354	-6.39
1072.775	-3.79
1073.196	-7.29
1073.617	-6.89
1074.038	-7.69
1074.459	-1.59
1074.88	-9.39
1075.3	1.91
1075.721	-8.49
1076.142	-6.19
1076.563	-0.29
1076.983	-7.59
1077.404	-7.89
1077.825	-11.29
1078.246	-7.59
1078.666	-9.19
1079.087	-4.09
1079.507	-3.89
1079.928	3.01
1080.348	-0.49
1080.769	-6.69
1081.189	0.51
1081.61	-0.29
1082.03	-9.79
1082.451	-8.99
1082.871	-7.09
1083.291	-2.69
1083.711	-4.49
1084.132	-3.99
1084.552	-3.09
1084.972	3.31
1085.392	-15.59
1085.813	-11.69
1086.233	-8.69
1086.653	-10.49
1087.073	-6.09
1087.493	-5.29
1087.913	-13.59
1088.333	-10.59
1088.753	-6.79
1089.173	-1.29
1089.593	-3.59
1090.013	-3.59
1090.433	0.21
1090.852	-1.29
1091.272	4.31
1091.692	0.51
1092.112	-6.09
1092.531	-6.89
1092.951	-13.09
1093.371	-1.49
1093.79	1.21
1094.21	2.31
1094.63	-3.29
1095.049	-4.49
1095.469	2.01
1095.888	-6.99
1096.308	3.41
1096.727	1.71
1097.146	-7.19
1097.566	1.61
1097.985	-1.99
1098.405	4.61
1098.824	-7.79
1099.243	-6.69
1099.662	-8.79
1100.082	-4.09
1100.501	-0.19
1100.92	-4.09
1101.339	-5.09
1101.758	-5.29
