Data from 20171114-ORNL-Ar_H_NY_Subt18_08-04-03-700.txt Node
Date: Tue Nov 14 08:04:03 EST 2017
User: Ender
Spectrometer: HR+D1039
Trigger mode: 0
Integration Time (sec): 2.730000E-2
Scans to average: 10
Electric dark correction enabled: true
Nonlinearity correction enabled: false
Boxcar width: 0
XAxis mode: Wavelengths
Number of Pixels in Spectrum: 2048
>>>>>Begin Spectral Data<<<<<
187.836	-6.04
188.309	-6.04
188.782	-6.04
189.255	-3.74
189.728	-3.84
190.201	9.56
190.674	1.96
191.147	3.26
191.619	-7.14
192.092	5.66
192.565	1.06
193.038	0.36
193.511	-5.24
193.984	1.66
194.456	-0.74
194.929	0.86
195.402	-2.24
195.874	4.56
196.347	-0.54
196.82	-3.24
197.292	10.56
197.765	-0.14
198.237	-4.04
198.71	4.76
199.182	-3.24
199.655	-2.24
200.127	0.46
200.6	-1.04
201.072	-4.44
201.544	-5.74
202.017	-5.04
202.489	6.16
202.961	1.06
203.433	-4.04
203.906	-5.54
204.378	-8.84
204.85	-5.64
205.322	-9.64
205.794	-7.34
206.266	-3.24
206.739	-4.54
207.211	6.06
207.683	-9.44
208.155	-3.04
208.627	-6.94
209.099	-4.44
209.57	-7.84
210.042	-3.64
210.514	-5.24
210.986	2.56
211.458	-5.74
211.93	-7.34
212.402	4.56
212.873	-6.44
213.345	-4.54
213.817	-13.14
214.288	2.26
214.76	-10.14
215.232	3.16
215.703	-2.94
216.175	-3.64
216.646	-8.74
217.118	-5.34
217.589	-1.64
218.061	0.86
218.532	1.26
219.004	-3.84
219.475	-1.24
219.946	-3.94
220.418	0.16
220.889	-5.04
221.36	-0.34
221.832	-5.64
222.303	-11.04
222.774	-1.84
223.245	-7.54
223.717	-7.54
224.188	-2.54
224.659	-8.64
225.13	-5.84
225.601	-1.34
226.072	0.36
226.543	3.86
227.014	3.76
227.485	-1.04
227.956	-2.24
228.427	0.56
228.898	-0.94
229.369	5.56
229.839	-2.74
230.31	-8.34
230.781	2.66
231.252	-5.04
231.722	-2.24
232.193	-7.94
232.664	-3.24
233.135	-2.94
233.605	-1.54
234.076	-5.04
234.546	-2.24
235.017	4.06
235.487	-5.14
235.958	-2.74
236.428	-3.94
236.899	-0.74
237.369	7.76
237.84	-0.24
238.31	2.16
238.78	1.46
239.251	-2.24
239.721	5.96
240.191	-0.14
240.662	7.26
241.132	-4.84
241.602	1.26
242.072	1.36
242.542	0.46
243.013	-0.04
243.483	-1.24
243.953	4.06
244.423	-1.94
244.893	-10.24
245.363	-1.54
245.833	-1.74
246.303	-4.04
246.773	4.06
247.243	3.16
247.712	8.06
248.182	1.46
248.652	1.26
249.122	-0.04
249.592	0.86
250.061	11.36
250.531	28.96
251.001	7.76
251.471	13.96
251.94	21.06
252.41	3.46
252.879	0.36
253.349	10.36
253.818	3.06
254.288	5.06
254.757	-5.44
255.227	-5.74
255.696	-5.04
256.166	4.56
256.635	3.66
257.105	10.56
257.574	3.16
258.043	5.26
258.513	7.26
258.982	10.06
259.451	0.86
259.92	4.76
260.389	4.96
260.859	11.06
261.328	5.36
261.797	11.96
262.266	1.56
262.735	3.86
263.204	2.56
263.673	0.66
264.142	7.56
264.611	-3.14
265.08	2.76
265.549	-1.74
266.018	1.16
266.487	-3.34
266.955	-2.34
267.424	-2.34
267.893	4.66
268.362	-2.34
268.83	2.86
269.299	8.26
269.768	3.16
270.236	-0.64
270.705	-2.24
271.174	1.36
271.642	7.36
272.111	2.56
272.579	5.56
273.048	16.76
273.516	14.56
273.985	17.06
274.453	20.46
274.922	12.06
275.39	6.56
275.858	-8.44
276.327	12.86
276.795	15.26
277.263	1.06
277.731	19.76
278.2	36.06
278.668	38.06
279.136	34.56
279.604	14.56
280.072	9.66
280.54	6.06
281.008	3.36
281.477	5.96
281.945	4.56
282.413	6.86
282.881	11.66
283.348	4.16
283.816	10.46
284.284	10.26
284.752	13.86
285.22	2.66
285.688	8.76
286.156	13.16
286.623	34.66
287.091	28.96
287.559	14.16
288.026	8.86
288.494	7.66
288.962	-2.34
289.429	4.66
289.897	15.56
290.364	11.06
290.832	9.76
291.3	6.66
291.767	16.56
292.234	13.86
292.702	2.46
293.169	12.36
293.637	14.36
294.104	19.26
294.571	1.46
295.039	3.06
295.506	11.16
295.973	9.46
296.44	11.26
296.908	8.76
297.375	13.16
297.842	9.06
298.309	8.96
298.776	5.46
299.243	14.36
299.71	7.96
300.177	16.76
300.644	7.86
301.111	16.56
301.578	11.86
302.045	4.96
302.512	15.96
302.979	15.36
303.446	13.56
303.913	13.56
304.379	10.86
304.846	16.96
305.313	21.66
305.78	18.36
306.246	20.06
306.713	20.06
307.18	17.86
307.646	17.36
308.113	16.06
308.579	15.86
309.046	19.46
309.512	16.26
309.979	13.16
310.445	19.16
310.912	23.86
311.378	19.46
311.845	23.36
312.311	19.66
312.777	22.96
313.244	24.96
313.71	27.26
314.176	26.36
314.642	29.16
315.109	17.96
315.575	22.06
316.041	31.16
316.507	21.16
316.973	27.16
317.439	23.06
317.905	26.36
318.371	18.86
318.837	26.66
319.303	23.66
319.769	24.76
320.235	30.36
320.701	34.26
321.167	32.16
321.633	29.56
322.099	28.46
322.564	29.76
323.03	26.66
323.496	23.26
323.962	28.36
324.427	30.76
324.893	35.26
325.359	26.56
325.824	25.06
326.29	32.36
326.755	27.76
327.221	31.36
327.686	28.16
328.152	33.76
328.617	37.76
329.083	37.46
329.548	46.56
330.014	38.86
330.479	30.36
330.944	31.46
331.41	37.16
331.875	31.46
332.34	36.86
332.805	32.06
333.271	34.16
333.736	32.86
334.201	41.36
334.666	43.56
335.131	43.16
335.596	42.36
336.061	42.86
336.526	28.86
336.991	36.66
337.456	41.86
337.921	34.86
338.386	32.76
338.851	38.16
339.316	36.16
339.781	33.76
340.246	41.76
340.711	34.56
341.175	38.86
341.64	30.96
342.105	40.16
342.569	44.66
343.034	46.96
343.499	43.86
343.963	41.76
344.428	51.76
344.893	53.06
345.357	47.36
345.822	50.86
346.286	53.56
346.751	55.06
347.215	55.26
347.679	60.56
348.144	69.46
348.608	62.26
349.073	52.36
349.537	58.26
350.001	63.76
350.465	66.46
350.93	60.06
351.394	62.86
351.858	57.76
352.322	71.86
352.786	59.36
353.25	77.76
353.715	86.26
354.179	77.16
354.643	89.16
355.107	92.26
355.571	88.36
356.035	75.56
356.498	80.16
356.962	92.76
357.426	94.26
357.89	80.76
358.354	68.36
358.818	66.66
359.281	64.96
359.745	59.16
360.209	61.16
360.673	65.56
361.136	66.56
361.6	70.76
362.064	71.76
362.527	72.56
362.991	75.16
363.454	63.46
363.918	62.06
364.381	62.46
364.845	71.06
365.308	70.56
365.772	74.26
366.235	71.96
366.698	70.26
367.162	75.36
367.625	77.36
368.088	74.76
368.552	69.06
369.015	73.06
369.478	79.56
369.941	82.66
370.404	77.46
370.867	84.16
371.331	89.76
371.794	89.66
372.257	91.66
372.72	95.46
373.183	97.26
373.646	87.46
374.109	89.66
374.572	93.06
375.035	83.06
375.497	88.36
375.96	88.06
376.423	86.96
376.886	86.86
377.349	86.36
377.811	85.46
378.274	95.26
378.737	93.46
379.199	95.76
379.662	97.76
380.125	97.26
380.587	97.36
381.05	99.76
381.512	112.36
381.975	119.16
382.437	110.86
382.9	115.36
383.362	107.16
383.825	115.76
384.287	119.66
384.75	119.46
385.212	126.96
385.674	123.46
386.136	116.46
386.599	113.16
387.061	110.76
387.523	113.06
387.985	117.56
388.447	127.86
388.91	124.16
389.372	135.26
389.834	133.36
390.296	119.26
390.758	139.96
391.22	142.36
391.682	164.86
392.144	230.66
392.606	193.06
393.068	136.96
393.529	146.16
393.991	133.96
394.453	120.36
394.915	140.76
395.377	161.26
395.838	173.76
396.3	127.66
396.762	121.16
397.224	115.56
397.685	118.16
398.147	119.76
398.608	114.96
399.07	117.56
399.531	113.76
399.993	120.66
400.454	135.96
400.916	130.76
401.377	124.76
401.839	133.46
402.3	127.06
402.762	140.46
403.223	163.66
403.684	159.26
404.145	142.46
404.607	138.36
405.068	145.16
405.529	144.56
405.99	157.96
406.451	155.76
406.913	145.06
407.374	140.16
407.835	146.86
408.296	145.96
408.757	145.46
409.218	164.76
409.679	159.16
410.14	158.96
410.601	163.06
411.062	163.86
411.522	169.96
411.983	164.76
412.444	159.66
412.905	159.46
413.366	165.06
413.826	171.76
414.287	190.96
414.748	233.36
415.208	219.76
415.669	196.06
416.13	186.26
416.59	177.16
417.051	192.36
417.511	193.16
417.972	213.46
418.432	225.56
418.893	264.26
419.353	231.26
419.814	179.96
420.274	162.06
420.734	164.46
421.195	173.56
421.655	169.56
422.115	172.76
422.576	161.96
423.036	175.76
423.496	186.66
423.956	189.06
424.416	202.06
424.876	239.36
425.336	236.26
425.797	228.06
426.257	228.86
426.717	210.26
427.177	204.06
427.637	200.36
428.097	211.16
428.556	217.16
429.016	247.36
429.476	225.16
429.936	233.26
430.396	238.96
430.856	254.66
431.315	272.56
431.775	304.66
432.235	332.16
432.694	308.96
433.154	310.96
433.614	323.46
434.073	287.56
434.533	246.96
434.993	239.56
435.452	239.46
435.912	256.76
436.371	250.36
436.83	243.16
437.29	234.66
437.749	211.76
438.209	216.66
438.668	228.56
439.127	241.66
439.587	226.46
440.046	208.86
440.505	221.36
440.964	241.36
441.424	265.16
441.883	258.56
442.342	221.16
442.801	193.56
443.26	200.26
443.719	195.26
444.178	189.66
444.637	188.36
445.096	197.76
445.555	203.46
446.014	197.76
446.473	204.66
446.932	203.86
447.391	200.86
447.849	208.96
448.308	198.16
448.767	195.06
449.226	212.36
449.685	207.56
450.143	223.06
450.602	211.96
451.061	203.96
451.519	206.56
451.978	205.76
452.436	206.66
452.895	209.06
453.353	224.16
453.812	209.06
454.27	212.76
454.729	210.66
455.187	213.26
455.646	212.56
456.104	219.96
456.562	222.86
457.021	237.26
457.479	222.46
457.937	231.36
458.395	229.26
458.854	212.86
459.312	216.26
459.77	234.36
460.228	216.06
460.686	206.86
461.144	223.26
461.602	216.26
462.06	217.76
462.518	225.26
462.976	227.46
463.434	230.46
463.892	228.26
464.35	237.26
464.808	249.16
465.266	233.86
465.724	241.26
466.181	246.66
466.639	243.06
467.097	260.46
467.555	263.76
468.012	269.86
468.47	273.76
468.928	293.16
469.385	293.16
469.843	299.46
470.3	302.36
470.758	314.56
471.215	325.86
471.673	343.26
472.13	339.56
472.588	351.46
473.045	331.56
473.503	324.36
473.96	348.06
474.417	350.26
474.875	380.06
475.332	416.26
475.789	395.56
476.246	408.16
476.704	424.06
477.161	438.26
477.618	455.66
478.075	481.86
478.532	524.46
478.989	581.16
479.446	669.06
479.903	662.46
480.36	702.16
480.817	752.76
481.274	836.46
481.731	931.16
482.188	1002.06
482.645	1129.66
483.102	1219.96
483.558	1331.96
484.015	1395.26
484.472	1376.76
484.929	1334.16
485.385	1293.66
485.842	1255.56
486.299	1190.66
486.755	1111.96
487.212	946.96
487.668	815.56
488.125	751.56
488.582	696.36
489.038	655.86
489.494	630.56
489.951	599.46
490.407	586.06
490.864	569.16
491.32	563.86
491.776	556.46
492.233	555.96
492.689	538.16
493.145	527.16
493.602	527.06
494.058	540.86
494.514	535.86
494.97	557.76
495.426	549.56
495.882	538.96
496.338	522.06
496.794	552.76
497.251	539.56
497.707	551.96
498.163	550.76
498.618	550.96
499.074	555.86
499.53	575.06
499.986	583.86
500.442	554.66
500.898	544.76
501.354	538.86
501.809	549.66
502.265	559.36
502.721	571.26
503.177	576.76
503.632	577.86
504.088	583.26
504.543	600.86
504.999	607.86
505.455	568.26
505.91	559.26
506.366	551.96
506.821	550.96
507.277	543.86
507.732	541.26
508.187	549.16
508.643	555.76
509.098	538.66
509.553	566.56
510.009	570.66
510.464	580.76
510.919	590.26
511.375	598.96
511.83	604.06
512.285	623.66
512.74	646.26
513.195	664.76
513.65	662.26
514.105	672.46
514.56	660.16
515.015	675.36
515.47	687.96
515.925	679.66
516.38	679.76
516.835	689.16
517.29	679.06
517.745	670.56
518.2	657.76
518.655	643.26
519.109	634.26
519.564	638.06
520.019	631.46
520.474	620.06
520.928	630.36
521.383	626.86
521.838	603.96
522.292	617.76
522.747	615.76
523.201	607.26
523.656	609.06
524.11	600.36
524.565	599.46
525.019	592.16
525.474	601.36
525.928	590.56
526.382	592.66
526.837	594.86
527.291	599.06
527.745	594.26
528.2	597.86
528.654	588.46
529.108	585.56
529.562	589.96
530.016	594.46
530.47	582.26
530.925	583.36
531.379	593.36
531.833	595.16
532.287	597.96
532.741	596.06
533.195	594.26
533.649	609.56
534.103	610.56
534.556	592.26
535.01	614.16
535.464	591.76
535.918	593.66
536.372	593.96
536.826	599.56
537.279	596.46
537.733	603.56
538.187	600.56
538.64	595.86
539.094	602.36
539.548	615.36
540.001	603.26
540.455	603.86
540.908	614.86
541.362	616.46
541.815	626.56
542.269	638.76
542.722	644.86
543.175	647.16
543.629	647.06
544.082	663.96
544.536	656.26
544.989	657.36
545.442	666.86
545.895	670.96
546.349	665.16
546.802	669.06
547.255	666.76
547.708	667.36
548.161	680.76
548.614	681.36
549.067	693.56
549.52	692.56
549.973	681.06
550.426	674.86
550.879	665.06
551.332	676.26
551.785	665.66
552.238	678.16
552.691	680.26
553.144	684.66
553.596	700.66
554.049	719.06
554.502	737.36
554.955	752.36
555.407	757.46
555.86	755.36
556.313	730.16
556.765	725.56
557.218	730.26
557.67	727.56
558.123	722.16
558.576	719.16
559.028	730.96
559.48	732.56
559.933	721.56
560.385	688.96
560.838	665.56
561.29	646.36
561.742	637.46
562.195	622.56
562.647	628.36
563.099	625.46
563.551	633.46
564.004	636.06
564.456	627.96
564.908	626.56
565.36	610.36
565.812	590.86
566.264	595.26
566.716	581.16
567.168	577.16
567.62	584.36
568.072	577.76
568.524	566.36
568.976	551.16
569.428	542.06
569.88	550.46
570.332	547.46
570.784	553.26
571.235	555.96
571.687	557.26
572.139	565.26
572.59	575.86
573.042	572.96
573.494	576.56
573.945	561.56
574.397	544.66
574.849	546.76
575.3	561.66
575.752	552.66
576.203	552.56
576.655	553.46
577.106	539.46
577.557	530.36
578.009	541.06
578.46	535.66
578.912	530.16
579.363	536.36
579.814	534.16
580.265	522.86
580.717	527.96
581.168	534.86
581.619	544.56
582.07	536.66
582.521	541.06
582.972	541.06
583.423	536.16
583.875	540.16
584.326	557.26
584.777	592.76
585.227	642.96
585.678	711.16
586.129	778.96
586.58	838.16
587.031	907.86
587.482	1049.16
587.933	1186.96
588.384	1035.06
588.834	776.06
589.285	643.26
589.736	624.86
590.186	612.86
590.637	610.56
591.088	602.06
591.538	582.66
591.989	574.96
592.439	571.86
592.89	570.16
593.34	556.06
593.791	564.76
594.241	547.26
594.692	555.86
595.142	552.26
595.593	551.96
596.043	556.96
596.493	556.96
596.943	558.16
597.394	563.86
597.844	558.96
598.294	574.96
598.744	595.16
599.195	614.36
599.645	636.56
600.095	666.56
600.545	712.66
600.995	748.16
601.445	802.76
601.895	846.36
602.345	892.16
602.795	887.46
603.245	848.06
603.695	785.26
604.145	748.66
604.594	711.06
605.044	677.56
605.494	625.26
605.944	586.16
606.393	580.56
606.843	563.16
607.293	567.26
607.743	562.66
608.192	568.56
608.642	587.26
609.091	595.26
609.541	592.56
609.99	581.96
610.44	584.46
610.889	562.86
611.339	531.26
611.788	534.46
612.238	540.66
612.687	551.86
613.136	553.66
613.586	572.66
614.035	564.36
614.484	569.86
614.933	585.86
615.383	573.86
615.832	549.96
616.281	556.16
616.73	527.56
617.179	512.16
617.628	496.26
618.077	490.66
618.526	475.16
618.975	476.76
619.424	467.56
619.873	476.96
620.322	476.16
620.771	468.06
621.22	465.16
621.669	459.36
622.118	449.86
622.567	440.86
623.015	437.46
623.464	434.56
623.913	428.76
624.361	418.86
624.81	430.06
625.259	424.26
625.707	426.56
626.156	419.96
626.604	434.16
627.053	431.96
627.501	425.36
627.95	433.66
628.398	441.26
628.847	433.96
629.295	441.46
629.744	441.26
630.192	434.76
630.64	438.26
631.089	421.56
631.537	432.36
631.985	437.06
632.433	431.26
632.881	438.66
633.33	476.26
633.778	461.06
634.226	420.46
634.674	431.76
635.122	420.26
635.57	447.46
636.018	463.06
636.466	436.06
636.914	419.26
637.362	429.56
637.81	441.36
638.258	434.66
638.705	431.86
639.153	459.96
639.601	459.96
640.049	477.96
640.497	506.66
640.944	525.36
641.392	494.16
641.84	468.66
642.287	449.96
642.735	430.36
643.182	430.06
643.63	427.86
644.078	436.06
644.525	439.86
644.973	448.06
645.42	441.36
645.867	465.26
646.315	475.36
646.762	492.76
647.21	518.06
647.657	526.46
648.104	559.16
648.551	579.66
648.999	621.96
649.446	674.06
649.893	738.46
650.34	847.76
650.787	1016.06
651.234	1266.16
651.682	1617.86
652.129	2206.46
652.576	3156.26
653.023	4669.76
653.47	6528.86
653.917	8209.56
654.363	9688.06
654.81	10998.56
655.257	10450.06
655.704	6789.96
656.151	3988.66
656.598	2546.86
657.044	1810.36
657.491	1396.06
657.938	1105.56
658.385	922.96
658.831	802.56
659.278	722.96
659.724	642.76
660.171	588.96
660.618	525.86
661.064	506.76
661.511	487.66
661.957	470.66
662.404	453.76
662.85	470.36
663.296	452.36
663.743	410.46
664.189	394.66
664.635	395.26
665.082	387.66
665.528	389.96
665.974	383.76
666.42	375.56
666.867	373.66
667.313	359.36
667.759	352.16
668.205	349.26
668.651	353.36
669.097	359.26
669.543	375.46
669.989	353.56
670.435	331.86
670.881	328.36
671.327	329.36
671.773	347.76
672.219	352.96
672.665	403.96
673.11	434.06
673.556	459.06
674.002	504.56
674.448	484.46
674.893	406.06
675.339	360.86
675.785	330.26
676.23	313.76
676.676	286.86
677.122	285.06
677.567	272.16
678.013	271.76
678.458	266.06
678.904	264.16
679.349	256.26
679.794	256.56
680.24	259.26
680.685	252.46
681.131	255.06
681.576	258.26
682.021	259.16
682.466	257.26
682.912	256.16
683.357	261.96
683.802	274.26
684.247	300.56
684.692	328.26
685.137	359.26
685.583	398.66
686.028	402.56
686.473	384.66
686.918	326.66
687.363	305.66
687.807	294.46
688.252	268.76
688.697	258.56
689.142	251.36
689.587	249.36
690.032	244.96
690.477	246.36
690.921	254.96
691.366	282.26
691.811	292.26
692.255	320.26
692.7	339.66
693.145	363.56
693.589	491.46
694.034	797.46
694.478	1113.46
694.923	1310.06
695.367	1734.96
695.812	905.46
696.256	370.16
696.701	272.26
697.145	255.96
697.59	238.86
698.034	234.76
698.478	248.06
698.922	238.26
699.367	233.96
699.811	244.96
700.255	258.66
700.699	268.86
701.143	304.96
701.588	345.56
702.032	387.46
702.476	382.06
702.92	367.16
703.364	358.96
703.808	455.16
704.252	736.26
704.696	1052.36
705.14	1255.46
705.584	1633.86
706.027	800.16
706.471	391.66
706.915	290.76
707.359	260.96
707.803	231.46
708.246	224.66
708.69	226.86
709.134	228.66
709.577	220.76
710.021	239.26
710.465	222.26
710.908	213.86
711.352	223.36
711.795	226.26
712.239	247.56
712.682	270.36
713.126	302.16
713.569	344.56
714.012	282.16
714.456	230.76
714.899	227.16
715.342	203.36
715.786	191.46
716.229	193.36
716.672	192.06
717.115	188.76
717.558	180.26
718.002	186.56
718.445	191.46
718.888	203.46
719.331	215.66
719.774	227.56
720.217	220.06
720.66	205.46
721.103	192.26
721.546	180.36
721.989	182.26
722.432	160.56
722.874	169.96
723.317	163.96
723.76	165.56
724.203	186.46
724.645	222.66
725.088	306.86
725.531	410.96
725.974	480.06
726.416	396.16
726.859	220.86
727.301	176.46
727.744	173.46
728.187	167.16
728.629	181.36
729.071	177.26
729.514	197.56
729.956	197.66
730.399	201.76
730.841	210.26
731.283	200.16
731.726	185.26
732.168	192.46
732.61	195.56
733.053	206.36
733.495	226.66
733.937	245.96
734.379	284.86
734.821	313.36
735.263	394.66
735.705	587.26
736.148	1112.86
736.59	1870.06
737.032	2338.96
737.474	1903.56
737.916	600.36
738.357	315.56
738.799	238.46
739.241	213.16
739.683	208.06
740.125	211.16
740.567	212.36
741.008	235.96
741.45	234.06
741.892	239.16
742.334	251.16
742.775	272.56
743.217	254.06
743.658	198.96
744.1	188.76
744.542	197.06
744.983	236.36
745.425	262.76
745.866	268.46
746.307	212.56
746.749	201.26
747.19	232.16
747.632	321.16
748.073	597.16
748.514	1308.86
748.956	2102.46
749.397	2608.56
749.838	2195.36
750.279	2272.26
750.72	1138.46
751.162	407.86
751.603	237.76
752.044	188.86
752.485	154.86
752.926	149.56
753.367	143.86
753.808	148.46
754.249	138.36
754.69	134.56
755.131	130.96
755.572	132.66
756.013	129.06
756.453	130.16
756.894	134.06
757.335	134.66
757.776	138.46
758.216	140.66
758.657	144.56
759.098	145.16
759.538	160.26
759.979	182.96
760.42	259.06
760.86	488.26
761.301	1264.46
761.741	3209.66
762.182	5049.56
762.622	3542.86
763.063	1000.66
763.503	396.46
763.943	255.76
764.384	251.96
764.824	295.86
765.264	321.36
765.705	222.36
766.145	150.66
766.585	134.16
767.025	124.56
767.465	130.96
767.906	170.26
768.346	225.66
768.786	250.86
769.226	186.36
769.666	220.76
770.106	426.46
770.546	1095.66
770.986	2001.56
771.426	1826.76
771.866	593.26
772.306	238.16
772.745	152.56
773.185	126.36
773.625	124.96
774.065	114.86
774.505	135.66
774.944	202.96
775.384	443.76
775.824	838.66
776.263	839.56
776.703	354.56
777.142	159.26
777.582	108.76
778.021	99.06
778.461	101.16
778.9	97.36
779.34	98.36
779.779	80.76
780.219	81.16
780.658	80.46
781.097	81.36
781.537	82.96
781.976	81.06
782.415	74.26
782.855	74.76
783.294	71.76
783.733	70.46
784.172	80.16
784.611	73.36
785.05	76.56
785.489	73.36
785.928	79.56
786.367	87.46
786.806	82.66
787.245	93.76
787.684	105.16
788.123	112.86
788.562	94.06
789.001	92.46
789.44	91.26
789.879	80.76
790.317	80.76
790.756	96.56
791.195	91.56
791.634	103.96
792.072	143.86
792.511	247.06
792.95	707.86
793.388	1603.06
793.827	1529.06
794.265	510.66
794.704	206.96
795.142	133.96
795.581	116.86
796.019	102.46
796.458	97.66
796.896	85.76
797.334	86.36
797.773	116.16
798.211	154.16
798.649	299.46
799.087	730.96
799.526	1178.36
799.964	1492.56
800.402	1566.16
800.84	571.16
801.278	219.76
801.716	137.36
802.154	113.96
802.592	106.56
803.03	102.76
803.468	90.36
803.906	105.86
804.344	111.76
804.782	104.16
805.22	92.56
805.658	88.96
806.096	102.56
806.533	117.66
806.971	127.86
807.409	154.36
807.847	232.56
808.284	465.06
808.722	1333.36
809.16	2511.36
809.597	2304.66
810.035	4128.66
810.472	4660.86
810.91	1639.46
811.347	593.86
811.785	303.26
812.222	188.86
812.66	152.16
813.097	120.46
813.535	107.26
813.972	92.46
814.409	89.46
814.846	81.96
815.284	84.56
815.721	67.66
816.158	75.96
816.595	88.96
817.032	135.26
817.47	148.36
817.907	125.56
818.344	102.66
818.781	78.36
819.218	72.36
819.655	91.56
820.092	139.86
820.529	167.56
820.966	135.76
821.403	100.16
821.839	77.26
822.276	74.86
822.713	86.66
823.15	102.86
823.587	85.86
824.023	102.16
824.46	203.56
824.897	634.76
825.333	1045.86
825.77	440.06
826.206	166.06
826.643	100.06
827.08	78.86
827.516	62.56
827.953	61.46
828.389	61.36
828.825	47.16
829.262	43.16
829.698	44.76
830.135	47.86
830.571	45.86
831.007	45.06
831.443	44.76
831.88	50.26
832.316	47.06
832.752	49.66
833.188	50.26
833.624	46.36
834.06	48.36
834.497	51.36
834.933	52.16
835.369	57.16
835.805	44.96
836.241	51.56
836.677	54.26
837.112	66.76
837.548	70.36
837.984	100.26
838.42	135.96
838.856	352.46
839.292	1118.66
839.727	1807.06
840.163	823.16
840.599	676.66
841.034	1534.76
841.47	1683.86
841.906	598.46
842.341	250.96
842.777	164.16
843.212	224.96
843.648	226.36
844.083	111.16
844.519	64.36
844.954	56.56
845.39	44.06
845.825	49.26
846.261	39.06
846.696	38.46
847.131	31.86
847.566	43.66
848.002	39.76
848.437	40.36
848.872	39.66
849.307	38.06
849.742	58.76
850.177	128.76
850.613	404.06
851.048	675.26
851.483	287.76
851.918	108.86
852.353	54.46
852.788	44.96
853.223	42.86
853.657	43.76
854.092	38.06
854.527	34.36
854.962	31.36
855.397	28.86
855.832	37.26
856.266	30.56
856.701	32.06
857.136	32.16
857.57	24.56
858.005	41.66
858.44	49.56
858.874	29.06
859.309	39.06
859.743	21.76
860.178	34.16
860.612	32.76
861.047	37.56
861.481	54.26
861.915	56.26
862.35	33.86
862.784	23.96
863.218	28.36
863.653	23.56
864.087	37.76
864.521	37.16
864.955	43.16
865.39	116.76
865.824	130.76
866.258	80.86
866.692	132.36
867.126	144.46
867.56	84.06
867.994	40.36
868.428	24.96
868.862	38.66
869.296	45.46
869.73	42.06
870.164	42.96
870.598	36.36
871.031	27.66
871.465	26.46
871.899	25.76
872.333	16.06
872.766	18.36
873.2	18.06
873.634	22.06
874.067	20.56
874.501	19.96
874.935	24.56
875.368	15.76
875.802	19.36
876.235	15.26
876.669	12.66
877.102	14.46
877.535	16.76
877.969	11.86
878.402	20.26
878.836	13.76
879.269	12.76
879.702	15.16
880.135	9.76
880.569	16.16
881.002	26.36
881.435	13.96
881.868	14.36
882.301	21.56
882.734	14.96
883.167	18.96
883.601	12.36
884.034	12.46
884.467	6.36
884.899	10.66
885.332	9.16
885.765	8.26
886.198	11.86
886.631	16.56
887.064	11.56
887.497	17.36
887.929	18.56
888.362	4.76
888.795	8.26
889.228	11.86
889.66	13.16
890.093	13.16
890.526	15.36
890.958	9.46
891.391	11.16
891.823	15.76
892.256	8.56
892.688	5.36
893.121	4.66
893.553	10.16
893.985	17.66
894.418	13.96
894.85	3.46
895.282	13.36
895.715	7.06
896.147	12.96
896.579	17.26
897.011	14.96
897.444	9.36
897.876	4.16
898.308	15.46
898.74	10.76
899.172	2.86
899.604	13.66
900.036	15.96
900.468	12.06
900.9	9.16
901.332	12.36
901.764	12.36
902.196	19.96
902.628	11.96
903.06	9.36
903.491	21.66
903.923	19.86
904.355	16.26
904.787	16.76
905.218	13.96
905.65	11.46
906.082	10.06
906.513	7.16
906.945	9.96
907.376	11.36
907.808	13.36
908.239	15.06
908.671	18.66
909.102	15.46
909.534	16.56
909.965	31.26
910.397	64.46
910.828	240.56
911.259	372.96
911.691	173.96
912.122	75.36
912.553	35.26
912.984	29.06
913.415	22.16
913.847	19.06
914.278	9.26
914.709	11.76
915.14	7.96
915.571	12.26
916.002	16.16
916.433	18.96
916.864	15.46
917.295	2.36
917.726	15.86
918.157	9.36
918.587	24.26
919.018	14.06
919.449	16.86
919.88	17.96
920.311	18.06
920.741	30.76
921.172	119.66
921.603	115.66
922.033	53.46
922.464	32.96
922.895	11.56
923.325	15.76
923.756	11.36
924.186	11.66
924.617	21.46
925.047	21.86
925.478	30.86
925.908	30.16
926.338	17.36
926.769	9.16
927.199	16.76
927.629	3.96
928.06	16.16
928.49	9.16
928.92	10.26
929.35	9.06
929.78	11.66
930.21	5.86
930.641	2.96
931.071	11.46
931.501	4.66
931.931	4.06
932.361	2.46
932.791	7.56
933.221	5.16
933.651	3.56
934.08	13.36
934.51	22.36
934.94	8.46
935.37	2.66
935.8	9.76
936.229	2.36
936.659	10.56
937.089	-3.84
937.519	6.36
937.948	17.66
938.378	14.06
938.807	0.46
939.237	2.46
939.666	12.06
940.096	-2.84
940.525	-1.44
940.955	1.26
941.384	4.46
941.814	-5.84
942.243	-3.54
942.672	0.66
943.102	-11.04
943.531	-1.14
943.96	-0.04
944.39	7.26
944.819	1.96
945.248	3.36
945.677	0.66
946.106	1.36
946.535	6.96
946.964	3.96
947.393	4.06
947.822	-4.54
948.251	-4.24
948.68	4.46
949.109	3.16
949.538	8.36
949.967	0.46
950.396	2.76
950.825	2.46
951.254	1.56
951.682	-7.24
952.111	0.86
952.54	-0.14
952.969	-2.04
953.397	-6.14
953.826	-3.34
954.254	-3.54
954.683	2.36
955.112	2.06
955.54	-3.44
955.969	1.06
956.397	-1.34
956.826	0.56
957.254	3.36
957.682	1.56
958.111	1.26
958.539	1.06
958.967	1.66
959.396	1.86
959.824	6.66
960.252	-1.14
960.68	-1.24
961.109	0.36
961.537	-2.04
961.965	-0.54
962.393	-0.74
962.821	3.76
963.249	0.36
963.677	6.96
964.105	-1.74
964.533	33.46
964.961	27.06
965.389	13.26
965.817	3.76
966.245	4.16
966.672	0.86
967.1	-8.14
967.528	-1.64
967.956	-5.64
968.383	2.36
968.811	-5.94
969.239	3.66
969.666	-3.14
970.094	-1.84
970.522	-0.84
970.949	-1.54
971.377	2.26
971.804	-8.54
972.232	-3.74
972.659	-1.94
973.087	-0.24
973.514	-3.74
973.941	-10.04
974.369	5.56
974.796	3.06
975.223	0.56
975.651	-4.24
976.078	-0.14
976.505	-4.04
976.932	5.36
977.359	13.56
977.786	8.06
978.214	3.36
978.641	-1.94
979.068	-0.44
979.495	-4.74
979.922	-5.54
980.349	-1.04
980.776	5.36
981.202	0.36
981.629	9.86
982.056	1.46
982.483	3.66
982.91	-2.04
983.337	-6.34
983.763	1.56
984.19	1.36
984.617	-3.24
985.043	-1.54
985.47	1.66
985.897	-1.64
986.323	-1.24
986.75	4.96
987.176	-4.04
987.603	1.86
988.029	-2.74
988.456	-2.84
988.882	-3.64
989.308	-3.94
989.735	-7.74
990.161	2.76
990.587	-4.64
991.014	-2.04
991.44	4.16
991.866	-5.24
992.292	-5.34
992.719	-3.64
993.145	1.76
993.571	-8.24
993.997	-4.74
994.423	-2.64
994.849	-10.74
995.275	-2.04
995.701	2.66
996.127	-6.64
996.553	-4.94
996.979	4.46
997.405	2.36
997.83	-6.24
998.256	-1.94
998.682	-2.84
999.108	-11.04
999.534	-1.84
999.959	-0.04
1000.385	-7.04
1000.811	0.76
1001.236	-8.44
1001.662	-6.24
1002.087	-13.14
1002.513	-7.24
1002.938	3.56
1003.364	0.06
1003.789	4.16
1004.215	-0.04
1004.64	-0.44
1005.066	3.96
1005.491	1.76
1005.916	-3.44
1006.342	-3.34
1006.767	-8.04
1007.192	0.06
1007.617	-3.24
1008.042	-6.64
1008.468	-6.74
1008.893	-3.74
1009.318	-5.94
1009.743	-4.64
1010.168	-2.44
1010.593	4.06
1011.018	-10.84
1011.443	0.06
1011.868	6.06
1012.293	0.16
1012.718	-0.84
1013.143	3.26
1013.567	-0.34
1013.992	-6.44
1014.417	-10.34
1014.842	-1.44
1015.267	-5.14
1015.691	-6.84
1016.116	13.06
1016.541	-1.04
1016.965	0.86
1017.39	3.46
1017.814	-0.64
1018.239	-2.94
1018.663	-9.34
1019.088	-9.54
1019.512	-3.44
1019.937	2.96
1020.361	-1.44
1020.785	-7.64
1021.21	-8.74
1021.634	-9.34
1022.058	-3.94
1022.483	4.06
1022.907	-1.94
1023.331	-2.94
1023.755	-1.74
1024.179	-5.44
1024.604	-4.34
1025.028	-4.54
1025.452	0.76
1025.876	-2.84
1026.3	0.56
1026.724	-15.74
1027.148	-6.94
1027.572	-12.14
1027.996	-4.34
1028.42	-2.84
1028.843	-0.74
1029.267	-7.04
1029.691	-6.34
1030.115	-6.24
1030.539	-9.44
1030.962	-9.94
1031.386	-6.34
1031.81	-8.04
1032.233	-1.94
1032.657	3.56
1033.08	3.66
1033.504	-1.34
1033.927	-2.14
1034.351	3.46
1034.774	-8.34
1035.198	1.56
1035.621	-3.24
1036.045	-9.74
1036.468	1.26
1036.891	-12.84
1037.315	-6.94
1037.738	-8.44
1038.161	0.26
1038.584	-4.24
1039.008	-5.24
1039.431	-4.94
1039.854	0.56
1040.277	-9.34
1040.7	-5.54
1041.123	0.76
1041.546	-11.24
1041.969	-6.54
1042.392	-10.24
1042.815	1.46
1043.238	1.36
1043.661	1.76
1044.084	-2.14
1044.507	-3.84
1044.93	-3.54
1045.352	-1.34
1045.775	0.06
1046.198	-1.54
1046.621	-8.04
1047.043	-0.24
1047.466	10.16
1047.889	-7.34
1048.311	-8.34
1048.734	-5.94
1049.156	-4.34
1049.579	-1.64
1050.001	-5.54
1050.424	1.06
1050.846	-8.84
1051.269	-0.64
1051.691	-7.54
1052.113	-3.04
1052.536	4.46
1052.958	-7.84
1053.38	-8.64
1053.802	-13.64
1054.225	3.06
1054.647	-9.84
1055.069	-3.74
1055.491	-1.34
1055.913	-5.94
1056.335	-2.64
1056.757	-9.64
1057.179	-5.04
1057.601	-6.74
1058.023	1.86
1058.445	-2.34
1058.867	-9.74
1059.289	-7.84
1059.711	-3.84
1060.133	-4.54
1060.555	-2.14
1060.976	-11.54
1061.398	-4.84
1061.82	-7.84
1062.241	-8.14
1062.663	-5.24
1063.085	-4.64
1063.506	-4.74
1063.928	-1.94
1064.35	-0.64
1064.771	-9.84
1065.193	-2.04
1065.614	-13.34
1066.035	-2.74
1066.457	-0.44
1066.878	-1.84
1067.3	-0.94
1067.721	-3.14
1068.142	-4.74
1068.564	-3.24
1068.985	-6.04
1069.406	-4.54
1069.827	-5.14
1070.248	-1.24
1070.67	-12.04
1071.091	3.26
1071.512	-11.64
1071.933	-11.64
1072.354	-7.64
1072.775	-5.34
1073.196	-10.54
1073.617	-5.04
1074.038	-6.64
1074.459	-4.04
1074.88	-8.74
1075.3	-3.34
1075.721	-10.44
1076.142	-7.54
1076.563	0.76
1076.983	-7.84
1077.404	-7.44
1077.825	-6.84
1078.246	-5.74
1078.666	-10.24
1079.087	-11.74
1079.507	-5.84
1079.928	2.56
1080.348	1.26
1080.769	-8.84
1081.189	-4.14
1081.61	3.96
1082.03	-10.84
1082.451	-4.24
1082.871	-4.14
1083.291	-4.64
1083.711	-9.24
1084.132	-9.14
1084.552	-5.94
1084.972	-6.94
1085.392	-9.04
1085.813	-11.14
1086.233	-6.94
1086.653	-4.14
1087.073	-3.74
1087.493	-6.84
1087.913	-6.14
1088.333	-5.24
1088.753	-1.24
1089.173	5.96
1089.593	-5.74
1090.013	5.56
1090.433	-0.34
1090.852	0.16
1091.272	-4.24
1091.692	-0.04
1092.112	-1.84
1092.531	-4.64
1092.951	-11.64
1093.371	-3.34
1093.79	5.26
1094.21	-1.74
1094.63	0.16
1095.049	-6.14
1095.469	-3.24
1095.888	1.06
1096.308	0.36
1096.727	8.26
1097.146	-4.04
1097.566	-3.34
1097.985	-4.94
1098.405	-0.84
1098.824	-3.44
1099.243	-2.74
1099.662	-7.04
1100.082	-7.34
1100.501	-3.14
1100.92	-5.44
1101.339	-4.64
1101.758	-7.64
