Data from 20171114-ORNL-Ar_H_NY_Subt18_08-03-48-686.txt Node
Date: Tue Nov 14 08:03:48 EST 2017
User: Ender
Spectrometer: HR+D1039
Trigger mode: 0
Integration Time (sec): 2.730000E-2
Scans to average: 10
Electric dark correction enabled: true
Nonlinearity correction enabled: false
Boxcar width: 0
XAxis mode: Wavelengths
Number of Pixels in Spectrum: 2048
>>>>>Begin Spectral Data<<<<<
187.836	-0.27
188.309	-0.27
188.782	-0.27
189.255	3.23
189.728	-3.67
190.201	8.13
190.674	-1.27
191.147	2.73
191.619	-9.37
192.092	2.03
192.565	1.63
193.038	1.83
193.511	0.33
193.984	-0.87
194.456	2.63
194.929	-2.87
195.402	-1.67
195.874	-2.47
196.347	1.93
196.82	-2.67
197.292	5.73
197.765	2.43
198.237	0.53
198.71	5.63
199.182	4.73
199.655	4.63
200.127	4.33
200.6	0.43
201.072	1.43
201.544	-1.07
202.017	1.13
202.489	2.53
202.961	1.43
203.433	2.73
203.906	-2.77
204.378	-1.17
204.85	0.03
205.322	-3.47
205.794	2.53
206.266	-1.27
206.739	-5.97
207.211	5.43
207.683	-5.47
208.155	-4.87
208.627	-1.57
209.099	-0.77
209.57	2.83
210.042	0.83
210.514	-3.07
210.986	2.03
211.458	-5.17
211.93	-3.57
212.402	7.13
212.873	-4.77
213.345	-5.87
213.817	-9.67
214.288	-4.47
214.76	-7.27
215.232	-3.27
215.703	-0.87
216.175	-2.07
216.646	-5.27
217.118	-8.07
217.589	1.63
218.061	3.33
218.532	0.23
219.004	2.63
219.475	-2.07
219.946	-0.37
220.418	-1.87
220.889	5.73
221.36	6.53
221.832	-6.97
222.303	-8.57
222.774	3.03
223.245	-7.87
223.717	-5.67
224.188	-0.67
224.659	-4.67
225.13	-6.17
225.601	-5.87
226.072	-2.37
226.543	-0.07
227.014	3.73
227.485	0.73
227.956	-5.27
228.427	-3.47
228.898	-0.87
229.369	5.33
229.839	-0.47
230.31	-5.27
230.781	7.73
231.252	-3.07
231.722	-10.97
232.193	-2.57
232.664	-3.17
233.135	4.73
233.605	-1.37
234.076	-10.87
234.546	-0.87
235.017	-0.47
235.487	-1.87
235.958	0.83
236.428	-0.57
236.899	-0.37
237.369	-2.17
237.84	0.53
238.31	1.03
238.78	-1.17
239.251	-13.07
239.721	-3.27
240.191	-4.27
240.662	-2.27
241.132	1.33
241.602	-3.57
242.072	4.33
242.542	3.73
243.013	-0.07
243.483	-1.27
243.953	3.93
244.423	-2.87
244.893	-6.97
245.363	0.13
245.833	0.53
246.303	-6.37
246.773	0.13
247.243	-3.87
247.712	-3.77
248.182	1.73
248.652	-6.67
249.122	-6.97
249.592	-3.87
250.061	6.73
250.531	13.53
251.001	-0.17
251.471	9.33
251.94	4.43
252.41	-3.37
252.879	-4.57
253.349	7.93
253.818	4.93
254.288	-0.77
254.757	2.33
255.227	-2.77
255.696	1.53
256.166	3.73
256.635	6.73
257.105	0.23
257.574	-1.77
258.043	5.23
258.513	-0.17
258.982	-1.07
259.451	1.43
259.92	-0.37
260.389	0.03
260.859	7.43
261.328	1.13
261.797	5.93
262.266	2.53
262.735	7.13
263.204	4.73
263.673	0.53
264.142	-0.47
264.611	-8.37
265.08	-2.07
265.549	-1.77
266.018	7.33
266.487	-4.17
266.955	-0.57
267.424	-9.37
267.893	7.43
268.362	0.63
268.83	-1.47
269.299	9.33
269.768	3.53
270.236	1.33
270.705	-7.67
271.174	1.43
271.642	-0.17
272.111	3.93
272.579	0.63
273.048	2.83
273.516	5.43
273.985	10.13
274.453	7.13
274.922	8.03
275.39	5.03
275.858	-4.57
276.327	7.43
276.795	12.53
277.263	2.93
277.731	7.73
278.2	4.33
278.668	6.13
279.136	3.33
279.604	6.13
280.072	7.83
280.54	1.23
281.008	2.53
281.477	5.23
281.945	7.33
282.413	7.73
282.881	12.63
283.348	4.33
283.816	12.33
284.284	13.03
284.752	14.23
285.22	8.43
285.688	10.83
286.156	6.73
286.623	16.23
287.091	2.03
287.559	9.73
288.026	10.73
288.494	8.93
288.962	-3.07
289.429	7.63
289.897	7.23
290.364	14.33
290.832	10.33
291.3	10.83
291.767	10.23
292.234	13.03
292.702	8.93
293.169	9.93
293.637	12.73
294.104	14.63
294.571	6.53
295.039	7.03
295.506	6.53
295.973	14.43
296.44	8.83
296.908	6.63
297.375	5.23
297.842	12.13
298.309	11.63
298.776	10.63
299.243	16.13
299.71	2.43
300.177	14.43
300.644	16.93
301.111	14.73
301.578	12.13
302.045	14.23
302.512	16.83
302.979	14.63
303.446	13.93
303.913	19.33
304.379	17.73
304.846	15.33
305.313	18.83
305.78	17.73
306.246	17.73
306.713	20.03
307.18	14.83
307.646	19.43
308.113	17.83
308.579	15.33
309.046	13.13
309.512	20.83
309.979	17.33
310.445	18.33
310.912	21.83
311.378	29.43
311.845	23.63
312.311	20.23
312.777	29.43
313.244	27.63
313.71	30.03
314.176	17.13
314.642	19.93
315.109	23.23
315.575	25.83
316.041	34.03
316.507	23.83
316.973	23.43
317.439	19.73
317.905	29.63
318.371	20.93
318.837	28.13
319.303	26.93
319.769	28.53
320.235	25.43
320.701	19.63
321.167	31.43
321.633	24.63
322.099	29.93
322.564	40.13
323.03	32.53
323.496	31.03
323.962	31.83
324.427	34.73
324.893	33.83
325.359	35.73
325.824	33.63
326.29	32.33
326.755	28.43
327.221	30.73
327.686	29.03
328.152	37.03
328.617	36.13
329.083	41.53
329.548	48.83
330.014	39.23
330.479	42.73
330.944	35.73
331.41	35.43
331.875	42.03
332.34	38.03
332.805	35.43
333.271	40.63
333.736	34.83
334.201	44.23
334.666	42.53
335.131	46.43
335.596	44.43
336.061	40.53
336.526	34.93
336.991	43.13
337.456	51.63
337.921	43.83
338.386	40.53
338.851	46.73
339.316	47.33
339.781	39.13
340.246	48.33
340.711	41.53
341.175	48.33
341.64	41.13
342.105	40.23
342.569	48.93
343.034	51.13
343.499	47.83
343.963	44.53
344.428	62.33
344.893	55.73
345.357	61.53
345.822	53.83
346.286	57.13
346.751	59.33
347.215	62.93
347.679	65.43
348.144	80.93
348.608	74.33
349.073	58.23
349.537	67.33
350.001	73.73
350.465	80.93
350.93	75.73
351.394	77.13
351.858	66.23
352.322	84.63
352.786	75.33
353.25	90.13
353.715	97.73
354.179	89.43
354.643	103.53
355.107	103.93
355.571	101.73
356.035	85.33
356.498	99.13
356.962	100.03
357.426	107.23
357.89	100.03
358.354	84.83
358.818	83.13
359.281	72.93
359.745	77.93
360.209	78.13
360.673	71.93
361.136	76.93
361.6	80.23
362.064	80.93
362.527	84.13
362.991	82.53
363.454	75.83
363.918	74.63
364.381	79.63
364.845	85.73
365.308	91.63
365.772	88.23
366.235	80.63
366.698	81.93
367.162	83.13
367.625	82.93
368.088	90.33
368.552	89.23
369.015	86.03
369.478	92.53
369.941	98.23
370.404	89.23
370.867	100.13
371.331	103.83
371.794	106.23
372.257	99.23
372.72	106.73
373.183	101.43
373.646	100.43
374.109	98.13
374.572	100.13
375.035	104.83
375.497	107.23
375.96	106.03
376.423	105.33
376.886	107.73
377.349	106.83
377.811	103.73
378.274	106.73
378.737	107.63
379.199	112.13
379.662	108.23
380.125	111.03
380.587	111.33
381.05	113.83
381.512	122.33
381.975	123.23
382.437	121.33
382.9	119.93
383.362	120.63
383.825	128.43
384.287	127.03
384.75	120.53
385.212	125.83
385.674	135.73
386.136	134.03
386.599	129.43
387.061	127.33
387.523	122.53
387.985	131.43
388.447	147.13
388.91	130.63
389.372	135.83
389.834	128.03
390.296	136.23
390.758	141.43
391.22	134.43
391.682	153.13
392.144	155.43
392.606	147.13
393.068	147.13
393.529	157.83
393.991	148.73
394.453	132.83
394.915	137.33
395.377	143.13
395.838	156.83
396.3	144.33
396.762	149.73
397.224	145.23
397.685	135.63
398.147	140.43
398.608	143.43
399.07	142.43
399.531	149.33
399.993	145.93
400.454	165.83
400.916	155.73
401.377	154.33
401.839	167.73
402.3	161.93
402.762	179.03
403.223	189.33
403.684	182.43
404.145	173.53
404.607	170.63
405.068	173.93
405.529	174.83
405.99	192.63
406.451	180.83
406.913	177.33
407.374	172.83
407.835	169.43
408.296	176.13
408.757	178.13
409.218	200.53
409.679	188.23
410.14	184.83
410.601	193.93
411.062	194.13
411.522	191.63
411.983	193.43
412.444	191.93
412.905	196.63
413.366	195.63
413.826	212.83
414.287	236.73
414.748	285.33
415.208	276.33
415.669	227.13
416.13	225.23
416.59	220.63
417.051	232.63
417.511	245.33
417.972	263.13
418.432	276.03
418.893	321.03
419.353	282.33
419.814	220.23
420.274	203.93
420.734	196.93
421.195	211.02
421.655	204.43
422.115	210.83
422.576	208.33
423.036	212.63
423.496	225.63
423.956	235.33
424.416	247.73
424.876	287.63
425.336	279.52
425.797	280.03
426.257	267.73
426.717	250.63
427.177	243.53
427.637	238.23
428.097	240.23
428.556	257.23
429.016	279.93
429.476	269.03
429.936	283.03
430.396	283.62
430.856	291.93
431.315	312.83
431.775	349.73
432.235	381.03
432.694	358.83
433.154	361.63
433.614	369.93
434.073	346.23
434.533	287.63
434.993	279.33
435.452	280.53
435.912	288.73
436.371	286.83
436.83	277.43
437.29	271.02
437.749	245.53
438.209	239.03
438.668	275.03
439.127	283.83
439.587	268.53
440.046	250.63
440.505	259.33
440.964	273.43
441.424	305.43
441.883	299.33
442.342	267.03
442.801	237.83
443.26	240.23
443.719	229.53
444.178	235.33
444.637	231.93
445.096	232.53
445.555	239.93
446.014	240.53
446.473	236.43
446.932	246.23
447.391	247.53
447.849	243.33
448.308	233.13
448.767	232.33
449.226	251.13
449.685	255.93
450.143	261.12
450.602	250.73
451.061	236.53
451.519	244.33
451.978	241.83
452.436	241.73
452.895	245.33
453.353	267.43
453.812	249.93
454.27	246.62
454.729	252.03
455.187	248.43
455.646	255.13
456.104	249.13
456.562	256.33
457.021	277.62
457.479	269.53
457.937	271.53
458.395	271.43
458.854	252.43
459.312	264.13
459.77	274.33
460.228	262.83
460.686	260.03
461.144	262.23
461.602	257.93
462.06	257.63
462.518	272.53
462.976	269.73
463.434	268.73
463.892	269.53
464.35	280.52
464.808	295.63
465.266	275.73
465.724	282.73
466.181	281.73
466.639	280.43
467.097	303.23
467.555	309.73
468.012	305.12
468.47	319.43
468.928	331.13
469.385	341.03
469.843	343.43
470.3	349.63
470.758	352.63
471.215	373.03
471.673	386.03
472.13	398.83
472.588	409.73
473.045	377.03
473.503	383.53
473.96	404.93
474.417	394.33
474.875	426.43
475.332	459.93
475.789	459.43
476.246	467.73
476.704	479.83
477.161	498.13
477.618	495.23
478.075	542.13
478.532	590.63
478.989	650.83
479.446	728.73
479.903	718.83
480.36	761.53
480.817	795.73
481.274	889.03
481.731	982.43
482.188	1053.82
482.645	1166.62
483.102	1255.22
483.558	1366.22
484.015	1423.33
484.472	1413.43
484.929	1362.32
485.385	1321.73
485.842	1294.62
486.299	1251.52
486.755	1187.92
487.212	1026.12
487.668	891.93
488.125	827.23
488.582	752.33
489.038	719.73
489.494	686.13
489.951	658.83
490.407	651.73
490.864	641.23
491.32	631.83
491.776	624.23
492.233	622.73
492.689	594.43
493.145	588.93
493.602	587.43
494.058	598.83
494.514	587.53
494.97	593.53
495.426	606.53
495.882	591.13
496.338	589.03
496.794	601.83
497.251	584.62
497.707	600.23
498.163	603.83
498.618	605.02
499.074	603.03
499.53	631.93
499.986	620.13
500.442	615.13
500.898	590.53
501.354	585.23
501.809	592.83
502.265	593.53
502.721	603.73
503.177	611.13
503.632	619.03
504.088	624.13
504.543	628.03
504.999	633.03
505.455	616.02
505.91	606.83
506.366	600.83
506.821	600.02
507.277	610.93
507.732	613.02
508.187	615.43
508.643	618.13
509.098	615.33
509.553	626.52
510.009	626.73
510.464	629.43
510.919	657.83
511.375	653.03
511.83	662.73
512.285	673.93
512.74	700.73
513.195	721.03
513.65	712.23
514.105	705.63
514.56	705.33
515.015	724.73
515.47	735.63
515.925	728.53
516.38	736.53
516.835	736.43
517.29	730.23
517.745	739.83
518.2	721.93
518.655	695.63
519.109	685.83
519.564	686.23
520.019	674.83
520.474	675.83
520.928	678.03
521.383	673.33
521.838	658.23
522.292	657.43
522.747	666.73
523.201	661.02
523.656	655.63
524.11	653.23
524.565	643.23
525.019	642.03
525.474	649.83
525.928	639.33
526.382	643.12
526.837	648.43
527.291	639.23
527.745	639.93
528.2	637.13
528.654	624.23
529.108	634.53
529.562	627.03
530.016	627.73
530.47	623.93
530.925	624.73
531.379	634.43
531.833	641.33
532.287	626.13
532.741	626.53
533.195	629.93
533.649	635.62
534.103	635.63
534.556	629.13
535.01	630.43
535.464	626.43
535.918	635.93
536.372	636.03
536.826	631.13
537.279	625.63
537.733	636.03
538.187	638.53
538.64	635.23
539.094	631.83
539.548	649.63
540.001	653.02
540.455	646.02
540.908	644.03
541.362	661.73
541.815	671.03
542.269	672.33
542.722	667.62
543.175	683.73
543.629	680.13
544.082	699.73
544.536	699.03
544.989	690.53
545.442	704.33
545.895	702.02
546.349	706.73
546.802	702.52
547.255	707.83
547.708	706.53
548.161	713.52
548.614	723.02
549.067	730.83
549.52	718.93
549.973	711.33
550.426	700.23
550.879	691.53
551.332	696.33
551.785	708.33
552.238	706.83
552.691	711.23
553.144	720.02
553.596	745.23
554.049	740.12
554.502	773.73
554.955	777.63
555.407	783.62
555.86	773.83
556.313	765.93
556.765	751.53
557.218	757.83
557.67	752.13
558.123	753.52
558.576	749.62
559.028	752.23
559.48	753.13
559.933	742.03
560.385	722.13
560.838	699.83
561.29	680.03
561.742	671.73
562.195	652.73
562.647	665.43
563.099	673.23
563.551	659.43
564.004	667.93
564.456	667.33
564.908	634.83
565.36	633.33
565.812	621.93
566.264	615.73
566.716	605.93
567.168	594.63
567.62	606.63
568.072	587.43
568.524	586.23
568.976	584.02
569.428	571.73
569.88	579.62
570.332	569.63
570.784	570.93
571.235	582.73
571.687	587.43
572.139	590.63
572.59	594.93
573.042	589.73
573.494	589.53
573.945	584.83
574.397	567.93
574.849	573.73
575.3	567.83
575.752	563.93
576.203	565.33
576.655	553.83
577.106	557.13
577.557	552.83
578.009	561.53
578.46	551.03
578.912	538.53
579.363	535.23
579.814	542.33
580.265	536.03
580.717	543.93
581.168	545.23
581.619	559.43
582.07	555.63
582.521	557.43
582.972	545.13
583.423	548.93
583.875	550.03
584.326	555.33
584.777	561.13
585.227	584.73
585.678	597.83
586.129	623.93
586.58	645.73
587.031	672.53
587.482	701.43
587.933	747.33
588.384	708.03
588.834	655.03
589.285	629.13
589.736	631.33
590.186	631.63
590.637	621.43
591.088	601.73
591.538	595.13
591.989	584.33
592.439	583.23
592.89	574.23
593.34	564.03
593.791	574.23
594.241	562.53
594.692	558.63
595.142	555.73
595.593	551.23
596.043	562.63
596.493	562.43
596.943	556.73
597.394	567.03
597.844	560.23
598.294	579.03
598.744	595.83
599.195	619.03
599.645	643.23
600.095	671.43
600.545	715.13
600.995	756.53
601.445	806.43
601.895	847.93
602.345	894.93
602.795	877.73
603.245	848.23
603.695	798.23
604.145	753.33
604.594	727.13
605.044	689.53
605.494	638.73
605.944	589.43
606.393	578.93
606.843	562.12
607.293	571.93
607.743	562.23
608.192	572.52
608.642	578.93
609.091	579.33
609.541	583.62
609.99	586.63
610.44	587.13
610.889	543.03
611.339	542.83
611.788	524.03
612.238	536.03
612.687	543.63
613.136	543.43
613.586	547.03
614.035	543.63
614.484	548.12
614.933	545.23
615.383	548.13
615.832	527.53
616.281	531.03
616.73	522.93
617.179	501.43
617.628	492.52
618.077	489.03
618.526	477.43
618.975	471.43
619.424	465.83
619.873	468.23
620.322	468.33
620.771	471.53
621.22	461.93
621.669	451.43
622.118	441.63
622.567	441.03
623.015	439.33
623.464	432.83
623.913	433.13
624.361	423.13
624.81	417.33
625.259	418.53
625.707	417.43
626.156	424.12
626.604	426.93
627.053	424.73
627.501	422.83
627.95	429.73
628.398	439.43
628.847	423.23
629.295	437.93
629.744	428.23
630.192	431.23
630.64	419.23
631.089	404.23
631.537	403.23
631.985	397.73
632.433	398.53
632.881	395.43
633.33	401.63
633.778	399.03
634.226	401.63
634.674	400.53
635.122	405.63
635.57	411.93
636.018	424.62
636.466	421.83
636.914	409.63
637.362	429.73
637.81	435.03
638.258	430.63
638.705	437.23
639.153	454.93
639.601	456.53
640.049	480.33
640.497	502.93
640.944	533.53
641.392	477.03
641.84	461.03
642.287	433.23
642.735	418.03
643.182	420.13
643.63	423.43
644.078	424.13
644.525	434.33
644.973	433.73
645.42	438.93
645.867	444.33
646.315	471.03
646.762	474.63
647.21	499.63
647.657	503.83
648.104	539.83
648.551	549.13
648.999	586.43
649.446	636.63
649.893	696.73
650.34	792.63
650.787	929.03
651.234	1136.83
651.682	1465.03
652.129	1979.72
652.576	2776.43
653.023	4037.83
653.47	5614.93
653.917	7090.43
654.363	8315.93
654.81	9417.12
655.257	8947.52
655.704	5910.33
656.151	3518.03
656.598	2308.43
657.044	1647.12
657.491	1275.53
657.938	1023.12
658.385	862.13
658.831	753.63
659.278	685.83
659.724	595.13
660.171	551.43
660.618	504.43
661.064	483.23
661.511	467.43
661.957	441.33
662.404	435.83
662.85	443.93
663.296	435.03
663.743	397.93
664.189	399.33
664.635	390.23
665.082	382.53
665.528	381.03
665.974	376.23
666.42	365.73
666.867	368.93
667.313	340.63
667.759	331.93
668.205	328.33
668.651	327.23
669.097	330.83
669.543	323.63
669.989	318.43
670.435	325.23
670.881	327.43
671.327	333.62
671.773	338.43
672.219	361.23
672.665	393.03
673.11	422.33
673.556	458.43
674.002	497.83
674.448	475.73
674.893	405.23
675.339	352.23
675.785	324.83
676.23	314.03
676.676	286.53
677.122	279.73
677.567	271.93
678.013	271.43
678.458	261.33
678.904	264.43
679.349	248.73
679.794	250.63
680.24	256.33
680.685	250.12
681.131	248.62
681.576	255.73
682.021	262.03
682.466	258.83
682.912	250.63
683.357	253.63
683.802	276.33
684.247	301.02
684.692	325.23
685.137	365.33
685.583	389.93
686.028	411.83
686.473	379.63
686.918	328.13
687.363	306.03
687.807	285.43
688.252	261.23
688.697	256.13
689.142	243.23
689.587	238.83
690.032	233.13
690.477	246.23
690.921	252.83
691.366	271.23
691.811	288.63
692.255	307.93
692.7	331.03
693.145	354.33
693.589	485.13
694.034	789.83
694.478	1098.83
694.923	1299.22
695.367	1737.83
695.812	897.33
696.256	370.63
696.701	270.53
697.145	248.03
697.59	234.83
698.034	228.33
698.478	237.13
698.922	240.03
699.367	235.83
699.811	242.83
700.255	255.13
700.699	269.23
701.143	294.33
701.588	342.93
702.032	376.13
702.476	375.23
702.92	361.03
703.364	348.23
703.808	447.02
704.252	720.62
704.696	1028.23
705.14	1248.82
705.584	1617.03
706.027	800.13
706.471	387.02
706.915	291.23
707.359	254.12
707.803	227.52
708.246	217.93
708.69	229.13
709.134	230.53
709.577	218.63
710.021	231.73
710.465	217.03
710.908	214.23
711.352	204.03
711.795	222.63
712.239	248.53
712.682	272.83
713.126	299.52
713.569	338.62
714.012	258.83
714.456	219.73
714.899	213.63
715.342	194.03
715.786	188.43
716.229	191.03
716.672	187.73
717.115	178.43
717.558	174.53
718.002	184.23
718.445	192.43
718.888	202.13
719.331	203.93
719.774	227.12
720.217	218.73
720.66	203.13
721.103	199.33
721.546	179.13
721.989	179.43
722.432	159.43
722.874	176.13
723.317	158.63
723.76	164.03
724.203	186.83
724.645	223.63
725.088	310.13
725.531	400.93
725.974	472.93
726.416	398.83
726.859	223.23
727.301	176.23
727.744	173.13
728.187	161.73
728.629	167.73
729.071	173.93
729.514	183.53
729.956	196.03
730.399	204.83
730.841	206.43
731.283	200.23
731.726	195.13
732.168	178.93
732.61	186.43
733.053	199.93
733.495	227.73
733.937	250.43
734.379	285.43
734.821	315.53
735.263	380.03
735.705	575.73
736.148	1087.73
736.59	1839.23
737.032	2313.23
737.474	1900.02
737.916	600.03
738.357	304.23
738.799	234.03
739.241	218.73
739.683	202.52
740.125	204.03
740.567	210.73
741.008	231.43
741.45	235.13
741.892	235.33
742.334	254.63
742.775	276.02
743.217	273.93
743.658	198.13
744.1	187.73
744.542	191.53
744.983	234.63
745.425	277.13
745.866	267.62
746.307	202.93
746.749	201.53
747.19	218.23
747.632	314.03
748.073	597.13
748.514	1288.92
748.956	2060.82
749.397	2604.53
749.838	2173.93
750.279	2251.62
750.72	1125.02
751.162	404.73
751.603	237.93
752.044	185.83
752.485	158.83
752.926	147.83
753.367	143.73
753.808	140.53
754.249	134.43
754.69	136.03
755.131	134.63
755.572	134.23
756.013	125.03
756.453	134.53
756.894	137.03
757.335	130.93
757.776	133.63
758.216	135.33
758.657	142.33
759.098	138.63
759.538	159.33
759.979	188.83
760.42	261.23
760.86	486.93
761.301	1259.32
761.741	3163.22
762.182	5034.12
762.622	3566.33
763.063	989.62
763.503	397.33
763.943	237.43
764.384	205.43
764.824	192.33
765.264	193.33
765.705	160.23
766.145	131.33
766.585	128.93
767.025	119.63
767.465	116.23
767.906	130.43
768.346	160.93
768.786	161.53
769.226	161.43
769.666	209.63
770.106	412.83
770.546	1058.12
770.986	1955.23
771.426	1813.73
771.866	587.93
772.306	235.03
772.745	148.83
773.185	119.33
773.625	110.03
774.065	109.13
774.505	112.93
774.944	154.13
775.384	273.23
775.824	478.93
776.263	487.63
776.703	219.73
777.142	119.33
777.582	94.33
778.021	84.23
778.461	88.03
778.9	92.33
779.34	93.03
779.779	85.13
780.219	74.53
780.658	74.93
781.097	75.33
781.537	77.83
781.976	74.73
782.415	70.13
782.855	70.53
783.294	66.73
783.733	68.53
784.172	76.93
784.611	70.83
785.05	79.23
785.489	80.43
785.928	86.83
786.367	88.93
786.806	81.73
787.245	88.43
787.684	87.83
788.123	100.63
788.562	98.03
789.001	94.43
789.44	86.53
789.879	86.23
790.317	83.33
790.756	92.03
791.195	85.73
791.634	99.63
792.072	143.63
792.511	233.43
792.95	672.73
793.388	1558.92
793.827	1483.03
794.265	494.53
794.704	201.33
795.142	129.93
795.581	115.13
796.019	101.03
796.458	89.93
796.896	81.73
797.334	90.03
797.773	106.13
798.211	150.43
798.649	293.43
799.087	722.13
799.526	1155.23
799.964	1463.72
800.402	1549.53
800.84	581.93
801.278	222.03
801.716	132.23
802.154	109.53
802.592	107.33
803.03	95.43
803.468	95.33
803.906	100.23
804.344	106.73
804.782	103.33
805.22	94.73
805.658	89.43
806.096	109.73
806.533	110.83
806.971	125.43
807.409	159.33
807.847	229.63
808.284	458.23
808.722	1316.83
809.16	2492.12
809.597	2287.12
810.035	4093.53
810.472	4627.33
810.91	1648.43
811.347	614.63
811.785	303.43
812.222	195.73
812.66	146.73
813.097	119.63
813.535	107.23
813.972	91.53
814.409	89.33
814.846	79.33
815.284	81.23
815.721	76.93
816.158	74.63
816.595	79.93
817.032	118.93
817.47	146.13
817.907	108.63
818.344	76.03
818.781	68.03
819.218	70.93
819.655	91.43
820.092	151.93
820.529	181.63
820.966	136.13
821.403	103.43
821.839	77.43
822.276	67.83
822.713	98.23
823.15	108.03
823.587	89.93
824.023	110.23
824.46	199.63
824.897	628.73
825.333	1035.43
825.77	448.13
826.206	174.33
826.643	101.43
827.08	80.23
827.516	58.63
827.953	55.63
828.389	58.93
828.825	49.83
829.262	54.13
829.698	44.43
830.135	47.53
830.571	36.43
831.007	51.03
831.443	48.13
831.88	46.43
832.316	43.63
832.752	46.73
833.188	46.23
833.624	50.63
834.06	54.33
834.497	48.93
834.933	50.33
835.369	59.33
835.805	44.23
836.241	60.33
836.677	62.13
837.112	61.53
837.548	74.73
837.984	93.83
838.42	142.13
838.856	346.93
839.292	1107.72
839.727	1793.52
840.163	829.43
840.599	667.83
841.034	1504.32
841.47	1687.22
841.906	600.03
842.341	247.73
842.777	149.43
843.212	156.73
843.648	149.73
844.083	88.13
844.519	58.73
844.954	48.63
845.39	40.03
845.825	40.13
846.261	36.33
846.696	40.93
847.131	41.03
847.566	40.13
848.002	34.33
848.437	38.73
848.872	44.63
849.307	41.53
849.742	59.83
850.177	125.13
850.613	405.23
851.048	670.33
851.483	291.33
851.918	111.03
852.353	52.83
852.788	36.03
853.223	34.43
853.657	39.03
854.092	36.63
854.527	27.43
854.962	25.13
855.397	34.13
855.832	39.73
856.266	27.33
856.701	29.13
857.136	26.83
857.57	36.43
858.005	41.23
858.44	52.23
858.874	29.73
859.309	37.23
859.743	24.93
860.178	35.23
860.612	25.53
861.047	40.43
861.481	55.23
861.915	54.63
862.35	37.93
862.784	19.13
863.218	28.73
863.653	23.93
864.087	41.03
864.521	47.23
864.955	44.43
865.39	103.93
865.824	128.23
866.258	89.03
866.692	135.83
867.126	157.53
867.56	90.73
867.994	41.53
868.428	26.63
868.862	37.43
869.296	46.13
869.73	42.23
870.164	42.13
870.598	33.43
871.031	32.63
871.465	23.23
871.899	26.23
872.333	18.53
872.766	13.73
873.2	20.13
873.634	18.23
874.067	13.33
874.501	16.63
874.935	27.83
875.368	19.43
875.802	23.73
876.235	21.23
876.669	20.53
877.102	15.23
877.535	19.43
877.969	12.03
878.402	12.63
878.836	15.63
879.269	15.13
879.702	13.83
880.135	17.63
880.569	17.03
881.002	16.83
881.435	17.13
881.868	21.73
882.301	18.13
882.734	16.33
883.167	15.33
883.601	13.43
884.034	18.13
884.467	14.63
884.899	15.23
885.332	10.33
885.765	11.43
886.198	10.93
886.631	10.83
887.064	18.53
887.497	14.13
887.929	18.33
888.362	10.13
888.795	8.13
889.228	9.13
889.66	13.23
890.093	12.53
890.526	13.73
890.958	8.83
891.391	10.93
891.823	13.43
892.256	9.13
892.688	4.53
893.121	16.43
893.553	12.03
893.985	23.03
894.418	19.43
894.85	10.33
895.282	15.33
895.715	15.43
896.147	15.33
896.579	13.33
897.011	5.53
897.444	10.83
897.876	11.53
898.308	7.83
898.74	7.73
899.172	12.43
899.604	18.53
900.036	17.53
900.468	15.93
900.9	9.53
901.332	8.43
901.764	7.33
902.196	15.53
902.628	16.03
903.06	15.03
903.491	20.83
903.923	19.53
904.355	13.13
904.787	15.83
905.218	19.33
905.65	15.03
906.082	8.83
906.513	7.63
906.945	18.83
907.376	7.13
907.808	17.03
908.239	16.33
908.671	8.63
909.102	11.73
909.534	19.23
909.965	36.63
910.397	63.63
910.828	232.53
911.259	373.63
911.691	172.73
912.122	84.13
912.553	44.43
912.984	32.23
913.415	16.23
913.847	23.63
914.278	10.93
914.709	5.43
915.14	9.43
915.571	16.23
916.002	3.13
916.433	14.73
916.864	11.23
917.295	11.43
917.726	14.63
918.157	7.93
918.587	27.23
919.018	16.73
919.449	16.83
919.88	22.13
920.311	22.83
920.741	35.23
921.172	125.23
921.603	110.03
922.033	52.43
922.464	35.43
922.895	14.33
923.325	19.63
923.756	12.83
924.186	10.33
924.617	6.23
925.047	16.13
925.478	22.13
925.908	16.53
926.338	14.73
926.769	16.23
927.199	16.33
927.629	6.23
928.06	10.23
928.49	8.33
928.92	14.63
929.35	12.33
929.78	9.13
930.21	9.53
930.641	8.83
931.071	5.43
931.501	-1.37
931.931	12.03
932.361	4.73
932.791	3.93
933.221	4.13
933.651	6.13
934.08	12.13
934.51	24.33
934.94	6.43
935.37	9.13
935.8	16.93
936.229	11.43
936.659	13.33
937.089	3.83
937.519	15.03
937.948	24.43
938.378	15.93
938.807	7.73
939.237	0.73
939.666	8.43
940.096	-6.37
940.525	10.03
940.955	6.23
941.384	10.33
941.814	-6.47
942.243	-1.97
942.672	5.23
943.102	-3.37
943.531	3.03
943.96	-0.87
944.39	7.23
944.819	-0.77
945.248	0.53
945.677	7.73
946.106	9.33
946.535	5.73
946.964	-2.37
947.393	6.93
947.822	5.83
948.251	-2.27
948.68	0.13
949.109	8.53
949.538	1.93
949.967	-1.07
950.396	3.43
950.825	3.73
951.254	4.83
951.682	-7.67
952.111	10.73
952.54	4.03
952.969	-3.17
953.397	-2.97
953.826	-0.77
954.254	-6.07
954.683	-0.57
955.112	-1.17
955.54	-2.17
955.969	1.23
956.397	-1.57
956.826	-3.07
957.254	3.93
957.682	0.83
958.111	8.73
958.539	-0.97
958.967	-0.37
959.396	-4.27
959.824	5.43
960.252	2.13
960.68	-2.97
961.109	-4.47
961.537	-4.97
961.965	-5.07
962.393	0.53
962.821	-3.27
963.249	2.43
963.677	6.83
964.105	2.03
964.533	33.93
964.961	35.53
965.389	15.53
965.817	5.93
966.245	-0.47
966.672	1.13
967.1	-11.27
967.528	2.13
967.956	-0.17
968.383	2.13
968.811	1.13
969.239	-1.87
969.666	-5.77
970.094	-2.37
970.522	-0.87
970.949	1.13
971.377	-7.47
971.804	-2.27
972.232	1.83
972.659	-4.27
973.087	2.53
973.514	-5.07
973.941	-3.67
974.369	10.03
974.796	2.23
975.223	-1.67
975.651	-5.67
976.078	6.23
976.505	1.63
976.932	8.13
977.359	13.13
977.786	10.53
978.214	-0.67
978.641	-10.17
979.068	-4.17
979.495	-9.17
979.922	-2.27
980.349	-10.37
980.776	5.33
981.202	1.13
981.629	5.83
982.056	1.33
982.483	0.13
982.91	4.33
983.337	-5.87
983.763	1.23
984.19	-5.47
984.617	3.03
985.043	-2.17
985.47	-1.97
985.897	-1.97
986.323	-5.77
986.75	4.33
987.176	-1.17
987.603	1.63
988.029	-4.47
988.456	-1.07
988.882	1.53
989.308	-4.77
989.735	-8.57
990.161	-2.67
990.587	-5.87
991.014	1.73
991.44	7.73
991.866	-2.87
992.292	0.83
992.719	-2.37
993.145	3.23
993.571	-5.17
993.997	-0.47
994.423	-0.87
994.849	-2.77
995.275	-0.77
995.701	-5.17
996.127	-3.57
996.553	-3.37
996.979	0.73
997.405	3.53
997.83	-6.07
998.256	0.33
998.682	-4.17
999.108	-6.77
999.534	-3.47
999.959	-3.97
1000.385	-2.77
1000.811	6.63
1001.236	-11.67
1001.662	-5.87
1002.087	-8.47
1002.513	-1.07
1002.938	2.83
1003.364	-2.87
1003.789	3.53
1004.215	4.63
1004.64	3.63
1005.066	-9.67
1005.491	0.23
1005.916	-3.77
1006.342	-3.77
1006.767	1.33
1007.192	7.03
1007.617	-0.77
1008.042	-1.47
1008.468	-11.27
1008.893	-2.67
1009.318	-1.67
1009.743	-1.07
1010.168	-0.37
1010.593	6.33
1011.018	-6.07
1011.443	1.43
1011.868	2.03
1012.293	1.13
1012.718	-5.37
1013.143	-0.57
1013.567	0.83
1013.992	1.33
1014.417	-8.27
1014.842	-0.27
1015.267	-9.67
1015.691	-1.67
1016.116	3.73
1016.541	-6.27
1016.965	4.83
1017.39	-0.17
1017.814	3.33
1018.239	2.03
1018.663	-8.97
1019.088	-7.87
1019.512	0.93
1019.937	-3.57
1020.361	-5.87
1020.785	-9.77
1021.21	-1.17
1021.634	0.33
1022.058	-2.17
1022.483	4.53
1022.907	-4.67
1023.331	-9.87
1023.755	2.73
1024.179	0.13
1024.604	-9.77
1025.028	-8.67
1025.452	1.63
1025.876	0.33
1026.3	6.73
1026.724	-6.97
1027.148	-0.97
1027.572	-5.97
1027.996	-5.67
1028.42	-2.97
1028.843	-1.87
1029.267	2.43
1029.691	0.43
1030.115	-6.47
1030.539	-4.37
1030.962	-4.37
1031.386	-9.17
1031.81	0.73
1032.233	0.93
1032.657	-0.07
1033.08	0.83
1033.504	2.23
1033.927	-3.37
1034.351	-3.57
1034.774	-8.07
1035.198	-2.97
1035.621	-4.67
1036.045	-7.27
1036.468	-0.07
1036.891	-13.87
1037.315	-7.17
1037.738	-5.27
1038.161	-1.47
1038.584	-5.47
1039.008	-3.67
1039.431	-1.67
1039.854	1.03
1040.277	-10.67
1040.7	-5.47
1041.123	1.13
1041.546	-10.67
1041.969	-6.47
1042.392	-4.37
1042.815	0.83
1043.238	5.23
1043.661	3.33
1044.084	-4.97
1044.507	-1.07
1044.93	-4.17
1045.352	-5.47
1045.775	-0.17
1046.198	2.23
1046.621	-0.57
1047.043	-2.97
1047.466	5.03
1047.889	-3.97
1048.311	-1.67
1048.734	-2.87
1049.156	-5.57
1049.579	2.63
1050.001	-3.97
1050.424	0.13
1050.846	-8.27
1051.269	-1.47
1051.691	-2.17
1052.113	-7.07
1052.536	-3.27
1052.958	5.53
1053.38	-2.07
1053.802	-7.17
1054.225	1.23
1054.647	-4.87
1055.069	-4.27
1055.491	0.93
1055.913	-3.07
1056.335	2.83
1056.757	-7.57
1057.179	-5.27
1057.601	-2.37
1058.023	-2.47
1058.445	-2.67
1058.867	-9.97
1059.289	-3.07
1059.711	-5.77
1060.133	-4.27
1060.555	-2.87
1060.976	-7.57
1061.398	-3.87
1061.82	-2.87
1062.241	-6.87
1062.663	-7.87
1063.085	-6.87
1063.506	3.43
1063.928	-1.07
1064.35	-3.77
1064.771	-9.97
1065.193	3.13
1065.614	-9.97
1066.035	-2.97
1066.457	-0.27
1066.878	-0.17
1067.3	-2.17
1067.721	-5.17
1068.142	-2.97
1068.564	-3.77
1068.985	-1.47
1069.406	-4.37
1069.827	1.63
1070.248	-4.07
1070.67	-0.47
1071.091	-7.07
1071.512	-1.57
1071.933	3.03
1072.354	-6.77
1072.775	-1.07
1073.196	-3.37
1073.617	-0.47
1074.038	-2.57
1074.459	-1.17
1074.88	-8.57
1075.3	1.73
1075.721	2.13
1076.142	-3.77
1076.563	0.23
1076.983	-7.07
1077.404	3.03
1077.825	-9.07
1078.246	-5.37
1078.666	-9.97
1079.087	-1.87
1079.507	-9.67
1079.928	-4.17
1080.348	4.43
1080.769	-6.17
1081.189	2.33
1081.61	-11.37
1082.03	-8.17
1082.451	-4.87
1082.871	-0.87
1083.291	-4.97
1083.711	-5.17
1084.132	-7.57
1084.552	-5.97
1084.972	0.13
1085.392	-6.47
1085.813	-7.77
1086.233	-5.77
1086.653	-10.07
1087.073	-1.07
1087.493	-5.57
1087.913	-6.77
1088.333	0.63
1088.753	1.93
1089.173	-2.37
1089.593	-6.67
1090.013	4.73
1090.433	2.03
1090.852	-2.67
1091.272	-1.07
1091.692	-0.27
1092.112	-0.67
1092.531	-8.77
1092.951	-13.77
1093.371	-2.17
1093.79	3.13
1094.21	-3.17
1094.63	-7.07
1095.049	-7.27
1095.469	2.03
1095.888	-11.67
1096.308	4.83
1096.727	3.23
1097.146	-6.07
1097.566	-0.97
1097.985	-5.97
1098.405	1.13
1098.824	-6.87
1099.243	-8.17
1099.662	-8.77
1100.082	-5.47
1100.501	-2.97
1100.92	-4.87
1101.339	-2.47
1101.758	-2.67
