Data from 20171114-ORNL-Ar_H_NY_Subt18_08-04-00-970.txt Node
Date: Tue Nov 14 08:04:00 EST 2017
User: Ender
Spectrometer: HR+D1039
Trigger mode: 0
Integration Time (sec): 2.730000E-2
Scans to average: 10
Electric dark correction enabled: true
Nonlinearity correction enabled: false
Boxcar width: 0
XAxis mode: Wavelengths
Number of Pixels in Spectrum: 2048
>>>>>Begin Spectral Data<<<<<
187.836	-2.27
188.309	-2.27
188.782	-2.27
189.255	3.42
189.728	-0.38
190.201	2.52
190.674	1.82
191.147	1.82
191.619	-6.88
192.092	-0.88
192.565	7.82
193.038	-7.18
193.511	3.02
193.984	-2.58
194.456	-1.17
194.929	0.62
195.402	-2.38
195.874	2.62
196.347	-1.77
196.82	-4.17
197.292	2.62
197.765	-1.77
198.237	-3.38
198.71	0.02
199.182	0.12
199.655	-0.08
200.127	0.42
200.6	-1.38
201.072	-2.48
201.544	-6.07
202.017	-7.88
202.489	1.12
202.961	4.33
203.433	-8.77
203.906	-5.97
204.378	-6.47
204.85	1.92
205.322	-10.18
205.794	-2.68
206.266	-0.58
206.739	-6.77
207.211	4.02
207.683	-9.47
208.155	-3.88
208.627	-8.58
209.099	-0.77
209.57	-8.77
210.042	1.12
210.514	-2.57
210.986	-1.77
211.458	-8.58
211.93	-2.48
212.402	5.23
212.873	-3.98
213.345	-8.57
213.817	-8.88
214.288	-0.58
214.76	-8.77
215.232	-5.88
215.703	-3.88
216.175	-1.88
216.646	-4.27
217.118	-8.88
217.589	-8.07
218.061	-0.48
218.532	-7.47
219.004	-2.48
219.475	-0.67
219.946	-1.18
220.418	-1.27
220.889	3.73
221.36	-3.67
221.832	-5.27
222.303	-6.07
222.774	2.02
223.245	-10.67
223.717	-7.48
224.188	-9.07
224.659	-5.78
225.13	-7.07
225.601	-2.78
226.072	-1.38
226.543	-1.78
227.014	-1.08
227.485	-6.38
227.956	-6.98
228.427	-2.38
228.898	-2.48
229.369	2.32
229.839	-7.58
230.31	-5.18
230.781	-2.08
231.252	-8.98
231.722	-7.28
232.193	-2.97
232.664	-1.77
233.135	-1.77
233.605	-0.67
234.076	-5.88
234.546	1.72
235.017	6.33
235.487	1.12
235.958	1.23
236.428	-4.88
236.899	-0.88
237.369	-2.57
237.84	-0.88
238.31	-1.18
238.78	-0.88
239.251	-1.97
239.721	-2.27
240.191	-1.17
240.662	-2.38
241.132	1.33
241.602	-6.88
242.072	-0.77
242.542	3.23
243.013	-3.58
243.483	3.02
243.953	4.23
244.423	-4.77
244.893	-5.68
245.363	5.42
245.833	-2.88
246.303	-10.77
246.773	-2.77
247.243	-0.28
247.712	-0.88
248.182	7.02
248.652	-1.48
249.122	-9.08
249.592	3.83
250.061	8.92
250.531	27.23
251.001	1.03
251.471	13.62
251.94	10.82
252.41	4.73
252.879	-4.27
253.349	9.72
253.818	3.23
254.288	1.53
254.757	-1.07
255.227	-3.47
255.696	-2.58
256.166	-0.97
256.635	4.12
257.105	0.43
257.574	3.32
258.043	-1.47
258.513	3.42
258.982	10.23
259.451	5.82
259.92	9.83
260.389	2.12
260.859	13.42
261.328	5.23
261.797	9.62
262.266	3.92
262.735	3.93
263.204	0.92
263.673	-4.08
264.142	2.53
264.611	-10.48
265.08	-1.18
265.549	-1.17
266.018	-0.57
266.487	-3.48
266.955	-10.67
267.424	-0.77
267.893	2.93
268.362	3.03
268.83	-4.08
269.299	8.33
269.768	-1.38
270.236	3.33
270.705	-2.77
271.174	1.03
271.642	1.82
272.111	6.93
272.579	2.62
273.048	10.22
273.516	6.23
273.985	11.83
274.453	9.42
274.922	11.73
275.39	3.52
275.858	-6.77
276.327	7.73
276.795	13.73
277.263	4.62
277.731	13.22
278.2	18.92
278.668	30.62
279.136	25.12
279.604	12.73
280.072	0.93
280.54	-0.67
281.008	4.32
281.477	4.62
281.945	10.42
282.413	12.23
282.881	12.33
283.348	8.62
283.816	11.92
284.284	8.42
284.752	10.82
285.22	4.33
285.688	2.72
286.156	12.43
286.623	28.62
287.091	24.43
287.559	16.52
288.026	6.83
288.494	9.02
288.962	-2.08
289.429	1.82
289.897	8.43
290.364	10.73
290.832	10.73
291.3	10.62
291.767	4.33
292.234	8.33
292.702	4.43
293.169	8.12
293.637	15.93
294.104	13.52
294.571	-2.78
295.039	2.12
295.506	5.83
295.973	9.82
296.44	3.73
296.908	6.53
297.375	13.73
297.842	13.12
298.309	12.93
298.776	5.23
299.243	10.12
299.71	4.62
300.177	12.33
300.644	11.12
301.111	12.93
301.578	17.52
302.045	11.02
302.512	6.93
302.979	17.23
303.446	15.32
303.913	13.23
304.379	9.73
304.846	23.33
305.313	18.23
305.78	13.42
306.246	13.62
306.713	16.32
307.18	17.62
307.646	10.22
308.113	20.52
308.579	13.32
309.046	25.23
309.512	16.73
309.979	5.02
310.445	13.42
310.912	17.62
311.378	21.52
311.845	14.83
312.311	24.42
312.777	23.12
313.244	20.93
313.71	26.92
314.176	22.62
314.642	16.12
315.109	15.73
315.575	27.43
316.041	25.12
316.507	21.52
316.973	24.92
317.439	23.12
317.905	24.03
318.371	23.92
318.837	27.12
319.303	22.02
319.769	26.43
320.235	27.62
320.701	24.32
321.167	27.12
321.633	24.73
322.099	26.02
322.564	30.12
323.03	32.02
323.496	21.62
323.962	30.12
324.427	26.02
324.893	31.72
325.359	23.22
325.824	31.42
326.29	27.42
326.755	29.22
327.221	30.62
327.686	22.23
328.152	37.83
328.617	29.83
329.083	32.73
329.548	31.02
330.014	37.12
330.479	27.62
330.944	31.42
331.41	31.23
331.875	35.23
332.34	33.02
332.805	27.42
333.271	30.12
333.736	30.92
334.201	40.23
334.666	35.02
335.131	42.82
335.596	35.82
336.061	38.92
336.526	33.72
336.991	31.62
337.456	46.12
337.921	36.72
338.386	36.42
338.851	34.02
339.316	38.83
339.781	37.02
340.246	35.73
340.711	34.92
341.175	43.23
341.64	34.12
342.105	30.52
342.569	42.22
343.034	45.22
343.499	47.52
343.963	33.93
344.428	56.93
344.893	48.42
345.357	47.82
345.822	42.22
346.286	51.92
346.751	58.12
347.215	52.52
347.679	51.93
348.144	70.23
348.608	68.93
349.073	52.12
349.537	60.02
350.001	58.02
350.465	67.33
350.93	63.12
351.394	63.62
351.858	53.93
352.322	66.83
352.786	65.93
353.25	74.92
353.715	83.33
354.179	77.72
354.643	88.03
355.107	93.42
355.571	82.73
356.035	76.73
356.498	82.32
356.962	85.32
357.426	90.02
357.89	85.33
358.354	66.52
358.818	64.52
359.281	66.83
359.745	63.43
360.209	68.12
360.673	61.93
361.136	64.93
361.6	67.12
362.064	70.33
362.527	69.82
362.991	76.83
363.454	61.12
363.918	66.33
364.381	65.42
364.845	71.42
365.308	73.23
365.772	68.32
366.235	68.02
366.698	63.73
367.162	70.32
367.625	71.62
368.088	76.92
368.552	79.82
369.015	78.33
369.478	83.02
369.941	83.52
370.404	82.72
370.867	86.02
371.331	83.72
371.794	94.52
372.257	94.12
372.72	104.92
373.183	87.73
373.646	85.42
374.109	84.12
374.572	93.62
375.035	94.42
375.497	87.02
375.96	87.93
376.423	87.92
376.886	96.73
377.349	88.52
377.811	93.23
378.274	88.53
378.737	88.23
379.199	94.33
379.662	91.02
380.125	97.03
380.587	94.02
381.05	95.83
381.512	104.22
381.975	113.73
382.437	106.83
382.9	107.62
383.362	107.42
383.825	114.53
384.287	126.92
384.75	120.02
385.212	114.32
385.674	114.82
386.136	122.12
386.599	107.73
387.061	111.93
387.523	110.02
387.985	119.12
388.447	131.32
388.91	120.73
389.372	129.03
389.834	123.72
390.296	126.73
390.758	129.73
391.22	144.12
391.682	160.82
392.144	227.73
392.606	179.02
393.068	143.62
393.529	144.62
393.991	129.62
394.453	131.23
394.915	135.82
395.377	154.33
395.838	171.52
396.3	135.62
396.762	118.33
397.224	124.23
397.685	120.92
398.147	112.73
398.608	116.73
399.07	113.73
399.531	122.83
399.993	118.83
400.454	129.42
400.916	130.42
401.377	126.73
401.839	128.92
402.3	129.12
402.762	143.02
403.223	155.23
403.684	151.02
404.145	142.12
404.607	141.92
405.068	142.32
405.529	150.12
405.99	159.93
406.451	151.12
406.913	153.02
407.374	151.12
407.835	142.12
408.296	147.03
408.757	159.23
409.218	166.02
409.679	157.43
410.14	158.62
410.601	158.62
411.062	159.33
411.522	168.33
411.983	163.12
412.444	156.43
412.905	168.33
413.366	162.73
413.826	176.42
414.287	199.43
414.748	246.63
415.208	226.72
415.669	187.02
416.13	185.92
416.59	183.22
417.051	196.92
417.511	200.72
417.972	222.62
418.432	229.43
418.893	271.63
419.353	247.53
419.814	182.62
420.274	169.82
420.734	154.62
421.195	175.42
421.655	170.12
422.115	175.32
422.576	170.32
423.036	180.12
423.496	184.83
423.956	204.03
424.416	211.62
424.876	236.83
425.336	234.72
425.797	237.72
426.257	233.62
426.717	221.33
427.177	204.43
427.637	205.42
428.097	222.02
428.556	216.02
429.016	239.73
429.476	238.53
429.936	245.53
430.396	246.73
430.856	247.92
431.315	277.62
431.775	301.62
432.235	332.93
432.694	303.72
433.154	309.63
433.614	330.83
434.073	291.92
434.533	248.03
434.993	234.43
435.452	243.02
435.912	253.02
436.371	246.03
436.83	245.03
437.29	232.42
437.749	216.73
438.209	210.12
438.668	232.93
439.127	245.13
439.587	220.33
440.046	210.02
440.505	223.73
440.964	235.33
441.424	263.92
441.883	250.42
442.342	219.92
442.801	195.82
443.26	202.52
443.719	201.43
444.178	196.43
444.637	191.03
445.096	199.53
445.555	200.73
446.014	199.22
446.473	202.43
446.932	214.62
447.391	201.62
447.849	205.42
448.308	201.02
448.767	208.62
449.226	211.03
449.685	215.12
450.143	222.12
450.602	215.72
451.061	205.32
451.519	207.73
451.978	210.23
452.436	207.73
452.895	209.73
453.353	218.83
453.812	219.23
454.27	210.82
454.729	211.53
455.187	214.82
455.646	208.03
456.104	216.73
456.562	217.33
457.021	234.82
457.479	219.93
457.937	230.03
458.395	228.53
458.854	217.63
459.312	226.93
459.77	233.73
460.228	224.62
460.686	217.93
461.144	228.43
461.602	220.92
462.06	224.42
462.518	225.42
462.976	226.22
463.434	233.13
463.892	231.82
464.35	241.22
464.808	251.32
465.266	237.13
465.724	245.53
466.181	253.52
466.639	240.82
467.097	257.52
467.555	265.23
468.012	262.82
468.47	276.52
468.928	284.02
469.385	296.33
469.843	305.02
470.3	304.23
470.758	302.52
471.215	326.43
471.673	341.62
472.13	344.72
472.588	357.23
473.045	327.23
473.503	332.42
473.96	352.52
474.417	349.32
474.875	378.12
475.332	408.63
475.789	397.92
476.246	403.22
476.704	418.12
477.161	439.32
477.618	448.23
478.075	487.62
478.532	534.52
478.989	579.13
479.446	659.83
479.903	660.03
480.36	694.02
480.817	751.52
481.274	841.52
481.731	927.22
482.188	1006.13
482.645	1124.82
483.102	1208.93
483.558	1319.43
484.015	1374.83
484.472	1364.22
484.929	1330.82
485.385	1281.52
485.842	1245.22
486.299	1192.52
486.755	1119.72
487.212	938.72
487.668	813.42
488.125	753.93
488.582	686.73
489.038	657.32
489.494	626.62
489.951	604.63
490.407	585.12
490.864	570.72
491.32	558.73
491.776	553.13
492.233	558.83
492.689	525.82
493.145	529.62
493.602	528.12
494.058	540.43
494.514	533.62
494.97	554.73
495.426	552.13
495.882	539.63
496.338	527.43
496.794	534.93
497.251	538.93
497.707	544.73
498.163	546.93
498.618	555.72
499.074	561.82
499.53	571.22
499.986	567.72
500.442	562.73
500.898	541.53
501.354	538.12
501.809	547.22
502.265	547.93
502.721	560.72
503.177	563.33
503.632	568.82
504.088	567.62
504.543	594.42
504.999	595.02
505.455	566.83
505.91	551.13
506.366	554.32
506.821	543.22
507.277	532.92
507.732	537.22
508.187	545.12
508.643	546.02
509.098	544.32
509.553	565.12
510.009	572.83
510.464	571.73
510.919	591.32
511.375	596.92
511.83	609.83
512.285	614.02
512.74	648.52
513.195	659.32
513.65	655.53
514.105	660.52
514.56	658.72
515.015	677.23
515.47	690.23
515.925	672.92
516.38	675.32
516.835	680.73
517.29	675.42
517.745	665.42
518.2	654.92
518.655	647.52
519.109	637.92
519.564	633.72
520.019	623.82
520.474	617.03
520.928	623.92
521.383	616.33
521.838	607.32
522.292	611.52
522.747	613.52
523.201	600.92
523.656	594.63
524.11	592.12
524.565	597.52
525.019	592.22
525.474	591.62
525.928	589.03
526.382	588.93
526.837	583.52
527.291	584.43
527.745	593.92
528.2	585.92
528.654	582.93
529.108	578.73
529.562	580.73
530.016	581.62
530.47	583.43
530.925	578.32
531.379	579.73
531.833	580.03
532.287	580.52
532.741	583.42
533.195	584.83
533.649	596.52
534.103	595.73
534.556	591.12
535.01	598.33
535.464	588.32
535.918	599.73
536.372	605.83
536.826	602.83
537.279	583.62
537.733	590.63
538.187	587.23
538.64	590.22
539.094	594.43
539.548	605.53
540.001	590.52
540.455	597.42
540.908	603.23
541.362	613.02
541.815	626.82
542.269	626.52
542.722	628.62
543.175	638.93
543.629	633.12
544.082	648.23
544.536	646.52
544.989	654.92
545.442	654.12
545.895	658.12
546.349	649.03
546.802	664.12
547.255	650.52
547.708	672.02
548.161	670.52
548.614	676.12
549.067	673.93
549.52	668.43
549.973	676.52
550.426	664.02
550.879	651.93
551.332	659.03
551.785	658.02
552.238	659.23
552.691	674.23
553.144	682.83
553.596	683.53
554.049	698.73
554.502	725.52
554.955	743.83
555.407	740.62
555.86	730.52
556.313	721.52
556.765	722.12
557.218	718.12
557.67	711.02
558.123	711.92
558.576	703.52
559.028	708.33
559.48	707.12
559.933	717.23
560.385	679.92
560.838	658.92
561.29	643.12
561.742	630.33
562.195	621.63
562.647	624.23
563.099	627.22
563.551	618.73
564.004	635.02
564.456	620.92
564.908	614.42
565.36	604.23
565.812	587.72
566.264	574.03
566.716	581.83
567.168	567.92
567.62	571.12
568.072	558.13
568.524	555.42
568.976	555.52
569.428	541.52
569.88	530.62
570.332	543.23
570.784	548.02
571.235	540.12
571.687	546.73
572.139	552.42
572.59	560.83
573.042	565.42
573.494	563.03
573.945	556.42
574.397	541.13
574.849	538.02
575.3	540.73
575.752	529.23
576.203	536.72
576.655	537.22
577.106	530.43
577.557	520.62
578.009	518.62
578.46	515.22
578.912	508.12
579.363	523.02
579.814	521.52
580.265	520.33
580.717	521.02
581.168	525.23
581.619	530.83
582.07	537.23
582.521	527.52
582.972	520.83
583.423	519.12
583.875	526.43
584.326	547.72
584.777	570.42
585.227	629.43
585.678	691.73
586.129	760.72
586.58	808.53
587.031	865.52
587.482	985.72
587.933	1130.43
588.384	992.72
588.834	744.82
589.285	631.33
589.736	608.52
590.186	593.12
590.637	603.12
591.088	580.23
591.538	578.93
591.989	563.02
592.439	557.92
592.89	554.52
593.34	550.52
593.791	544.92
594.241	551.03
594.692	546.23
595.142	545.32
595.593	534.32
596.043	536.22
596.493	545.32
596.943	543.12
597.394	545.93
597.844	538.43
598.294	549.03
598.744	579.62
599.195	601.23
599.645	625.93
600.095	651.22
600.545	695.62
600.995	736.22
601.445	779.42
601.895	829.42
602.345	868.52
602.795	857.23
603.245	817.33
603.695	769.12
604.145	741.52
604.594	701.23
605.044	651.32
605.494	611.12
605.944	569.32
606.393	562.22
606.843	541.93
607.293	560.83
607.743	561.93
608.192	556.83
608.642	569.93
609.091	572.12
609.541	580.52
609.99	568.83
610.44	566.03
610.889	542.53
611.339	520.52
611.788	518.23
612.238	526.53
612.687	540.52
613.136	541.02
613.586	546.03
614.035	542.03
614.484	565.02
614.933	563.12
615.383	565.43
615.832	548.33
616.281	537.92
616.73	513.13
617.179	493.12
617.628	485.62
618.077	470.02
618.526	462.02
618.975	463.22
619.424	469.22
619.873	454.23
620.322	467.82
620.771	449.43
621.22	452.42
621.669	447.03
622.118	435.53
622.567	440.03
623.015	421.82
623.464	422.02
623.913	417.72
624.361	423.22
624.81	409.02
625.259	408.92
625.707	411.23
626.156	411.12
626.604	426.22
627.053	414.92
627.501	421.02
627.95	420.03
628.398	434.72
628.847	430.53
629.295	422.82
629.744	429.53
630.192	423.72
630.64	421.52
631.089	414.52
631.537	412.82
631.985	407.52
632.433	419.93
632.881	418.92
633.33	451.02
633.778	442.12
634.226	398.12
634.674	413.42
635.122	419.03
635.57	429.72
636.018	434.32
636.466	425.73
636.914	409.73
637.362	426.73
637.81	423.92
638.258	427.42
638.705	421.23
639.153	448.82
639.601	449.82
640.049	463.83
640.497	486.53
640.944	517.22
641.392	467.52
641.84	449.92
642.287	435.02
642.735	410.83
643.182	408.12
643.63	417.82
644.078	420.92
644.525	428.33
644.973	430.12
645.42	441.72
645.867	453.73
646.315	461.33
646.762	480.42
647.21	496.23
647.657	518.42
648.104	541.82
648.551	551.93
648.999	599.23
649.446	654.23
649.893	714.83
650.34	818.83
650.787	973.82
651.234	1213.22
651.682	1553.12
652.129	2136.03
652.576	3029.03
653.023	4491.22
653.47	6278.12
653.917	7881.62
654.363	9308.73
654.81	10576.92
655.257	10084.92
655.704	6535.03
656.151	3818.43
656.598	2488.22
657.044	1751.83
657.491	1351.12
657.938	1062.92
658.385	893.03
658.831	778.53
659.278	700.73
659.724	607.33
660.171	563.62
660.618	507.62
661.064	481.53
661.511	470.43
661.957	461.53
662.404	444.02
662.85	453.62
663.296	435.93
663.743	401.12
664.189	387.33
664.635	381.62
665.082	384.12
665.528	374.53
665.974	371.82
666.42	366.12
666.867	362.23
667.313	333.63
667.759	342.33
668.205	341.03
668.651	342.83
669.097	346.83
669.543	356.62
669.989	331.52
670.435	329.42
670.881	321.03
671.327	318.12
671.773	332.72
672.219	346.42
672.665	391.33
673.11	410.72
673.556	450.52
674.002	491.13
674.448	474.42
674.893	390.32
675.339	337.42
675.785	322.63
676.23	304.62
676.676	278.43
677.122	268.33
677.567	268.23
678.013	256.32
678.458	246.63
678.904	251.23
679.349	241.43
679.794	255.32
680.24	245.03
680.685	240.43
681.131	243.32
681.576	251.83
682.021	250.02
682.466	255.22
682.912	250.02
683.357	253.02
683.802	271.33
684.247	288.42
684.692	320.03
685.137	346.12
685.583	387.73
686.028	407.83
686.473	374.12
686.918	322.02
687.363	304.03
687.807	278.33
688.252	257.03
688.697	255.53
689.142	239.82
689.587	231.92
690.032	227.22
690.477	237.53
690.921	247.03
691.366	272.43
691.811	279.92
692.255	307.93
692.7	324.13
693.145	348.62
693.589	470.53
694.034	778.02
694.478	1093.12
694.923	1270.83
695.367	1691.43
695.812	880.12
696.256	356.22
696.701	269.53
697.145	239.82
697.59	237.02
698.034	221.92
698.478	230.62
698.922	226.92
699.367	231.82
699.811	239.02
700.255	247.53
700.699	268.63
701.143	298.62
701.588	335.42
702.032	370.82
702.476	373.92
702.92	351.53
703.364	347.92
703.808	438.92
704.252	709.82
704.696	1020.12
705.14	1224.62
705.584	1599.62
706.027	783.52
706.471	383.92
706.915	284.53
707.359	242.93
707.803	220.92
708.246	215.03
708.69	221.12
709.134	222.73
709.577	217.52
710.021	222.72
710.465	216.12
710.908	208.02
711.352	210.63
711.795	214.22
712.239	239.52
712.682	265.02
713.126	291.42
713.569	341.43
714.012	261.82
714.456	227.62
714.899	206.93
715.342	194.23
715.786	178.83
716.229	187.12
716.672	180.73
717.115	174.02
717.558	178.93
718.002	175.62
718.445	181.62
718.888	206.03
719.331	209.03
719.774	220.73
720.217	216.62
720.66	198.83
721.103	191.42
721.546	182.03
721.989	177.12
722.432	162.33
722.874	167.92
723.317	155.02
723.76	156.32
724.203	174.92
724.645	212.02
725.088	308.83
725.531	397.62
725.974	474.62
726.416	393.92
726.859	214.12
727.301	164.52
727.744	166.12
728.187	163.03
728.629	169.92
729.071	174.73
729.514	184.32
729.956	191.83
730.399	194.73
730.841	202.83
731.283	196.12
731.726	186.03
732.168	177.52
732.61	182.52
733.053	205.53
733.495	219.83
733.937	248.92
734.379	287.33
734.821	297.63
735.263	384.22
735.705	566.73
736.148	1081.72
736.59	1819.02
737.032	2283.12
737.474	1861.42
737.916	583.52
738.357	308.62
738.799	226.32
739.241	207.43
739.683	196.62
740.125	202.93
740.567	208.93
741.008	221.72
741.45	224.32
741.892	224.63
742.334	253.12
742.775	256.92
743.217	247.42
743.658	185.92
744.1	184.62
744.542	194.13
744.983	221.52
745.425	251.42
745.866	252.73
746.307	204.52
746.749	198.82
747.19	221.73
747.632	301.83
748.073	591.12
748.514	1279.52
748.956	2060.62
749.397	2551.03
749.838	2135.23
750.279	2218.53
750.72	1113.33
751.162	392.73
751.603	221.22
752.044	179.92
752.485	150.52
752.926	154.83
753.367	150.72
753.808	134.42
754.249	137.12
754.69	124.83
755.131	126.62
755.572	125.52
756.013	126.92
756.453	125.83
756.894	127.43
757.335	128.03
757.776	136.33
758.216	135.72
758.657	133.12
759.098	143.93
759.538	154.33
759.979	191.83
760.42	248.43
760.86	484.62
761.301	1230.92
761.741	3147.12
762.182	4939.83
762.622	3493.63
763.063	960.42
763.503	383.33
763.943	237.83
764.384	234.72
764.824	271.23
765.264	295.73
765.705	209.12
766.145	139.82
766.585	129.92
767.025	125.92
767.465	120.23
767.906	164.93
768.346	215.62
768.786	231.72
769.226	176.93
769.666	216.12
770.106	420.02
770.546	1054.82
770.986	1937.83
771.426	1785.83
771.866	577.62
772.306	230.63
772.745	145.32
773.185	115.52
773.625	117.62
774.065	113.23
774.505	129.72
774.944	196.03
775.384	414.72
775.824	790.12
776.263	774.52
776.703	325.92
777.142	147.43
777.582	108.32
778.021	89.02
778.461	88.83
778.9	95.52
779.34	85.12
779.779	74.33
780.219	76.03
780.658	78.73
781.097	66.73
781.537	82.83
781.976	70.42
782.415	68.32
782.855	62.33
783.294	69.93
783.733	67.73
784.172	80.62
784.611	67.92
785.05	70.23
785.489	76.33
785.928	80.83
786.367	82.23
786.806	78.12
787.245	82.62
787.684	98.02
788.123	98.73
788.562	90.23
789.001	89.43
789.44	83.12
789.879	79.82
790.317	77.12
790.756	91.52
791.195	92.33
791.634	104.43
792.072	138.03
792.511	245.23
792.95	682.92
793.388	1560.62
793.827	1467.82
794.265	495.52
794.704	199.63
795.142	130.03
795.581	107.02
796.019	96.92
796.458	94.93
796.896	83.93
797.334	88.12
797.773	108.42
798.211	156.12
798.649	297.62
799.087	719.42
799.526	1138.03
799.964	1462.43
800.402	1543.33
800.84	555.33
801.278	213.23
801.716	132.92
802.154	106.32
802.592	96.23
803.03	100.33
803.468	91.73
803.906	96.93
804.344	105.73
804.782	91.23
805.22	92.32
805.658	84.52
806.096	103.83
806.533	112.23
806.971	131.52
807.409	148.22
807.847	219.42
808.284	448.92
808.722	1311.02
809.16	2464.22
809.597	2248.12
810.035	4029.62
810.472	4568.83
810.91	1605.62
811.347	590.03
811.785	292.42
812.222	184.52
812.66	136.53
813.097	114.12
813.535	98.02
813.972	92.02
814.409	84.42
814.846	79.33
815.284	73.73
815.721	73.32
816.158	75.03
816.595	77.43
817.032	122.22
817.47	145.12
817.907	116.33
818.344	89.82
818.781	81.43
819.218	69.73
819.655	79.53
820.092	143.42
820.529	164.32
820.966	124.93
821.403	93.23
821.839	77.73
822.276	74.02
822.713	94.62
823.15	93.83
823.587	82.42
824.023	97.52
824.46	201.53
824.897	644.43
825.333	1021.93
825.77	432.52
826.206	164.22
826.643	99.12
827.08	75.93
827.516	60.12
827.953	53.23
828.389	54.82
828.825	44.12
829.262	45.62
829.698	37.02
830.135	39.73
830.571	42.52
831.007	47.02
831.443	46.02
831.88	36.53
832.316	44.32
832.752	44.73
833.188	39.12
833.624	46.53
834.06	54.33
834.497	47.42
834.933	49.83
835.369	49.83
835.805	44.82
836.241	52.02
836.677	55.53
837.112	62.82
837.548	75.52
837.984	96.12
838.42	141.73
838.856	337.62
839.292	1092.33
839.727	1755.23
840.163	802.12
840.599	658.93
841.034	1499.93
841.47	1657.72
841.906	583.42
842.341	236.43
842.777	163.03
843.212	211.72
843.648	206.92
844.083	107.32
844.519	67.43
844.954	55.12
845.39	36.73
845.825	41.52
846.261	34.93
846.696	34.42
847.131	36.62
847.566	39.72
848.002	35.73
848.437	31.83
848.872	38.02
849.307	41.23
849.742	53.53
850.177	123.62
850.613	387.23
851.048	662.72
851.483	281.22
851.918	106.62
852.353	56.62
852.788	38.92
853.223	37.92
853.657	37.72
854.092	41.12
854.527	27.12
854.962	29.12
855.397	30.83
855.832	36.62
856.266	28.43
856.701	24.62
857.136	29.73
857.57	30.12
858.005	34.23
858.44	43.12
858.874	30.43
859.309	38.53
859.743	25.32
860.178	36.62
860.612	25.62
861.047	34.52
861.481	51.42
861.915	53.62
862.35	41.23
862.784	29.32
863.218	25.83
863.653	22.82
864.087	29.02
864.521	43.33
864.955	48.33
865.39	110.82
865.824	131.62
866.258	79.73
866.692	121.12
867.126	135.23
867.56	84.32
867.994	35.22
868.428	25.52
868.862	36.23
869.296	41.23
869.73	38.02
870.164	40.32
870.598	39.03
871.031	28.92
871.465	20.12
871.899	20.53
872.333	15.73
872.766	25.12
873.2	11.82
873.634	16.12
874.067	14.62
874.501	17.82
874.935	25.82
875.368	20.12
875.802	12.62
876.235	19.02
876.669	10.73
877.102	12.33
877.535	18.33
877.969	17.73
878.402	18.62
878.836	16.02
879.269	18.33
879.702	19.32
880.135	14.22
880.569	14.52
881.002	19.43
881.435	14.73
881.868	14.42
882.301	20.93
882.734	7.82
883.167	16.93
883.601	5.73
884.034	11.22
884.467	8.43
884.899	17.02
885.332	10.23
885.765	13.43
886.198	7.12
886.631	8.92
887.064	17.12
887.497	17.92
887.929	18.12
888.362	8.12
888.795	11.02
889.228	13.12
889.66	11.82
890.093	10.62
890.526	12.72
890.958	3.23
891.391	5.73
891.823	15.33
892.256	7.33
892.688	5.62
893.121	10.12
893.553	4.02
893.985	14.02
894.418	6.92
894.85	0.83
895.282	8.32
895.715	13.23
896.147	6.03
896.579	5.73
897.011	4.62
897.444	7.33
897.876	4.03
898.308	4.32
898.74	10.03
899.172	4.83
899.604	20.33
900.036	13.22
900.468	8.92
900.9	5.92
901.332	15.22
901.764	3.92
902.196	9.33
902.628	9.83
903.06	13.92
903.491	24.83
903.923	16.83
904.355	12.12
904.787	12.02
905.218	14.83
905.65	11.92
906.082	5.32
906.513	5.73
906.945	0.92
907.376	6.32
907.808	17.12
908.239	20.73
908.671	8.33
909.102	13.02
909.534	11.73
909.965	32.52
910.397	63.52
910.828	233.93
911.259	365.33
911.691	160.62
912.122	81.23
912.553	35.52
912.984	23.62
913.415	16.03
913.847	11.33
914.278	8.02
914.709	9.52
915.14	17.53
915.571	14.62
916.002	8.62
916.433	12.73
916.864	9.42
917.295	7.73
917.726	16.92
918.157	8.22
918.587	21.12
919.018	14.73
919.449	8.53
919.88	14.22
920.311	18.02
920.741	32.02
921.172	121.93
921.603	113.12
922.033	47.82
922.464	30.23
922.895	13.82
923.325	15.73
923.756	8.52
924.186	12.03
924.617	22.83
925.047	31.52
925.478	26.43
925.908	27.52
926.338	12.43
926.769	11.12
927.199	14.33
927.629	5.73
928.06	8.73
928.49	8.33
928.92	6.83
929.35	7.12
929.78	6.92
930.21	0.92
930.641	4.52
931.071	8.52
931.501	-0.17
931.931	9.62
932.361	8.93
932.791	-0.88
933.221	3.73
933.651	4.12
934.08	7.42
934.51	17.42
934.94	7.93
935.37	4.03
935.8	5.73
936.229	7.42
936.659	5.42
937.089	2.73
937.519	7.62
937.948	20.52
938.378	13.83
938.807	3.12
939.237	-0.47
939.666	0.93
940.096	-4.88
940.525	-1.48
940.955	5.03
941.384	6.73
941.814	-7.68
942.243	-0.98
942.672	0.92
943.102	-5.67
943.531	0.33
943.96	6.42
944.39	2.72
944.819	-0.58
945.248	0.33
945.677	2.33
946.106	-0.77
946.535	3.62
946.964	0.23
947.393	-0.38
947.822	1.43
948.251	-8.08
948.68	-1.07
949.109	10.12
949.538	1.53
949.967	-3.58
950.396	-3.38
950.825	-1.88
951.254	-3.97
951.682	-4.08
952.111	8.52
952.54	3.43
952.969	-6.67
953.397	-6.38
953.826	-5.08
954.254	-8.08
954.683	1.12
955.112	-2.77
955.54	-0.57
955.969	-1.67
956.397	2.33
956.826	-7.88
957.254	1.53
957.682	4.23
958.111	10.02
958.539	-0.88
958.967	0.02
959.396	-6.88
959.824	-0.57
960.252	0.12
960.68	-12.98
961.109	-6.88
961.537	-5.98
961.965	4.12
962.393	-4.07
962.821	-6.27
963.249	1.02
963.677	3.12
964.105	-1.68
964.533	29.83
964.961	30.42
965.389	16.03
965.817	8.02
966.245	-2.18
966.672	3.12
967.1	-12.47
967.528	0.72
967.956	-7.77
968.383	-2.18
968.811	0.33
969.239	-0.58
969.666	-0.57
970.094	3.23
970.522	-4.48
970.949	-6.48
971.377	-4.47
971.804	-2.98
972.232	-2.38
972.659	-7.67
973.087	-2.98
973.514	-1.78
973.941	-8.88
974.369	2.42
974.796	-2.38
975.223	-2.68
975.651	-3.27
976.078	-3.88
976.505	-7.77
976.932	-2.08
977.359	10.62
977.786	7.73
978.214	-5.77
978.641	-8.18
979.068	-6.27
979.495	-9.18
979.922	-3.88
980.349	-7.17
980.776	1.73
981.202	-1.38
981.629	3.23
982.056	1.22
982.483	-1.48
982.91	1.12
983.337	-7.48
983.763	-0.08
984.19	-0.77
984.617	-9.07
985.043	-5.38
985.47	-3.38
985.897	-5.07
986.323	-14.48
986.75	0.62
987.176	-1.98
987.603	-0.58
988.029	-5.58
988.456	-3.98
988.882	2.93
989.308	-4.98
989.735	-3.78
990.161	-3.58
990.587	-11.58
991.014	-2.67
991.44	0.62
991.866	-10.38
992.292	-6.47
992.719	-2.18
993.145	-1.38
993.571	-6.47
993.997	-7.27
994.423	-3.27
994.849	-6.08
995.275	0.43
995.701	0.23
996.127	-1.38
996.553	-1.98
996.979	-5.88
997.405	0.62
997.83	-0.98
998.256	-7.78
998.682	-10.07
999.108	-7.98
999.534	-0.18
999.959	-3.88
1000.385	-10.17
1000.811	-0.48
1001.236	-12.28
1001.662	-8.98
1002.087	-11.67
1002.513	-1.28
1002.938	-1.17
1003.364	0.33
1003.789	1.83
1004.215	3.83
1004.64	-9.88
1005.066	-0.27
1005.491	0.62
1005.916	-5.18
1006.342	-4.17
1006.767	-11.48
1007.192	3.83
1007.617	-8.08
1008.042	-6.38
1008.468	-4.38
1008.893	-6.47
1009.318	-2.27
1009.743	-3.38
1010.168	0.02
1010.593	1.33
1011.018	-8.07
1011.443	-4.88
1011.868	-5.77
1012.293	-2.38
1012.718	-7.38
1013.143	0.42
1013.567	0.52
1013.992	-7.08
1014.417	-15.58
1014.842	-2.98
1015.267	-4.77
1015.691	-2.38
1016.116	6.82
1016.541	-1.38
1016.965	-0.98
1017.39	1.42
1017.814	0.03
1018.239	-6.68
1018.663	-14.27
1019.088	-8.98
1019.512	-2.98
1019.937	-6.77
1020.361	-3.08
1020.785	-13.18
1021.21	-0.98
1021.634	-6.57
1022.058	0.62
1022.483	-1.98
1022.907	0.02
1023.331	-4.97
1023.755	-6.18
1024.179	-0.77
1024.604	-6.67
1025.028	-4.38
1025.452	-11.68
1025.876	-4.88
1026.3	-2.18
1026.724	-9.77
1027.148	-3.57
1027.572	-9.98
1027.996	-4.67
1028.42	-3.18
1028.843	-3.18
1029.267	0.42
1029.691	-3.08
1030.115	-9.67
1030.539	-10.48
1030.962	-7.48
1031.386	-12.47
1031.81	-3.57
1032.233	3.33
1032.657	-0.38
1033.08	-4.77
1033.504	-5.08
1033.927	-6.17
1034.351	-4.17
1034.774	-2.58
1035.198	-8.98
1035.621	-6.47
1036.045	-6.68
1036.468	3.92
1036.891	-5.88
1037.315	-6.88
1037.738	-8.77
1038.161	-5.58
1038.584	-3.58
1039.008	-4.77
1039.431	-7.38
1039.854	-3.38
1040.277	-5.57
1040.7	-7.57
1041.123	-1.38
1041.546	-9.97
1041.969	-4.17
1042.392	-11.58
1042.815	-3.98
1043.238	-4.48
1043.661	4.62
1044.084	-4.48
1044.507	-5.58
1044.93	-13.38
1045.352	-9.88
1045.775	-3.68
1046.198	0.02
1046.621	-5.27
1047.043	-0.67
1047.466	4.43
1047.889	-2.08
1048.311	-5.48
1048.734	-6.48
1049.156	-3.17
1049.579	-7.08
1050.001	-10.17
1050.424	-2.78
1050.846	-0.88
1051.269	-9.07
1051.691	-6.38
1052.113	-7.77
1052.536	-2.38
1052.958	-4.27
1053.38	-8.58
1053.802	-12.48
1054.225	2.02
1054.647	-11.27
1055.069	-11.58
1055.491	2.23
1055.913	-2.77
1056.335	-3.68
1056.757	-4.67
1057.179	-9.48
1057.601	-5.17
1058.023	-8.17
1058.445	-4.88
1058.867	-4.58
1059.289	-8.28
1059.711	-8.77
1060.133	-3.18
1060.555	-5.68
1060.976	-1.58
1061.398	-5.58
1061.82	-6.27
1062.241	-8.18
1062.663	-11.98
1063.085	-1.88
1063.506	-5.97
1063.928	-2.48
1064.35	-4.77
1064.771	-10.48
1065.193	-4.58
1065.614	-11.17
1066.035	-2.97
1066.457	-6.48
1066.878	0.92
1067.3	-8.68
1067.721	-4.38
1068.142	-9.58
1068.564	-1.88
1068.985	-4.88
1069.406	-7.98
1069.827	-3.08
1070.248	-3.48
1070.67	-7.67
1071.091	-6.77
1071.512	-1.58
1071.933	-7.27
1072.354	-1.38
1072.775	-4.77
1073.196	-6.27
1073.617	-6.58
1074.038	-9.67
1074.459	-6.47
1074.88	-9.27
1075.3	0.62
1075.721	-4.78
1076.142	-3.47
1076.563	-5.18
1076.983	-9.58
1077.404	-5.27
1077.825	-7.88
1078.246	-1.88
1078.666	-11.78
1079.087	-4.67
1079.507	-8.68
1079.928	0.22
1080.348	-0.38
1080.769	-7.68
1081.189	-1.38
1081.61	-3.67
1082.03	-5.58
1082.451	-6.77
1082.871	-5.77
1083.291	-6.38
1083.711	-9.07
1084.132	-4.07
1084.552	-4.58
1084.972	5.12
1085.392	-7.58
1085.813	-11.98
1086.233	-8.38
1086.653	-5.77
1087.073	-2.57
1087.493	-8.77
1087.913	-5.18
1088.333	-9.48
1088.753	-6.38
1089.173	1.22
1089.593	-2.88
1090.013	-2.38
1090.433	4.62
1090.852	0.92
1091.272	-1.18
1091.692	-6.17
1092.112	-4.48
1092.531	-14.08
1092.951	-12.17
1093.371	-7.68
1093.79	0.23
1094.21	-7.48
1094.63	-7.38
1095.049	-3.17
1095.469	4.73
1095.888	-6.48
1096.308	6.82
1096.727	5.62
1097.146	-2.38
1097.566	-0.48
1097.985	-6.38
1098.405	-1.77
1098.824	-3.38
1099.243	-8.67
1099.662	-3.77
1100.082	-2.17
1100.501	2.32
1100.92	-12.48
1101.339	-5.38
1101.758	-6.77
