Data from 20171114-ORNL-Ar_H_NY_Subt18_08-03-51-689.txt Node
Date: Tue Nov 14 08:03:51 EST 2017
User: Ender
Spectrometer: HR+D1039
Trigger mode: 0
Integration Time (sec): 2.730000E-2
Scans to average: 10
Electric dark correction enabled: true
Nonlinearity correction enabled: false
Boxcar width: 0
XAxis mode: Wavelengths
Number of Pixels in Spectrum: 2048
>>>>>Begin Spectral Data<<<<<
187.836	-0.87
188.309	-0.87
188.782	-0.87
189.255	9.23
189.728	-4.47
190.201	5.83
190.674	-0.97
191.147	0.53
191.619	-11.07
192.092	2.73
192.565	5.53
193.038	-5.77
193.511	1.23
193.984	-3.47
194.456	-1.87
194.929	-1.47
195.402	4.63
195.874	0.23
196.347	-3.67
196.82	-10.17
197.292	4.03
197.765	-2.77
198.237	-4.47
198.71	3.53
199.182	-1.57
199.655	1.93
200.127	3.93
200.6	-4.67
201.072	-6.77
201.544	-6.57
202.017	-7.57
202.489	7.93
202.961	-2.67
203.433	-4.37
203.906	-2.07
204.378	-6.37
204.85	2.23
205.322	-17.27
205.794	-2.37
206.266	-5.37
206.739	-3.37
207.211	3.53
207.683	-6.77
208.155	-6.77
208.627	-6.67
209.099	-4.37
209.57	-8.17
210.042	-3.47
210.514	-1.27
210.986	-7.57
211.458	-6.87
211.93	-0.47
212.402	3.13
212.873	-10.87
213.345	-10.77
213.817	-10.57
214.288	-4.27
214.76	-6.17
215.232	-0.67
215.703	-2.97
216.175	0.53
216.646	-5.47
217.118	-11.17
217.589	-5.77
218.061	1.53
218.532	-0.57
219.004	2.03
219.475	-6.57
219.946	-0.97
220.418	-3.77
220.889	6.53
221.36	-1.37
221.832	-9.97
222.303	-15.47
222.774	-3.67
223.245	-14.57
223.717	-6.67
224.188	0.03
224.659	-10.07
225.13	-5.07
225.601	-5.47
226.072	2.53
226.543	-3.17
227.014	-3.57
227.485	-2.67
227.956	-10.27
228.427	-3.67
228.898	-0.07
229.369	-1.77
229.839	-3.77
230.31	-5.77
230.781	-5.67
231.252	-7.07
231.722	-2.57
232.193	-6.17
232.664	-7.17
233.135	-2.37
233.605	-2.77
234.076	-8.27
234.546	-1.97
235.017	0.83
235.487	-2.27
235.958	-6.17
236.428	-9.57
236.899	2.53
237.369	0.23
237.84	-6.97
238.31	-2.57
238.78	-2.17
239.251	-6.77
239.721	-1.87
240.191	-1.77
240.662	-3.77
241.132	1.03
241.602	-5.07
242.072	2.43
242.542	3.33
243.013	-3.47
243.483	-2.67
243.953	2.63
244.423	-4.37
244.893	-3.17
245.363	1.53
245.833	3.03
246.303	-3.47
246.773	-0.37
247.243	-2.07
247.712	-1.97
248.182	4.53
248.652	5.43
249.122	-11.57
249.592	-5.27
250.061	2.63
250.531	3.43
251.001	-5.67
251.471	5.73
251.94	4.63
252.41	-2.27
252.879	-9.07
253.349	4.93
253.818	6.13
254.288	0.23
254.757	-0.37
255.227	0.03
255.696	1.33
256.166	1.73
256.635	7.33
257.105	9.33
257.574	5.63
258.043	0.33
258.513	-11.57
258.982	-3.07
259.451	-5.67
259.92	3.43
260.389	-4.07
260.859	7.53
261.328	2.83
261.797	3.03
262.266	-0.27
262.735	5.03
263.204	4.03
263.673	-5.67
264.142	3.13
264.611	-7.87
265.08	-1.57
265.549	0.03
266.018	4.63
266.487	-4.27
266.955	-11.07
267.424	-9.17
267.893	-1.97
268.362	-5.87
268.83	2.33
269.299	11.53
269.768	1.63
270.236	5.93
270.705	3.23
271.174	-0.57
271.642	1.83
272.111	-5.57
272.579	1.13
273.048	2.83
273.516	1.83
273.985	4.63
274.453	9.93
274.922	8.63
275.39	2.83
275.858	-2.67
276.327	2.63
276.795	13.53
277.263	6.83
277.731	8.03
278.2	4.83
278.668	2.53
279.136	3.03
279.604	0.53
280.072	11.03
280.54	5.83
281.008	5.13
281.477	6.33
281.945	3.03
282.413	4.73
282.881	16.53
283.348	0.93
283.816	11.63
284.284	3.23
284.752	14.23
285.22	4.83
285.688	1.33
286.156	6.13
286.623	13.93
287.091	2.53
287.559	6.93
288.026	5.73
288.494	6.63
288.962	5.83
289.429	2.83
289.897	11.43
290.364	3.33
290.832	9.43
291.3	6.83
291.767	3.93
292.234	13.43
292.702	5.73
293.169	12.83
293.637	10.23
294.104	11.43
294.571	0.73
295.039	-0.17
295.506	10.13
295.973	9.13
296.44	4.83
296.908	12.53
297.375	9.63
297.842	8.73
298.309	10.23
298.776	4.43
299.243	11.53
299.71	10.13
300.177	13.33
300.644	9.03
301.111	11.83
301.578	14.93
302.045	10.23
302.512	14.33
302.979	13.93
303.446	8.53
303.913	15.13
304.379	4.03
304.846	16.13
305.313	14.33
305.78	12.23
306.246	13.83
306.713	16.53
307.18	19.83
307.646	14.53
308.113	16.03
308.579	14.03
309.046	15.83
309.512	18.43
309.979	16.23
310.445	24.73
310.912	21.83
311.378	20.83
311.845	24.53
312.311	19.73
312.777	21.73
313.244	21.53
313.71	24.63
314.176	21.53
314.642	17.63
315.109	21.43
315.575	25.83
316.041	32.23
316.507	16.53
316.973	21.43
317.439	20.43
317.905	26.13
318.371	27.93
318.837	24.53
319.303	21.33
319.769	24.93
320.235	26.33
320.701	25.93
321.167	23.63
321.633	26.93
322.099	30.03
322.564	29.53
323.03	28.13
323.496	27.03
323.962	33.43
324.427	27.73
324.893	31.23
325.359	24.83
325.824	27.73
326.29	29.83
326.755	28.33
327.221	30.73
327.686	28.53
328.152	36.13
328.617	32.83
329.083	33.13
329.548	38.83
330.014	37.53
330.479	40.53
330.944	36.23
331.41	34.13
331.875	34.33
332.34	30.53
332.805	29.83
333.271	36.03
333.736	30.63
334.201	40.33
334.666	41.13
335.131	48.13
335.596	38.33
336.061	37.23
336.526	28.93
336.991	36.53
337.456	47.73
337.921	44.03
338.386	36.73
338.851	39.03
339.316	38.23
339.781	38.13
340.246	41.93
340.711	35.93
341.175	45.43
341.64	35.53
342.105	37.63
342.569	44.43
343.034	47.23
343.499	52.33
343.963	44.23
344.428	56.53
344.893	55.33
345.357	51.73
345.822	49.53
346.286	61.03
346.751	60.53
347.215	59.53
347.679	61.53
348.144	70.13
348.608	67.03
349.073	60.63
349.537	55.83
350.001	59.13
350.465	73.63
350.93	66.43
351.394	67.03
351.858	60.53
352.322	73.63
352.786	66.83
353.25	79.53
353.715	89.13
354.179	75.83
354.643	94.83
355.107	97.33
355.571	82.73
356.035	79.83
356.498	91.93
356.962	99.13
357.426	101.83
357.89	91.33
358.354	78.03
358.818	73.13
359.281	66.93
359.745	67.43
360.209	66.23
360.673	62.53
361.136	70.23
361.6	71.53
362.064	69.53
362.527	70.93
362.991	84.63
363.454	74.63
363.918	72.63
364.381	66.63
364.845	74.43
365.308	86.33
365.772	82.03
366.235	83.33
366.698	69.83
367.162	78.53
367.625	71.23
368.088	77.93
368.552	82.73
369.015	77.13
369.478	93.63
369.941	92.73
370.404	87.43
370.867	87.53
371.331	93.73
371.794	95.73
372.257	97.63
372.72	96.93
373.183	94.43
373.646	92.23
374.109	89.93
374.572	99.63
375.035	85.93
375.497	97.63
375.96	98.43
376.423	96.03
376.886	105.43
377.349	92.83
377.811	97.03
378.274	105.13
378.737	96.33
379.199	108.03
379.662	107.63
380.125	108.73
380.587	98.63
381.05	104.43
381.512	108.73
381.975	117.63
382.437	112.93
382.9	115.43
383.362	115.23
383.825	120.13
384.287	118.73
384.75	114.13
385.212	121.03
385.674	126.33
386.136	127.33
386.599	116.63
387.061	121.03
387.523	112.93
387.985	126.13
388.447	130.93
388.91	123.03
389.372	128.93
389.834	119.93
390.296	128.13
390.758	123.33
391.22	130.73
391.682	136.83
392.144	138.53
392.606	136.83
393.068	141.83
393.529	151.43
393.991	139.63
394.453	128.83
394.915	125.53
395.377	124.63
395.838	127.83
396.3	136.43
396.762	137.03
397.224	130.03
397.685	130.33
398.147	126.83
398.608	130.93
399.07	120.33
399.531	136.33
399.993	138.83
400.454	151.93
400.916	149.23
401.377	148.53
401.839	156.83
402.3	151.63
402.762	161.33
403.223	170.63
403.684	173.73
404.145	159.83
404.607	158.63
405.068	160.13
405.529	161.43
405.99	179.93
406.451	171.63
406.913	168.83
407.374	161.53
407.835	168.23
408.296	168.03
408.757	172.83
409.218	180.33
409.679	180.53
410.14	171.93
410.601	173.13
411.062	179.43
411.522	182.33
411.983	170.53
412.444	176.83
412.905	187.13
413.366	186.13
413.826	203.03
414.287	222.03
414.748	272.53
415.208	254.63
415.669	210.93
416.13	208.73
416.59	210.33
417.051	214.83
417.511	225.13
417.972	249.43
418.432	255.93
418.893	293.23
419.353	264.93
419.814	205.33
420.274	190.33
420.734	190.33
421.195	200.03
421.655	184.43
422.115	194.43
422.576	194.33
423.036	203.03
423.496	208.03
423.956	219.93
424.416	233.33
424.876	275.53
425.336	268.33
425.797	260.33
426.257	256.73
426.717	239.93
427.177	229.73
427.637	227.93
428.097	234.73
428.556	241.03
429.016	272.63
429.476	258.53
429.936	261.03
430.396	270.43
430.856	276.33
431.315	300.03
431.775	323.33
432.235	360.63
432.694	334.13
433.154	342.63
433.614	351.03
434.073	308.93
434.533	272.53
434.993	251.93
435.452	263.33
435.912	266.53
436.371	265.73
436.83	261.93
437.29	251.43
437.749	234.53
438.209	240.93
438.668	258.33
439.127	258.53
439.587	243.33
440.046	231.53
440.505	245.23
440.964	258.13
441.424	290.43
441.883	282.73
442.342	251.53
442.801	224.73
443.26	218.93
443.719	224.83
444.178	221.93
444.637	214.73
445.096	223.53
445.555	222.53
446.014	226.43
446.473	232.93
446.932	231.93
447.391	225.63
447.849	231.43
448.308	217.73
448.767	223.73
449.226	233.53
449.685	231.13
450.143	247.93
450.602	233.13
451.061	222.33
451.519	227.43
451.978	228.33
452.436	231.53
452.895	237.73
453.353	244.33
453.812	238.93
454.27	240.23
454.729	231.43
455.187	234.93
455.646	234.73
456.104	244.83
456.562	245.73
457.021	258.23
457.479	243.93
457.937	254.53
458.395	254.53
458.854	244.33
459.312	248.53
459.77	257.93
460.228	251.83
460.686	249.63
461.144	243.83
461.602	245.23
462.06	244.23
462.518	250.83
462.976	255.83
463.434	255.63
463.892	254.13
464.35	261.03
464.808	276.23
465.266	266.13
465.724	264.83
466.181	269.43
466.639	270.93
467.097	285.13
467.555	289.83
468.012	294.83
468.47	299.13
468.928	311.13
469.385	326.83
469.843	335.23
470.3	325.33
470.758	332.73
471.215	354.73
471.673	373.33
472.13	376.53
472.588	386.93
473.045	362.53
473.503	372.03
473.96	384.13
474.417	394.43
474.875	411.43
475.332	438.63
475.789	429.43
476.246	445.13
476.704	454.13
477.161	467.93
477.618	483.13
478.075	515.23
478.532	562.53
478.989	609.23
479.446	691.33
479.903	686.13
480.36	725.63
480.817	764.43
481.274	852.53
481.731	930.43
482.188	994.33
482.645	1125.63
483.102	1194.63
483.558	1299.63
484.015	1355.63
484.472	1352.23
484.929	1299.13
485.385	1255.83
485.842	1235.43
486.299	1190.63
486.755	1118.83
487.212	967.63
487.668	847.03
488.125	792.73
488.582	720.43
489.038	700.03
489.494	662.43
489.951	626.13
490.407	614.53
490.864	611.83
491.32	597.63
491.776	592.23
492.233	593.73
492.689	573.23
493.145	572.33
493.602	555.63
494.058	564.63
494.514	571.53
494.97	582.23
495.426	584.13
495.882	571.43
496.338	560.83
496.794	560.43
497.251	562.53
497.707	571.03
498.163	577.43
498.618	577.23
499.074	582.03
499.53	593.13
499.986	603.13
500.442	592.93
500.898	570.03
501.354	563.93
501.809	568.23
502.265	564.53
502.721	583.03
503.177	580.13
503.632	586.43
504.088	590.23
504.543	606.23
504.999	614.43
505.455	595.83
505.91	588.53
506.366	587.73
506.821	581.53
507.277	577.03
507.732	584.63
508.187	578.23
508.643	580.73
509.098	595.73
509.553	608.73
510.009	613.63
510.464	611.63
510.919	627.13
511.375	628.53
511.83	632.93
512.285	644.53
512.74	682.83
513.195	684.93
513.65	684.93
514.105	692.03
514.56	697.53
515.015	710.63
515.47	708.33
515.925	693.43
516.38	710.43
516.835	715.83
517.29	705.23
517.745	704.23
518.2	686.83
518.655	678.93
519.109	666.73
519.564	673.53
520.019	653.53
520.474	646.03
520.928	647.73
521.383	649.13
521.838	628.43
522.292	636.43
522.747	630.63
523.201	629.33
523.656	627.33
524.11	632.33
524.565	624.63
525.019	619.73
525.474	625.13
525.928	610.43
526.382	618.73
526.837	611.93
527.291	614.83
527.745	611.43
528.2	620.83
528.654	607.23
529.108	601.23
529.562	608.53
530.016	610.93
530.47	606.63
530.925	609.43
531.379	613.33
531.833	610.63
532.287	624.83
532.741	611.63
533.195	607.93
533.649	618.83
534.103	622.03
534.556	603.23
535.01	609.13
535.464	606.23
535.918	606.73
536.372	626.13
536.826	620.23
537.279	597.23
537.733	609.03
538.187	604.73
538.64	614.53
539.094	618.83
539.548	624.03
540.001	629.33
540.455	618.33
540.908	632.73
541.362	632.83
541.815	645.03
542.269	637.73
542.722	639.53
543.175	653.83
543.629	655.33
544.082	677.23
544.536	669.83
544.989	669.43
545.442	682.13
545.895	671.93
546.349	674.83
546.802	687.33
547.255	678.13
547.708	687.23
548.161	688.33
548.614	698.83
549.067	705.73
549.52	695.73
549.973	692.43
550.426	686.33
550.879	679.93
551.332	680.63
551.785	680.53
552.238	682.13
552.691	690.43
553.144	696.03
553.596	722.33
554.049	713.93
554.502	739.43
554.955	753.33
555.407	761.53
555.86	745.13
556.313	745.43
556.765	726.33
557.218	730.73
557.67	728.13
558.123	732.13
558.576	716.03
559.028	726.83
559.48	737.43
559.933	738.53
560.385	705.73
560.838	681.73
561.29	663.63
561.742	659.33
562.195	641.33
562.647	638.43
563.099	644.33
563.551	641.73
564.004	661.23
564.456	629.23
564.908	620.83
565.36	613.03
565.812	592.43
566.264	588.73
566.716	586.73
567.168	572.63
567.62	581.93
568.072	562.83
568.524	573.13
568.976	561.53
569.428	540.33
569.88	558.83
570.332	563.93
570.784	563.63
571.235	562.13
571.687	561.83
572.139	576.53
572.59	584.43
573.042	573.33
573.494	576.53
573.945	569.33
574.397	549.23
574.849	563.53
575.3	554.73
575.752	551.93
576.203	540.13
576.655	553.73
577.106	533.43
577.557	533.63
578.009	530.23
578.46	535.33
578.912	521.63
579.363	526.83
579.814	529.03
580.265	520.43
580.717	526.93
581.168	529.33
581.619	534.73
582.07	543.23
582.521	530.13
582.972	531.13
583.423	531.63
583.875	528.03
584.326	539.43
584.777	544.83
585.227	567.23
585.678	568.33
586.129	594.93
586.58	607.03
587.031	624.03
587.482	651.23
587.933	678.33
588.384	653.23
588.834	619.83
589.285	602.93
589.736	618.43
590.186	614.93
590.637	606.13
591.088	580.33
591.538	576.63
591.989	571.73
592.439	558.63
592.89	550.13
593.34	550.43
593.791	539.73
594.241	537.93
594.692	542.63
595.142	540.53
595.593	538.23
596.043	542.63
596.493	546.63
596.943	537.43
597.394	559.33
597.844	548.73
598.294	562.03
598.744	577.53
599.195	603.03
599.645	619.83
600.095	657.73
600.545	693.13
600.995	739.23
601.445	783.83
601.895	829.73
602.345	871.83
602.795	858.63
603.245	814.53
603.695	790.13
604.145	733.83
604.594	697.73
605.044	662.43
605.494	608.13
605.944	578.33
606.393	570.23
606.843	549.63
607.293	549.53
607.743	552.53
608.192	551.93
608.642	569.53
609.091	567.53
609.541	576.93
609.99	564.73
610.44	567.13
610.889	535.63
611.339	515.53
611.788	515.63
612.238	514.13
612.687	531.23
613.136	516.53
613.586	535.33
614.035	529.93
614.484	533.23
614.933	536.13
615.383	524.93
615.832	527.13
616.281	525.53
616.73	501.13
617.179	487.23
617.628	481.73
618.077	464.63
618.526	466.63
618.975	458.63
619.424	455.23
619.873	456.43
620.322	457.53
620.771	450.23
621.22	451.43
621.669	445.23
622.118	434.23
622.567	431.13
623.015	425.03
623.464	420.93
623.913	421.73
624.361	408.83
624.81	411.73
625.259	411.83
625.707	421.23
626.156	407.33
626.604	418.83
627.053	412.33
627.501	419.13
627.95	418.83
628.398	425.53
628.847	416.33
629.295	414.73
629.744	425.03
630.192	425.83
630.64	415.73
631.089	400.23
631.537	388.43
631.985	384.43
632.433	395.33
632.881	386.33
633.33	388.03
633.778	376.93
634.226	377.93
634.674	386.33
635.122	392.13
635.57	399.63
636.018	404.33
636.466	404.63
636.914	399.23
637.362	408.53
637.81	418.53
638.258	421.43
638.705	418.63
639.153	437.93
639.601	447.83
640.049	463.83
640.497	489.13
640.944	502.63
641.392	464.93
641.84	445.13
642.287	420.73
642.735	403.63
643.182	409.73
643.63	413.13
644.078	409.73
644.525	411.93
644.973	416.43
645.42	423.63
645.867	438.53
646.315	459.73
646.762	462.53
647.21	480.43
647.657	504.53
648.104	523.53
648.551	532.03
648.999	576.43
649.446	620.73
649.893	680.13
650.34	759.03
650.787	906.93
651.234	1101.73
651.682	1412.73
652.129	1902.13
652.576	2688.23
653.023	3925.93
653.47	5442.23
653.917	6866.83
654.363	8066.63
654.81	9145.13
655.257	8669.93
655.704	5733.43
656.151	3401.13
656.598	2242.93
657.044	1595.73
657.491	1242.73
657.938	988.73
658.385	831.83
658.831	723.33
659.278	651.23
659.724	577.43
660.171	541.23
660.618	490.93
661.064	466.73
661.511	451.13
661.957	435.23
662.404	425.33
662.85	437.23
663.296	416.33
663.743	398.53
664.189	380.63
664.635	374.63
665.082	373.03
665.528	369.93
665.974	359.83
666.42	362.83
666.867	352.23
667.313	330.63
667.759	328.13
668.205	318.13
668.651	323.63
669.097	315.23
669.543	306.93
669.989	309.23
670.435	308.93
670.881	315.33
671.327	315.43
671.773	340.83
672.219	344.63
672.665	385.73
673.11	413.93
673.556	445.63
674.002	485.83
674.448	476.53
674.893	400.03
675.339	345.83
675.785	308.73
676.23	297.53
676.676	282.53
677.122	272.53
677.567	267.03
678.013	257.63
678.458	259.93
678.904	250.73
679.349	245.23
679.794	250.93
680.24	247.03
680.685	244.63
681.131	244.03
681.576	240.73
682.021	251.93
682.466	243.63
682.912	248.33
683.357	245.63
683.802	268.83
684.247	281.53
684.692	317.13
685.137	343.63
685.583	378.83
686.028	394.23
686.473	373.23
686.918	310.73
687.363	291.23
687.807	277.63
688.252	253.43
688.697	256.43
689.142	236.43
689.587	232.93
690.032	222.53
690.477	240.33
690.921	232.93
691.366	262.03
691.811	277.33
692.255	304.33
692.7	319.53
693.145	348.63
693.589	467.03
694.034	768.73
694.478	1080.93
694.923	1265.43
695.367	1687.53
695.812	885.63
696.256	363.23
696.701	254.73
697.145	242.13
697.59	231.33
698.034	222.13
698.478	223.03
698.922	230.43
699.367	227.03
699.811	236.03
700.255	241.03
700.699	258.93
701.143	291.63
701.588	328.23
702.032	365.43
702.476	369.73
702.92	346.23
703.364	341.73
703.808	432.43
704.252	704.63
704.696	1007.83
705.14	1208.23
705.584	1596.03
706.027	776.93
706.471	373.03
706.915	280.63
707.359	244.63
707.803	227.43
708.246	215.33
708.69	215.43
709.134	217.43
709.577	213.23
710.021	220.93
710.465	211.23
710.908	203.63
711.352	210.53
711.795	214.53
712.239	240.33
712.682	267.73
713.126	286.03
713.569	318.83
714.012	253.53
714.456	213.93
714.899	202.43
715.342	187.93
715.786	186.03
716.229	178.53
716.672	178.53
717.115	173.63
717.558	167.83
718.002	167.33
718.445	186.53
718.888	199.73
719.331	199.03
719.774	212.63
720.217	217.73
720.66	200.73
721.103	192.93
721.546	178.43
721.989	171.33
722.432	145.73
722.874	161.63
723.317	155.73
723.76	157.13
724.203	175.63
724.645	213.13
725.088	299.53
725.531	400.33
725.974	459.23
726.416	395.63
726.859	216.23
727.301	164.03
727.744	161.33
728.187	159.53
728.629	165.13
729.071	162.63
729.514	179.53
729.956	187.03
730.399	191.83
730.841	199.23
731.283	184.73
731.726	183.83
732.168	187.53
732.61	179.63
733.053	201.73
733.495	211.43
733.937	243.73
734.379	274.63
734.821	299.23
735.263	370.63
735.705	562.63
736.148	1074.33
736.59	1801.13
737.032	2282.33
737.474	1856.93
737.916	584.13
738.357	294.73
738.799	229.93
739.241	209.83
739.683	199.73
740.125	209.73
740.567	208.33
741.008	228.23
741.45	228.93
741.892	217.03
742.334	247.13
742.775	260.73
743.217	248.83
743.658	189.73
744.1	173.53
744.542	183.83
744.983	227.53
745.425	257.13
745.866	255.83
746.307	196.93
746.749	192.13
747.19	225.43
747.632	313.63
748.073	580.13
748.514	1261.03
748.956	2021.83
749.397	2551.93
749.838	2111.63
750.279	2214.13
750.72	1106.33
751.162	394.83
751.603	225.43
752.044	176.23
752.485	139.63
752.926	150.13
753.367	143.03
753.808	129.63
754.249	135.43
754.69	128.73
755.131	129.03
755.572	121.13
756.013	126.33
756.453	125.93
756.894	127.33
757.335	120.03
757.776	130.33
758.216	137.23
758.657	128.23
759.098	127.43
759.538	155.83
759.979	177.43
760.42	251.43
760.86	475.13
761.301	1216.73
761.741	3106.53
762.182	4895.93
762.622	3477.33
763.063	977.93
763.503	376.33
763.943	228.63
764.384	191.83
764.824	183.33
765.264	172.63
765.705	149.03
766.145	126.83
766.585	118.63
767.025	116.43
767.465	110.83
767.906	122.83
768.346	137.83
768.786	149.73
769.226	143.73
769.666	205.23
770.106	409.83
770.546	1043.13
770.986	1918.03
771.426	1793.43
771.866	579.43
772.306	231.83
772.745	143.03
773.185	113.73
773.625	112.73
774.065	104.53
774.505	113.83
774.944	144.53
775.384	252.33
775.824	459.83
776.263	457.63
776.703	207.53
777.142	113.03
777.582	92.73
778.021	80.13
778.461	83.93
778.9	84.43
779.34	88.33
779.779	77.83
780.219	73.23
780.658	69.83
781.097	69.33
781.537	72.43
781.976	68.33
782.415	70.63
782.855	67.73
783.294	70.43
783.733	71.13
784.172	71.23
784.611	73.73
785.05	75.33
785.489	79.43
785.928	80.83
786.367	85.23
786.806	77.63
787.245	86.13
787.684	88.23
788.123	104.93
788.562	95.03
789.001	83.43
789.44	82.43
789.879	76.33
790.317	80.23
790.756	96.93
791.195	85.33
791.634	97.63
792.072	142.83
792.511	238.63
792.95	658.13
793.388	1535.63
793.827	1438.83
794.265	484.33
794.704	194.73
795.142	128.23
795.581	107.03
796.019	92.03
796.458	91.33
796.896	80.43
797.334	84.63
797.773	104.33
798.211	151.03
798.649	284.73
799.087	704.83
799.526	1146.93
799.964	1443.53
800.402	1529.63
800.84	559.53
801.278	212.53
801.716	123.83
802.154	107.23
802.592	101.53
803.03	93.63
803.468	87.53
803.906	96.53
804.344	97.73
804.782	97.13
805.22	95.13
805.658	88.03
806.096	99.73
806.533	112.43
806.971	120.33
807.409	140.83
807.847	217.63
808.284	452.53
808.722	1308.33
809.16	2429.13
809.597	2239.13
810.035	3986.83
810.472	4577.93
810.91	1622.83
811.347	589.73
811.785	298.33
812.222	190.13
812.66	139.23
813.097	122.83
813.535	97.13
813.972	89.83
814.409	81.33
814.846	75.03
815.284	79.63
815.721	68.33
816.158	67.33
816.595	76.03
817.032	119.13
817.47	139.03
817.907	104.13
818.344	73.93
818.781	70.93
819.218	67.23
819.655	91.13
820.092	148.53
820.529	167.53
820.966	127.83
821.403	87.63
821.839	67.33
822.276	68.23
822.713	84.03
823.15	105.93
823.587	83.03
824.023	92.83
824.46	203.23
824.897	626.63
825.333	1013.13
825.77	433.83
826.206	167.53
826.643	100.03
827.08	67.53
827.516	52.83
827.953	56.43
828.389	55.53
828.825	49.73
829.262	45.13
829.698	40.93
830.135	38.03
830.571	41.63
831.007	41.03
831.443	37.73
831.88	44.43
832.316	42.33
832.752	41.83
833.188	44.63
833.624	38.23
834.06	46.03
834.497	49.33
834.933	50.43
835.369	54.33
835.805	41.93
836.241	48.83
836.677	58.63
837.112	57.23
837.548	65.43
837.984	92.93
838.42	138.13
838.856	334.43
839.292	1074.43
839.727	1752.03
840.163	813.33
840.599	648.93
841.034	1479.03
841.47	1650.73
841.906	578.03
842.341	243.33
842.777	141.33
843.212	148.83
843.648	144.73
844.083	86.33
844.519	59.13
844.954	51.33
845.39	42.13
845.825	41.33
846.261	40.33
846.696	33.43
847.131	38.33
847.566	40.13
848.002	35.83
848.437	39.23
848.872	44.03
849.307	41.63
849.742	57.73
850.177	125.63
850.613	388.93
851.048	658.33
851.483	280.73
851.918	108.23
852.353	58.43
852.788	35.33
853.223	34.43
853.657	36.13
854.092	35.43
854.527	20.13
854.962	25.83
855.397	33.03
855.832	33.63
856.266	26.53
856.701	25.53
857.136	22.43
857.57	31.23
858.005	36.73
858.44	45.63
858.874	29.23
859.309	40.33
859.743	25.13
860.178	28.63
860.612	29.93
861.047	40.03
861.481	48.23
861.915	56.43
862.35	39.23
862.784	25.23
863.218	20.93
863.653	22.03
864.087	31.13
864.521	43.23
864.955	44.83
865.39	109.43
865.824	120.43
866.258	81.53
866.692	133.23
867.126	149.83
867.56	89.03
867.994	39.93
868.428	24.93
868.862	32.83
869.296	46.13
869.73	44.53
870.164	41.13
870.598	36.13
871.031	28.53
871.465	23.53
871.899	25.43
872.333	14.73
872.766	17.23
873.2	17.63
873.634	22.03
874.067	18.03
874.501	15.23
874.935	22.83
875.368	21.23
875.802	17.13
876.235	15.03
876.669	14.63
877.102	10.53
877.535	18.03
877.969	13.53
878.402	17.33
878.836	10.23
879.269	18.53
879.702	15.13
880.135	12.33
880.569	15.23
881.002	16.13
881.435	14.63
881.868	13.33
882.301	18.93
882.734	8.13
883.167	14.13
883.601	16.93
884.034	16.03
884.467	7.53
884.899	15.13
885.332	12.53
885.765	10.43
886.198	9.73
886.631	13.23
887.064	10.13
887.497	12.73
887.929	21.53
888.362	5.43
888.795	7.53
889.228	13.33
889.66	13.13
890.093	15.13
890.526	14.13
890.958	13.53
891.391	9.73
891.823	15.73
892.256	4.93
892.688	10.83
893.121	15.83
893.553	10.53
893.985	14.33
894.418	12.73
894.85	13.83
895.282	6.13
895.715	14.03
896.147	12.93
896.579	11.23
897.011	6.73
897.444	5.53
897.876	8.23
898.308	12.13
898.74	11.43
899.172	6.13
899.604	13.53
900.036	16.43
900.468	17.43
900.9	10.03
901.332	11.73
901.764	3.53
902.196	10.53
902.628	13.03
903.06	12.33
903.491	21.93
903.923	14.83
904.355	14.93
904.787	11.63
905.218	14.13
905.65	11.23
906.082	7.73
906.513	5.03
906.945	10.33
907.376	5.33
907.808	18.03
908.239	12.03
908.671	14.13
909.102	12.53
909.534	18.63
909.965	31.43
910.397	69.73
910.828	232.33
911.259	361.43
911.691	159.43
912.122	74.23
912.553	36.33
912.984	27.33
913.415	19.73
913.847	19.33
914.278	8.43
914.709	10.13
915.14	18.83
915.571	14.43
916.002	7.43
916.433	13.83
916.864	16.33
917.295	8.13
917.726	15.23
918.157	12.63
918.587	20.73
919.018	7.83
919.449	6.73
919.88	20.23
920.311	18.33
920.741	34.43
921.172	116.53
921.603	114.53
922.033	47.23
922.464	26.33
922.895	13.73
923.325	16.43
923.756	7.03
924.186	5.23
924.617	14.43
925.047	12.53
925.478	19.23
925.908	12.33
926.338	8.43
926.769	9.63
927.199	13.03
927.629	1.43
928.06	15.73
928.49	14.03
928.92	6.83
929.35	0.83
929.78	9.83
930.21	5.03
930.641	1.93
931.071	3.63
931.501	2.73
931.931	4.13
932.361	5.63
932.791	1.13
933.221	3.23
933.651	-3.37
934.08	9.63
934.51	26.13
934.94	4.83
935.37	4.53
935.8	3.83
936.229	0.73
936.659	6.93
937.089	-1.17
937.519	7.93
937.948	19.13
938.378	12.83
938.807	10.13
939.237	0.53
939.666	0.83
940.096	-3.87
940.525	-0.47
940.955	-0.07
941.384	1.33
941.814	-4.97
942.243	-4.47
942.672	3.33
943.102	-4.37
943.531	3.63
943.96	5.93
944.39	0.73
944.819	-1.47
945.248	3.83
945.677	3.33
946.106	5.43
946.535	3.13
946.964	-1.57
947.393	0.43
947.822	-1.27
948.251	-5.37
948.68	1.93
949.109	6.83
949.538	5.83
949.967	-0.97
950.396	0.43
950.825	-1.87
951.254	0.93
951.682	-7.37
952.111	5.33
952.54	4.23
952.969	-0.77
953.397	-6.57
953.826	-1.67
954.254	-9.37
954.683	-8.37
955.112	-4.17
955.54	0.13
955.969	2.33
956.397	1.63
956.826	-0.27
957.254	3.33
957.682	3.93
958.111	3.73
958.539	-1.37
958.967	-3.37
959.396	-1.97
959.824	-1.37
960.252	-3.37
960.68	-9.57
961.109	4.43
961.537	-8.37
961.965	0.23
962.393	1.13
962.821	-3.07
963.249	-8.37
963.677	2.53
964.105	-1.17
964.533	31.03
964.961	30.43
965.389	15.43
965.817	4.93
966.245	-0.47
966.672	-3.67
967.1	-5.67
967.528	-2.47
967.956	-5.77
968.383	-1.07
968.811	0.33
969.239	-3.37
969.666	-2.47
970.094	-1.17
970.522	3.83
970.949	0.33
971.377	-7.27
971.804	0.03
972.232	-4.67
972.659	-0.87
973.087	-5.97
973.514	-1.77
973.941	-8.87
974.369	1.73
974.796	3.73
975.223	1.33
975.651	-4.87
976.078	-1.97
976.505	4.33
976.932	2.63
977.359	15.13
977.786	10.43
978.214	-1.57
978.641	-2.77
979.068	-1.87
979.495	-3.97
979.922	-6.37
980.349	-3.97
980.776	2.83
981.202	1.63
981.629	3.53
982.056	-4.37
982.483	-4.27
982.91	0.43
983.337	-3.97
983.763	3.93
984.19	-2.77
984.617	-5.77
985.043	-4.37
985.47	1.13
985.897	0.43
986.323	-5.17
986.75	2.93
987.176	-2.47
987.603	-3.57
988.029	-2.77
988.456	-0.87
988.882	5.23
989.308	-6.77
989.735	-2.97
990.161	6.53
990.587	-5.17
991.014	-1.67
991.44	7.43
991.866	0.23
992.292	-1.27
992.719	-5.77
993.145	1.03
993.571	-6.97
993.997	-0.07
994.423	-2.77
994.849	-2.07
995.275	-0.77
995.701	0.13
996.127	-1.17
996.553	5.73
996.979	-5.47
997.405	-4.27
997.83	-7.97
998.256	-6.67
998.682	-3.87
999.108	-5.37
999.534	-2.67
999.959	-3.77
1000.385	-5.67
1000.811	1.53
1001.236	-8.17
1001.662	-6.47
1002.087	-7.97
1002.513	-2.57
1002.938	-2.37
1003.364	-5.07
1003.789	-2.37
1004.215	4.83
1004.64	-3.57
1005.066	8.23
1005.491	1.23
1005.916	-2.37
1006.342	-2.27
1006.767	-3.87
1007.192	3.13
1007.617	-5.17
1008.042	-5.47
1008.468	-6.57
1008.893	-6.07
1009.318	-0.57
1009.743	-4.17
1010.168	5.33
1010.593	-5.27
1011.018	-4.87
1011.443	-7.17
1011.868	0.73
1012.293	-3.27
1012.718	-5.47
1013.143	5.83
1013.567	6.43
1013.992	-0.27
1014.417	-8.97
1014.842	6.73
1015.267	-4.67
1015.691	-2.27
1016.116	4.73
1016.541	-5.57
1016.965	-3.37
1017.39	2.63
1017.814	0.53
1018.239	-2.27
1018.663	-6.77
1019.088	-10.77
1019.512	-3.27
1019.937	-4.07
1020.361	-1.07
1020.785	-11.67
1021.21	-4.97
1021.634	-3.27
1022.058	-3.67
1022.483	1.93
1022.907	-5.27
1023.331	-8.07
1023.755	-3.07
1024.179	-2.17
1024.604	-9.97
1025.028	-2.67
1025.452	-4.07
1025.876	-2.57
1026.3	0.93
1026.724	-10.67
1027.148	-1.37
1027.572	-3.27
1027.996	-5.17
1028.42	-1.27
1028.843	-2.47
1029.267	-6.37
1029.691	3.33
1030.115	-3.17
1030.539	-7.17
1030.962	-1.97
1031.386	-6.37
1031.81	0.53
1032.233	1.13
1032.657	-0.57
1033.08	1.03
1033.504	-5.47
1033.927	-4.97
1034.351	0.13
1034.774	-6.97
1035.198	4.13
1035.621	-5.37
1036.045	-2.87
1036.468	2.83
1036.891	-11.77
1037.315	-12.87
1037.738	-6.27
1038.161	-0.87
1038.584	-3.87
1039.008	-2.37
1039.431	-4.27
1039.854	-2.27
1040.277	-7.87
1040.7	-8.47
1041.123	-1.47
1041.546	-9.67
1041.969	-2.57
1042.392	-7.57
1042.815	-3.17
1043.238	4.23
1043.661	2.63
1044.084	-6.07
1044.507	-9.57
1044.93	-7.77
1045.352	-6.77
1045.775	-3.37
1046.198	-5.17
1046.621	2.53
1047.043	1.73
1047.466	4.23
1047.889	-9.07
1048.311	-2.77
1048.734	-2.17
1049.156	-2.27
1049.579	-2.57
1050.001	-1.37
1050.424	1.73
1050.846	-0.87
1051.269	-2.27
1051.691	-10.27
1052.113	-11.17
1052.536	-1.17
1052.958	-3.37
1053.38	-3.37
1053.802	-6.27
1054.225	1.53
1054.647	-7.67
1055.069	-6.17
1055.491	3.53
1055.913	-13.37
1056.335	2.73
1056.757	-2.77
1057.179	-8.57
1057.601	-9.57
1058.023	-1.47
1058.445	-3.17
1058.867	-6.47
1059.289	-1.67
1059.711	-5.47
1060.133	4.03
1060.555	-2.67
1060.976	-7.17
1061.398	-5.27
1061.82	-4.97
1062.241	-3.17
1062.663	-7.27
1063.085	-8.37
1063.506	-0.47
1063.928	-2.87
1064.35	5.93
1064.771	-11.47
1065.193	-1.37
1065.614	-6.27
1066.035	-2.07
1066.457	-2.57
1066.878	2.23
1067.3	0.13
1067.721	-6.07
1068.142	-1.77
1068.564	-3.47
1068.985	-4.67
1069.406	-4.37
1069.827	-1.97
1070.248	-0.97
1070.67	-5.97
1071.091	-1.37
1071.512	-1.67
1071.933	-7.47
1072.354	-11.57
1072.775	-1.77
1073.196	-7.47
1073.617	-1.37
1074.038	-4.87
1074.459	-0.47
1074.88	-8.07
1075.3	0.63
1075.721	-3.47
1076.142	-2.27
1076.563	-4.27
1076.983	-10.37
1077.404	-7.77
1077.825	-8.07
1078.246	-4.17
1078.666	-8.67
1079.087	-3.77
1079.507	-7.47
1079.928	-0.07
1080.348	-7.27
1080.769	-5.07
1081.189	-4.37
1081.61	-3.17
1082.03	-9.37
1082.451	-9.47
1082.871	-7.07
1083.291	-9.07
1083.711	-4.37
1084.132	-11.37
1084.552	-1.17
1084.972	-1.87
1085.392	-6.17
1085.813	-11.57
1086.233	-3.47
1086.653	-5.87
1087.073	1.03
1087.493	-8.47
1087.913	-6.57
1088.333	-3.87
1088.753	-4.07
1089.173	3.83
1089.593	-3.17
1090.013	-1.07
1090.433	-5.57
1090.852	-2.67
1091.272	-3.97
1091.692	-1.87
1092.112	-2.17
1092.531	-7.77
1092.951	-12.67
1093.371	-1.97
1093.79	-1.27
1094.21	0.33
1094.63	-8.17
1095.049	0.33
1095.469	0.63
1095.888	0.83
1096.308	-0.47
1096.727	0.23
1097.146	-3.87
1097.566	-5.17
1097.985	-1.87
1098.405	0.33
1098.824	-3.47
1099.243	-9.67
1099.662	-6.77
1100.082	-11.77
1100.501	-0.87
1100.92	-4.97
1101.339	-7.97
1101.758	-0.77
