Data from 20171114-ORNL-Ar_H_NY_Subt18_08-03-50-324.txt Node
Date: Tue Nov 14 08:03:50 EST 2017
User: Ender
Spectrometer: HR+D1039
Trigger mode: 0
Integration Time (sec): 2.730000E-2
Scans to average: 10
Electric dark correction enabled: true
Nonlinearity correction enabled: false
Boxcar width: 0
XAxis mode: Wavelengths
Number of Pixels in Spectrum: 2048
>>>>>Begin Spectral Data<<<<<
187.836	-4.84
188.309	-4.84
188.782	-4.84
189.255	3.66
189.728	-5.04
190.201	4.86
190.674	3.56
191.147	4.66
191.619	-10.94
192.092	1.56
192.565	4.16
193.038	2.26
193.511	1.16
193.984	-1.64
194.456	-4.74
194.929	-0.94
195.402	-0.74
195.874	2.96
196.347	-0.84
196.82	-7.54
197.292	3.66
197.765	-0.04
198.237	1.76
198.71	5.06
199.182	3.46
199.655	0.06
200.127	2.46
200.6	-4.04
201.072	-8.24
201.544	1.06
202.017	-4.64
202.489	5.26
202.961	-4.44
203.433	-0.64
203.906	-3.94
204.378	-10.04
204.85	-1.64
205.322	-11.24
205.794	-1.34
206.266	-0.64
206.739	-10.84
207.211	-5.34
207.683	-4.44
208.155	-9.64
208.627	-9.14
209.099	-2.34
209.57	-7.34
210.042	-7.74
210.514	-1.84
210.986	-2.54
211.458	-6.84
211.93	-0.14
212.402	-0.24
212.873	-4.94
213.345	-10.24
213.817	-9.64
214.288	-2.34
214.76	-7.24
215.232	-2.64
215.703	-10.44
216.175	-1.24
216.646	-1.64
217.118	-6.14
217.589	-5.54
218.061	-5.94
218.532	-10.04
219.004	-5.24
219.475	-6.94
219.946	-3.64
220.418	-3.24
220.889	-2.74
221.36	-0.74
221.832	-4.04
222.303	-6.24
222.774	1.96
223.245	-7.54
223.717	-6.84
224.188	1.56
224.659	-4.04
225.13	-5.24
225.601	-6.24
226.072	0.46
226.543	3.76
227.014	-3.24
227.485	-4.84
227.956	-7.64
228.427	-9.44
228.898	-0.54
229.369	2.96
229.839	-4.94
230.31	-12.24
230.781	-7.94
231.252	-8.24
231.722	-2.74
232.193	-6.34
232.664	-4.44
233.135	-0.04
233.605	3.46
234.076	-7.24
234.546	-5.24
235.017	6.06
235.487	-7.74
235.958	-10.54
236.428	-1.24
236.899	0.56
237.369	-2.14
237.84	-7.74
238.31	0.46
238.78	-1.04
239.251	-7.64
239.721	-2.34
240.191	-6.44
240.662	-2.74
241.132	-4.34
241.602	-6.34
242.072	0.66
242.542	0.46
243.013	-5.04
243.483	2.46
243.953	-3.34
244.423	-7.24
244.893	-7.74
245.363	-3.84
245.833	3.86
246.303	-1.54
246.773	-0.54
247.243	-3.04
247.712	-0.64
248.182	3.16
248.652	0.96
249.122	-9.14
249.592	-1.44
250.061	1.16
250.531	7.96
251.001	-2.54
251.471	2.46
251.94	11.96
252.41	1.66
252.879	-8.84
253.349	5.16
253.818	8.06
254.288	-1.04
254.757	2.96
255.227	-4.54
255.696	-1.64
256.166	5.46
256.635	0.36
257.105	7.06
257.574	-3.14
258.043	2.66
258.513	-3.74
258.982	-0.94
259.451	-10.04
259.92	3.06
260.389	-1.54
260.859	4.96
261.328	0.16
261.797	3.06
262.266	-4.64
262.735	5.66
263.204	1.26
263.673	0.66
264.142	4.26
264.611	-1.74
265.08	-6.14
265.549	-4.64
266.018	1.86
266.487	-2.04
266.955	-1.94
267.424	-2.94
267.893	8.46
268.362	-5.34
268.83	1.16
269.299	9.56
269.768	0.96
270.236	0.66
270.705	-7.64
271.174	-3.34
271.642	-0.14
272.111	2.46
272.579	-4.74
273.048	-2.74
273.516	-5.94
273.985	-3.64
274.453	1.56
274.922	12.06
275.39	-1.54
275.858	-3.04
276.327	4.36
276.795	5.26
277.263	-0.94
277.731	1.96
278.2	4.46
278.668	-2.94
279.136	5.66
279.604	-1.34
280.072	8.06
280.54	9.26
281.008	4.16
281.477	11.76
281.945	9.06
282.413	9.66
282.881	7.76
283.348	2.46
283.816	8.06
284.284	2.36
284.752	12.76
285.22	10.66
285.688	6.26
286.156	4.36
286.623	8.36
287.091	6.56
287.559	9.26
288.026	7.06
288.494	7.66
288.962	-1.34
289.429	7.16
289.897	12.36
290.364	4.66
290.832	12.06
291.3	10.26
291.767	6.06
292.234	13.16
292.702	2.96
293.169	7.76
293.637	18.06
294.104	16.46
294.571	-2.04
295.039	1.76
295.506	2.06
295.973	7.86
296.44	8.06
296.908	10.86
297.375	11.46
297.842	14.26
298.309	10.16
298.776	6.46
299.243	13.56
299.71	4.46
300.177	12.06
300.644	4.46
301.111	9.86
301.578	14.46
302.045	10.26
302.512	17.66
302.979	15.96
303.446	14.86
303.913	7.96
304.379	11.86
304.846	23.36
305.313	12.66
305.78	12.36
306.246	20.46
306.713	15.76
307.18	17.96
307.646	21.26
308.113	21.36
308.579	17.56
309.046	21.26
309.512	17.96
309.979	9.96
310.445	14.76
310.912	21.76
311.378	21.56
311.845	22.46
312.311	30.86
312.777	22.26
313.244	24.76
313.71	28.76
314.176	21.16
314.642	13.66
315.109	17.76
315.575	25.46
316.041	25.96
316.507	12.56
316.973	18.46
317.439	21.36
317.905	26.46
318.371	26.86
318.837	25.46
319.303	25.16
319.769	22.66
320.235	26.06
320.701	22.46
321.167	28.86
321.633	27.26
322.099	24.76
322.564	27.96
323.03	26.86
323.496	24.96
323.962	29.26
324.427	27.96
324.893	30.66
325.359	35.06
325.824	27.46
326.29	29.36
326.755	34.06
327.221	27.06
327.686	23.26
328.152	36.56
328.617	25.46
329.083	38.96
329.548	38.46
330.014	35.86
330.479	35.16
330.944	29.66
331.41	32.86
331.875	37.56
332.34	34.66
332.805	32.36
333.271	27.26
333.736	24.16
334.201	37.96
334.666	44.26
335.131	45.86
335.596	46.46
336.061	41.46
336.526	30.86
336.991	40.46
337.456	48.06
337.921	39.06
338.386	39.86
338.851	38.86
339.316	41.26
339.781	37.46
340.246	44.46
340.711	39.86
341.175	42.16
341.64	37.46
342.105	39.16
342.569	54.16
343.034	52.66
343.499	49.86
343.963	44.66
344.428	56.86
344.893	48.76
345.357	50.06
345.822	53.16
346.286	53.76
346.751	58.96
347.215	57.46
347.679	55.96
348.144	77.26
348.608	67.86
349.073	63.06
349.537	66.26
350.001	64.96
350.465	73.36
350.93	64.06
351.394	64.86
351.858	59.56
352.322	72.66
352.786	70.86
353.25	74.96
353.715	87.66
354.179	81.06
354.643	97.86
355.107	99.86
355.571	82.66
356.035	80.16
356.498	97.06
356.962	90.16
357.426	100.16
357.89	94.46
358.354	79.76
358.818	77.46
359.281	76.96
359.745	75.66
360.209	66.26
360.673	66.96
361.136	67.86
361.6	76.36
362.064	76.96
362.527	78.26
362.991	82.06
363.454	75.86
363.918	64.36
364.381	75.86
364.845	74.36
365.308	76.06
365.772	81.86
366.235	84.06
366.698	82.06
367.162	75.06
367.625	77.86
368.088	87.66
368.552	81.46
369.015	81.66
369.478	88.16
369.941	90.66
370.404	87.26
370.867	97.76
371.331	96.96
371.794	94.26
372.257	91.06
372.72	96.26
373.183	99.26
373.646	94.26
374.109	95.66
374.572	98.46
375.035	101.66
375.497	98.36
375.96	101.46
376.423	91.76
376.886	100.66
377.349	102.46
377.811	100.66
378.274	101.96
378.737	99.86
379.199	104.16
379.662	103.86
380.125	107.96
380.587	101.66
381.05	100.06
381.512	109.96
381.975	116.36
382.437	118.66
382.9	115.06
383.362	124.16
383.825	121.96
384.287	121.46
384.75	117.46
385.212	124.86
385.674	121.56
386.136	125.46
386.599	118.16
387.061	124.26
387.523	118.96
387.985	126.26
388.447	133.66
388.91	122.26
389.372	127.66
389.834	131.46
390.296	129.26
390.758	130.76
391.22	131.56
391.682	139.46
392.144	142.86
392.606	138.26
393.068	139.26
393.529	155.96
393.991	144.06
394.453	131.56
394.915	123.26
395.377	132.16
395.838	134.56
396.3	129.46
396.762	135.26
397.224	134.26
397.685	133.06
398.147	136.76
398.608	131.06
399.07	129.26
399.531	136.86
399.993	144.66
400.454	152.96
400.916	143.86
401.377	143.16
401.839	151.36
402.3	148.26
402.762	168.96
403.223	184.76
403.684	164.96
404.145	160.76
404.607	162.86
405.068	166.36
405.529	157.56
405.99	176.16
406.451	169.96
406.913	171.66
407.374	165.66
407.835	165.96
408.296	166.36
408.757	166.76
409.218	182.76
409.679	175.16
410.14	177.36
410.601	175.96
411.062	176.76
411.522	177.06
411.983	175.06
412.444	170.66
412.905	181.86
413.366	183.26
413.826	201.56
414.287	225.76
414.748	271.46
415.208	250.16
415.669	222.66
416.13	212.36
416.59	211.86
417.051	223.16
417.511	232.36
417.972	250.56
418.432	259.16
418.893	303.86
419.353	262.36
419.814	205.76
420.274	195.26
420.734	186.16
421.195	200.36
421.655	195.66
422.115	198.46
422.576	197.16
423.036	200.96
423.496	212.86
423.956	219.56
424.416	237.26
424.876	276.16
425.336	263.46
425.797	257.96
426.257	262.56
426.717	232.26
427.177	229.66
427.637	222.96
428.097	237.66
428.556	239.16
429.016	263.36
429.476	260.26
429.936	259.96
430.396	271.66
430.856	279.46
431.315	299.36
431.775	336.26
432.235	368.36
432.694	339.66
433.154	343.66
433.614	361.86
434.073	322.06
434.533	275.76
434.993	254.06
435.452	268.86
435.912	275.16
436.371	268.16
436.83	273.36
437.29	253.96
437.749	233.06
438.209	236.26
438.668	259.16
439.127	264.36
439.587	245.06
440.046	231.76
440.505	246.26
440.964	262.36
441.424	296.66
441.883	284.26
442.342	250.96
442.801	229.06
443.26	228.76
443.719	224.86
444.178	224.86
444.637	208.26
445.096	226.26
445.555	230.46
446.014	228.26
446.473	231.06
446.932	231.76
447.391	233.36
447.849	229.96
448.308	225.56
448.767	223.16
449.226	233.56
449.685	237.96
450.143	248.36
450.602	242.16
451.061	227.86
451.519	232.96
451.978	233.46
452.436	238.66
452.895	229.66
453.353	245.46
453.812	236.26
454.27	237.56
454.729	239.76
455.187	235.46
455.646	235.86
456.104	240.36
456.562	251.96
457.021	262.46
457.479	251.86
457.937	264.86
458.395	255.46
458.854	247.16
459.312	244.66
459.77	258.16
460.228	249.76
460.686	246.76
461.144	251.26
461.602	246.86
462.06	248.36
462.518	255.46
462.976	250.16
463.434	250.26
463.892	258.76
464.35	264.76
464.808	271.46
465.266	268.46
465.724	278.06
466.181	272.16
466.639	269.86
467.097	280.16
467.555	296.96
468.012	299.16
468.47	299.96
468.928	316.46
469.385	324.96
469.843	331.06
470.3	335.16
470.758	343.46
471.215	358.76
471.673	381.76
472.13	377.56
472.588	391.36
473.045	358.66
473.503	371.36
473.96	378.16
474.417	389.96
474.875	415.76
475.332	437.26
475.789	427.56
476.246	441.26
476.704	464.66
477.161	473.36
477.618	486.86
478.075	528.96
478.532	565.66
478.989	625.26
479.446	708.76
479.903	700.36
480.36	729.56
480.817	767.86
481.274	861.46
481.731	935.36
482.188	1011.66
482.645	1121.96
483.102	1211.76
483.558	1326.06
484.015	1372.06
484.472	1340.86
484.929	1304.16
485.385	1273.86
485.842	1240.46
486.299	1204.26
486.755	1140.86
487.212	991.36
487.668	858.96
488.125	792.26
488.582	731.36
489.038	701.26
489.494	674.06
489.951	641.06
490.407	626.86
490.864	604.96
491.32	605.36
491.776	599.76
492.233	606.56
492.689	577.16
493.145	572.66
493.602	557.26
494.058	575.66
494.514	568.76
494.97	588.96
495.426	595.16
495.882	570.16
496.338	569.86
496.794	569.76
497.251	575.56
497.707	580.36
498.163	587.06
498.618	581.36
499.074	586.96
499.53	611.06
499.986	599.26
500.442	586.76
500.898	573.76
501.354	569.36
501.809	575.66
502.265	577.36
502.721	583.76
503.177	580.76
503.632	596.26
504.088	591.16
504.543	606.06
504.999	628.46
505.455	599.76
505.91	589.16
506.366	583.06
506.821	586.66
507.277	584.96
507.732	580.46
508.187	586.96
508.643	587.26
509.098	592.76
509.553	605.56
510.009	613.56
510.464	618.96
510.919	627.76
511.375	633.26
511.83	650.26
512.285	654.86
512.74	688.26
513.195	697.96
513.65	686.96
514.105	688.66
514.56	696.56
515.015	710.96
515.47	714.76
515.925	709.76
516.38	709.36
516.835	718.46
517.29	708.16
517.745	702.66
518.2	694.46
518.655	690.36
519.109	674.76
519.564	669.26
520.019	655.86
520.474	650.26
520.928	661.06
521.383	649.36
521.838	636.96
522.292	637.16
522.747	638.36
523.201	630.46
523.656	635.86
524.11	617.96
524.565	623.26
525.019	619.06
525.474	617.56
525.928	631.66
526.382	620.96
526.837	617.56
527.291	620.96
527.745	619.26
528.2	623.76
528.654	617.76
529.108	611.06
529.562	615.56
530.016	613.86
530.47	602.66
530.925	609.66
531.379	606.56
531.833	615.36
532.287	606.66
532.741	599.46
533.195	610.86
533.649	613.46
534.103	618.16
534.556	606.06
535.01	610.96
535.464	599.36
535.918	620.36
536.372	619.26
536.826	611.96
537.279	613.46
537.733	617.76
538.187	621.86
538.64	616.16
539.094	624.96
539.548	627.86
540.001	624.86
540.455	620.56
540.908	634.46
541.362	632.26
541.815	640.16
542.269	658.06
542.722	657.76
543.175	655.36
543.629	659.56
544.082	678.26
544.536	678.76
544.989	676.56
545.442	690.86
545.895	679.76
546.349	683.16
546.802	680.26
547.255	686.66
547.708	689.96
548.161	692.36
548.614	706.76
549.067	709.36
549.52	689.56
549.973	687.26
550.426	691.06
550.879	677.56
551.332	678.56
551.785	681.26
552.238	685.16
552.691	695.56
553.144	701.76
553.596	717.06
554.049	722.66
554.502	745.46
554.955	752.06
555.407	756.66
555.86	743.46
556.313	744.06
556.765	734.46
557.218	728.36
557.67	728.56
558.123	721.96
558.576	729.56
559.028	729.26
559.48	732.86
559.933	730.66
560.385	702.46
560.838	682.86
561.29	652.76
561.742	659.26
562.195	643.26
562.647	638.76
563.099	645.06
563.551	645.86
564.004	648.66
564.456	635.46
564.908	634.56
565.36	613.26
565.812	605.26
566.264	589.16
566.716	585.76
567.168	577.26
567.62	578.76
568.072	571.86
568.524	572.06
568.976	557.66
569.428	559.86
569.88	553.46
570.332	556.06
570.784	551.06
571.235	555.36
571.687	561.86
572.139	571.66
572.59	581.36
573.042	580.26
573.494	580.76
573.945	562.86
574.397	546.96
574.849	563.26
575.3	556.86
575.752	548.16
576.203	536.86
576.655	547.46
577.106	536.66
577.557	537.06
578.009	538.26
578.46	538.56
578.912	521.56
579.363	526.36
579.814	537.56
580.265	524.16
580.717	540.16
581.168	526.46
581.619	538.56
582.07	545.66
582.521	534.66
582.972	528.76
583.423	538.26
583.875	540.76
584.326	540.26
584.777	556.96
585.227	572.36
585.678	574.86
586.129	594.26
586.58	613.96
587.031	641.76
587.482	670.06
587.933	696.66
588.384	673.86
588.834	633.06
589.285	605.06
589.736	606.96
590.186	604.86
590.637	593.26
591.088	584.76
591.538	578.16
591.989	567.86
592.439	576.36
592.89	549.56
593.34	546.96
593.791	539.46
594.241	537.36
594.692	540.96
595.142	539.46
595.593	539.36
596.043	535.76
596.493	544.56
596.943	538.96
597.394	549.26
597.844	547.36
598.294	560.96
598.744	581.36
599.195	601.76
599.645	635.36
600.095	664.86
600.545	701.66
600.995	732.86
601.445	785.06
601.895	826.26
602.345	871.46
602.795	851.96
603.245	818.66
603.695	786.66
604.145	744.76
604.594	706.66
605.044	660.66
605.494	615.96
605.944	569.66
606.393	564.36
606.843	546.36
607.293	551.86
607.743	549.16
608.192	553.66
608.642	569.16
609.091	564.86
609.541	570.26
609.99	570.96
610.44	565.46
610.889	542.86
611.339	525.56
611.788	518.16
612.238	510.26
612.687	531.16
613.136	526.36
613.586	538.56
614.035	525.36
614.484	536.26
614.933	528.96
615.383	532.66
615.832	523.76
616.281	520.56
616.73	496.16
617.179	488.66
617.628	472.46
618.077	475.26
618.526	465.26
618.975	470.56
619.424	463.16
619.873	462.26
620.322	463.56
620.771	445.16
621.22	444.76
621.669	443.06
622.118	432.36
622.567	427.46
623.015	419.56
623.464	420.76
623.913	413.86
624.361	414.96
624.81	405.56
625.259	408.26
625.707	409.36
626.156	401.36
626.604	418.96
627.053	413.96
627.501	415.16
627.95	429.46
628.398	430.76
628.847	420.56
629.295	419.66
629.744	436.16
630.192	421.86
630.64	416.96
631.089	406.36
631.537	394.36
631.985	389.46
632.433	401.56
632.881	377.16
633.33	385.26
633.778	380.96
634.226	376.66
634.674	394.06
635.122	390.56
635.57	400.06
636.018	406.36
636.466	412.06
636.914	406.96
637.362	420.26
637.81	415.66
638.258	430.26
638.705	414.16
639.153	446.86
639.601	453.16
640.049	464.16
640.497	488.06
640.944	507.86
641.392	477.76
641.84	442.86
642.287	424.56
642.735	403.66
643.182	409.66
643.63	405.46
644.078	402.66
644.525	413.16
644.973	421.86
645.42	432.06
645.867	441.66
646.315	450.66
646.762	469.76
647.21	484.16
647.657	506.66
648.104	531.16
648.551	536.86
648.999	573.36
649.446	616.66
649.893	679.26
650.34	771.76
650.787	913.36
651.234	1127.86
651.682	1419.26
652.129	1907.96
652.576	2705.86
653.023	3941.36
653.47	5459.36
653.917	6897.26
654.363	8105.26
654.81	9156.96
655.257	8718.16
655.704	5775.56
656.151	3432.66
656.598	2239.16
657.044	1607.26
657.491	1251.06
657.938	992.46
658.385	843.36
658.831	744.36
659.278	664.26
659.724	588.86
660.171	544.86
660.618	489.36
661.064	469.76
661.511	448.96
661.957	438.36
662.404	439.06
662.85	435.36
663.296	424.16
663.743	388.66
664.189	378.86
664.635	372.66
665.082	378.26
665.528	369.36
665.974	362.16
666.42	350.86
666.867	352.76
667.313	331.26
667.759	322.86
668.205	323.86
668.651	317.86
669.097	314.96
669.543	311.86
669.989	317.66
670.435	319.06
670.881	320.46
671.327	326.36
671.773	331.16
672.219	347.16
672.665	384.56
673.11	409.66
673.556	450.96
674.002	478.16
674.448	468.56
674.893	398.36
675.339	335.16
675.785	311.06
676.23	304.56
676.676	284.06
677.122	269.66
677.567	264.26
678.013	259.36
678.458	256.36
678.904	247.16
679.349	244.96
679.794	260.16
680.24	248.46
680.685	250.16
681.131	241.46
681.576	244.06
682.021	255.06
682.466	238.16
682.912	242.46
683.357	243.66
683.802	270.56
684.247	283.06
684.692	314.16
685.137	345.76
685.583	392.16
686.028	396.56
686.473	360.66
686.918	319.46
687.363	296.56
687.807	278.46
688.252	254.86
688.697	256.76
689.142	239.66
689.587	237.66
690.032	222.46
690.477	243.06
690.921	242.86
691.366	261.76
691.811	279.96
692.255	301.56
692.7	324.76
693.145	345.36
693.589	467.06
694.034	761.36
694.478	1072.46
694.923	1253.56
695.367	1671.76
695.812	878.16
696.256	364.56
696.701	264.66
697.145	247.56
697.59	235.06
698.034	223.86
698.478	228.36
698.922	224.66
699.367	225.96
699.811	242.26
700.255	247.86
700.699	265.46
701.143	290.76
701.588	336.36
702.032	371.16
702.476	366.66
702.92	354.06
703.364	336.26
703.808	433.26
704.252	699.66
704.696	1010.76
705.14	1213.96
705.584	1570.86
706.027	786.06
706.471	367.96
706.915	284.26
707.359	243.16
707.803	227.66
708.246	224.46
708.69	218.16
709.134	220.06
709.577	215.56
710.021	224.96
710.465	213.86
710.908	213.16
711.352	201.26
711.795	218.26
712.239	244.16
712.682	265.36
713.126	282.46
713.569	327.86
714.012	248.86
714.456	214.96
714.899	202.46
715.342	188.66
715.786	188.26
716.229	180.36
716.672	181.16
717.115	177.06
717.558	172.16
718.002	176.76
718.445	181.26
718.888	199.16
719.331	202.16
719.774	215.86
720.217	212.06
720.66	199.36
721.103	181.36
721.546	178.76
721.989	174.16
722.432	159.46
722.874	166.06
723.317	153.36
723.76	159.66
724.203	182.66
724.645	213.76
725.088	301.26
725.531	390.16
725.974	463.86
726.416	392.36
726.859	217.46
727.301	171.06
727.744	168.86
728.187	160.66
728.629	168.56
729.071	172.26
729.514	180.46
729.956	180.16
730.399	196.56
730.841	196.46
731.283	191.36
731.726	189.76
732.168	183.06
732.61	183.26
733.053	192.36
733.495	213.76
733.937	246.16
734.379	275.16
734.821	304.76
735.263	372.76
735.705	553.16
736.148	1057.56
736.59	1791.56
737.032	2242.26
737.474	1841.06
737.916	589.86
738.357	308.06
738.799	232.76
739.241	212.56
739.683	200.46
740.125	202.46
740.567	212.46
741.008	229.96
741.45	231.26
741.892	223.36
742.334	245.96
742.775	266.56
743.217	259.46
743.658	195.86
744.1	182.46
744.542	192.86
744.983	227.66
745.425	266.76
745.866	258.26
746.307	196.56
746.749	196.16
747.19	228.86
747.632	306.66
748.073	580.66
748.514	1259.16
748.956	2029.96
749.397	2549.06
749.838	2123.96
750.279	2199.06
750.72	1107.36
751.162	397.36
751.603	227.06
752.044	176.56
752.485	151.26
752.926	148.76
753.367	146.56
753.808	127.26
754.249	133.06
754.69	129.96
755.131	127.76
755.572	126.66
756.013	123.56
756.453	129.66
756.894	125.86
757.335	130.86
757.776	133.66
758.216	133.86
758.657	132.06
759.098	135.46
759.538	156.46
759.979	185.16
760.42	250.76
760.86	473.76
761.301	1226.06
761.741	3082.06
762.182	4900.76
762.622	3464.86
763.063	967.56
763.503	378.76
763.943	227.96
764.384	194.46
764.824	187.46
765.264	173.06
765.705	149.56
766.145	129.06
766.585	126.76
767.025	116.96
767.465	113.76
767.906	128.96
768.346	147.66
768.786	146.66
769.226	145.76
769.666	209.96
770.106	406.16
770.546	1030.16
770.986	1928.46
771.426	1779.96
771.866	573.06
772.306	230.46
772.745	144.26
773.185	113.96
773.625	106.66
774.065	104.66
774.505	110.86
774.944	145.36
775.384	260.86
775.824	461.56
776.263	463.76
776.703	207.36
777.142	109.76
777.582	89.76
778.021	86.16
778.461	92.26
778.9	92.56
779.34	89.46
779.779	75.66
780.219	68.36
780.658	73.76
781.097	69.56
781.537	79.66
781.976	68.66
782.415	67.36
782.855	64.46
783.294	65.26
783.733	69.16
784.172	70.86
784.611	60.26
785.05	75.16
785.489	80.26
785.928	80.46
786.367	82.26
786.806	74.86
787.245	92.36
787.684	90.36
788.123	102.86
788.562	94.46
789.001	93.16
789.44	88.16
789.879	83.06
790.317	77.36
790.756	92.46
791.195	82.66
791.634	96.76
792.072	137.06
792.511	235.66
792.95	665.96
793.388	1521.86
793.827	1458.06
794.265	481.36
794.704	198.66
795.142	127.66
795.581	111.26
796.019	101.26
796.458	83.26
796.896	79.86
797.334	91.76
797.773	108.36
798.211	150.06
798.649	286.16
799.087	705.76
799.526	1122.76
799.964	1430.66
800.402	1513.76
800.84	548.86
801.278	217.56
801.716	134.46
802.154	106.96
802.592	110.06
803.03	95.96
803.468	88.56
803.906	91.56
804.344	100.06
804.782	99.36
805.22	94.36
805.658	86.56
806.096	109.76
806.533	113.06
806.971	122.46
807.409	155.06
807.847	214.36
808.284	444.76
808.722	1299.36
809.16	2444.96
809.597	2236.26
810.035	3992.76
810.472	4557.86
810.91	1613.76
811.347	593.86
811.785	299.96
812.222	187.76
812.66	142.86
813.097	116.06
813.535	93.16
813.972	90.46
814.409	87.66
814.846	74.16
815.284	73.06
815.721	66.76
816.158	70.46
816.595	75.06
817.032	114.46
817.47	139.56
817.907	105.56
818.344	67.66
818.781	70.46
819.218	68.26
819.655	90.06
820.092	144.26
820.529	168.66
820.966	129.46
821.403	100.76
821.839	72.56
822.276	68.96
822.713	88.26
823.15	104.76
823.587	80.86
824.023	94.86
824.46	200.26
824.897	620.16
825.333	1012.56
825.77	432.16
826.206	159.06
826.643	95.16
827.08	74.06
827.516	57.36
827.953	56.66
828.389	56.66
828.825	46.96
829.262	50.46
829.698	42.56
830.135	44.66
830.571	43.56
831.007	46.76
831.443	44.56
831.88	47.36
832.316	46.56
832.752	45.06
833.188	48.26
833.624	43.36
834.06	42.16
834.497	41.86
834.933	44.76
835.369	45.96
835.805	45.06
836.241	51.66
836.677	50.56
837.112	55.96
837.548	66.36
837.984	85.26
838.42	135.26
838.856	342.56
839.292	1072.76
839.727	1741.46
840.163	795.96
840.599	643.06
841.034	1479.26
841.47	1650.66
841.906	591.56
842.341	239.36
842.777	140.06
843.212	154.46
843.648	143.96
844.083	81.16
844.519	56.66
844.954	51.56
845.39	33.56
845.825	39.06
846.261	39.76
846.696	32.36
847.131	36.96
847.566	41.86
848.002	33.96
848.437	29.96
848.872	45.06
849.307	42.76
849.742	59.86
850.177	122.06
850.613	383.16
851.048	651.66
851.483	280.16
851.918	109.46
852.353	57.16
852.788	33.06
853.223	36.76
853.657	37.46
854.092	36.86
854.527	23.66
854.962	29.16
855.397	25.26
855.832	34.76
856.266	26.26
856.701	25.66
857.136	24.86
857.57	32.66
858.005	31.96
858.44	45.56
858.874	32.96
859.309	36.96
859.743	26.46
860.178	33.56
860.612	32.76
861.047	40.66
861.481	48.16
861.915	54.16
862.35	29.66
862.784	25.26
863.218	28.66
863.653	16.16
864.087	30.56
864.521	35.66
864.955	44.06
865.39	105.46
865.824	126.86
866.258	84.06
866.692	124.46
867.126	152.06
867.56	89.06
867.994	38.66
868.428	22.66
868.862	34.06
869.296	45.36
869.73	47.46
870.164	42.36
870.598	35.06
871.031	24.76
871.465	18.26
871.899	23.26
872.333	16.56
872.766	18.46
873.2	16.26
873.634	21.66
874.067	17.16
874.501	15.66
874.935	20.86
875.368	17.56
875.802	13.46
876.235	19.26
876.669	15.56
877.102	13.56
877.535	21.16
877.969	15.06
878.402	13.26
878.836	7.46
879.269	18.06
879.702	15.26
880.135	12.96
880.569	14.76
881.002	14.46
881.435	13.16
881.868	9.36
882.301	18.36
882.734	3.66
883.167	17.36
883.601	14.06
884.034	15.36
884.467	8.06
884.899	9.36
885.332	15.56
885.765	5.46
886.198	14.06
886.631	3.36
887.064	9.16
887.497	8.86
887.929	18.56
888.362	10.76
888.795	7.96
889.228	11.06
889.66	17.26
890.093	8.16
890.526	12.16
890.958	10.36
891.391	7.46
891.823	10.46
892.256	9.26
892.688	8.06
893.121	8.26
893.553	9.86
893.985	18.06
894.418	12.76
894.85	4.86
895.282	3.66
895.715	12.16
896.147	11.16
896.579	12.46
897.011	9.46
897.444	9.06
897.876	5.46
898.308	9.06
898.74	14.96
899.172	8.26
899.604	15.76
900.036	14.26
900.468	6.56
900.9	8.76
901.332	14.06
901.764	6.06
902.196	12.66
902.628	9.96
903.06	6.56
903.491	22.46
903.923	13.16
904.355	13.36
904.787	15.86
905.218	12.36
905.65	13.26
906.082	9.26
906.513	11.86
906.945	6.76
907.376	8.36
907.808	14.16
908.239	10.66
908.671	8.76
909.102	13.66
909.534	16.36
909.965	36.66
910.397	60.06
910.828	232.36
911.259	367.86
911.691	164.16
912.122	78.86
912.553	36.76
912.984	21.96
913.415	17.16
913.847	20.36
914.278	6.46
914.709	10.06
915.14	12.66
915.571	7.86
916.002	7.76
916.433	11.26
916.864	10.56
917.295	5.26
917.726	14.06
918.157	7.16
918.587	18.06
919.018	16.76
919.449	15.16
919.88	22.56
920.311	23.86
920.741	36.66
921.172	112.76
921.603	110.46
922.033	48.36
922.464	31.86
922.895	20.16
923.325	17.06
923.756	14.66
924.186	8.66
924.617	10.96
925.047	14.96
925.478	19.16
925.908	19.26
926.338	10.96
926.769	4.96
927.199	11.56
927.629	1.56
928.06	11.66
928.49	11.76
928.92	6.56
929.35	2.26
929.78	2.16
930.21	4.76
930.641	9.96
931.071	5.96
931.501	-3.84
931.931	4.06
932.361	0.46
932.791	-5.14
933.221	4.26
933.651	-0.04
934.08	14.66
934.51	22.96
934.94	5.36
935.37	4.36
935.8	2.56
936.229	0.76
936.659	7.06
937.089	2.56
937.519	15.86
937.948	19.46
938.378	14.46
938.807	5.76
939.237	5.36
939.666	3.66
940.096	-9.44
940.525	0.26
940.955	-6.24
941.384	3.26
941.814	-6.14
942.243	-5.74
942.672	-1.54
943.102	-3.74
943.531	-4.34
943.96	3.56
944.39	-1.14
944.819	3.26
945.248	2.46
945.677	1.36
946.106	2.76
946.535	6.86
946.964	-0.24
947.393	4.16
947.822	-3.84
948.251	-11.24
948.68	1.06
949.109	4.26
949.538	4.86
949.967	-4.64
950.396	-1.74
950.825	0.96
951.254	-1.54
951.682	-4.74
952.111	2.86
952.54	3.46
952.969	-4.14
953.397	-6.14
953.826	0.86
954.254	-7.64
954.683	-6.44
955.112	-8.34
955.54	-5.84
955.969	-0.54
956.397	-2.14
956.826	-4.64
957.254	3.36
957.682	0.06
958.111	0.96
958.539	0.36
958.967	4.16
959.396	-4.94
959.824	-2.24
960.252	0.76
960.68	-9.04
961.109	-5.74
961.537	-6.54
961.965	0.46
962.393	3.46
962.821	-3.74
963.249	-6.14
963.677	4.46
964.105	2.96
964.533	27.36
964.961	28.96
965.389	11.86
965.817	3.36
966.245	-2.64
966.672	-9.74
967.1	-11.14
967.528	-2.44
967.956	-7.34
968.383	-0.24
968.811	-8.44
969.239	-5.04
969.666	-6.64
970.094	0.86
970.522	2.86
970.949	-6.64
971.377	-8.64
971.804	-5.24
972.232	0.56
972.659	-5.34
973.087	-4.64
973.514	-4.54
973.941	-6.94
974.369	5.66
974.796	-0.54
975.223	4.16
975.651	-4.14
976.078	4.36
976.505	-1.94
976.932	-3.04
977.359	5.36
977.786	10.96
978.214	2.96
978.641	-0.14
979.068	-8.44
979.495	-10.54
979.922	-4.04
980.349	-5.44
980.776	-2.34
981.202	-3.14
981.629	3.96
982.056	-0.74
982.483	1.06
982.91	3.86
983.337	-10.44
983.763	4.46
984.19	-2.24
984.617	-4.84
985.043	-4.14
985.47	-2.74
985.897	-0.84
986.323	-6.54
986.75	-0.24
987.176	-1.04
987.603	0.26
988.029	-4.24
988.456	-0.24
988.882	4.16
989.308	-5.74
989.735	-3.74
990.161	2.76
990.587	-4.14
991.014	0.96
991.44	2.26
991.866	-2.24
992.292	-4.94
992.719	-7.24
993.145	5.16
993.571	-9.24
993.997	-3.34
994.423	-2.54
994.849	-7.94
995.275	3.46
995.701	-2.74
996.127	-5.14
996.553	-1.54
996.979	-4.24
997.405	-4.24
997.83	-6.34
998.256	-7.74
998.682	-1.94
999.108	-8.74
999.534	-2.44
999.959	-1.54
1000.385	-3.04
1000.811	1.86
1001.236	-11.24
1001.662	-5.64
1002.087	-12.54
1002.513	-0.84
1002.938	-2.84
1003.364	0.96
1003.789	5.16
1004.215	5.46
1004.64	-4.54
1005.066	3.56
1005.491	0.26
1005.916	-1.24
1006.342	-6.54
1006.767	-9.74
1007.192	4.36
1007.617	-7.64
1008.042	-13.44
1008.468	-11.14
1008.893	-7.74
1009.318	1.86
1009.743	-4.74
1010.168	0.56
1010.593	-3.54
1011.018	-10.04
1011.443	-7.14
1011.868	1.86
1012.293	-2.74
1012.718	-9.34
1013.143	1.76
1013.567	1.86
1013.992	-3.64
1014.417	-15.44
1014.842	3.26
1015.267	-1.04
1015.691	-0.84
1016.116	3.76
1016.541	-5.74
1016.965	5.96
1017.39	-2.64
1017.814	-1.44
1018.239	-9.74
1018.663	-9.44
1019.088	-8.44
1019.512	-8.44
1019.937	-6.24
1020.361	-10.24
1020.785	-10.74
1021.21	-2.34
1021.634	-1.64
1022.058	2.56
1022.483	3.36
1022.907	-2.94
1023.331	-4.04
1023.755	-7.14
1024.179	-2.74
1024.604	-9.34
1025.028	-3.54
1025.452	-5.94
1025.876	-3.24
1026.3	3.56
1026.724	-5.04
1027.148	-4.04
1027.572	-14.84
1027.996	-5.44
1028.42	-1.04
1028.843	1.46
1029.267	-8.54
1029.691	-0.74
1030.115	-12.84
1030.539	-12.14
1030.962	-6.64
1031.386	-8.44
1031.81	-2.84
1032.233	3.46
1032.657	-2.84
1033.08	0.16
1033.504	-3.34
1033.927	-2.84
1034.351	-1.34
1034.774	-7.84
1035.198	-8.74
1035.621	-4.84
1036.045	-4.74
1036.468	0.26
1036.891	-15.64
1037.315	-13.04
1037.738	-10.34
1038.161	3.86
1038.584	-4.54
1039.008	-0.34
1039.431	-4.34
1039.854	-1.24
1040.277	-5.24
1040.7	-9.34
1041.123	-2.74
1041.546	-5.24
1041.969	-6.54
1042.392	-5.04
1042.815	-7.04
1043.238	-2.34
1043.661	0.76
1044.084	-9.74
1044.507	-1.54
1044.93	-7.24
1045.352	-3.84
1045.775	-4.74
1046.198	-0.74
1046.621	-6.84
1047.043	-2.54
1047.466	1.46
1047.889	-4.64
1048.311	-7.84
1048.734	-0.74
1049.156	-9.44
1049.579	0.16
1050.001	-4.74
1050.424	-3.44
1050.846	-0.24
1051.269	-3.04
1051.691	-4.54
1052.113	1.16
1052.536	-4.24
1052.958	1.26
1053.38	-6.44
1053.802	-10.64
1054.225	0.46
1054.647	-10.74
1055.069	-7.14
1055.491	1.06
1055.913	-10.54
1056.335	-1.84
1056.757	-0.54
1057.179	-8.94
1057.601	-2.44
1058.023	-1.74
1058.445	-1.94
1058.867	-6.54
1059.289	2.26
1059.711	-6.24
1060.133	-6.24
1060.555	-1.04
1060.976	-9.84
1061.398	-3.04
1061.82	-8.94
1062.241	-5.94
1062.663	-2.84
1063.085	-1.44
1063.506	4.36
1063.928	-2.24
1064.35	-2.04
1064.771	-9.24
1065.193	-3.64
1065.614	-8.94
1066.035	-3.94
1066.457	0.56
1066.878	-1.74
1067.3	-5.94
1067.721	-6.14
1068.142	-3.64
1068.564	0.46
1068.985	-5.44
1069.406	-1.04
1069.827	-4.34
1070.248	-0.14
1070.67	-1.54
1071.091	-2.34
1071.512	-7.94
1071.933	-1.44
1072.354	-10.64
1072.775	-4.24
1073.196	-3.14
1073.617	-8.24
1074.038	-3.44
1074.459	-1.54
1074.88	-5.84
1075.3	1.16
1075.721	-9.24
1076.142	-6.74
1076.563	-6.44
1076.983	-10.24
1077.404	-5.14
1077.825	-6.44
1078.246	-0.54
1078.666	-2.64
1079.087	-5.94
1079.507	-6.44
1079.928	-3.94
1080.348	-0.74
1080.769	-5.94
1081.189	2.66
1081.61	-7.84
1082.03	-1.64
1082.451	-8.84
1082.871	-3.64
1083.291	-9.24
1083.711	-4.84
1084.132	-0.64
1084.552	-3.54
1084.972	-2.74
1085.392	-12.14
1085.813	-6.64
1086.233	-7.84
1086.653	-5.74
1087.073	-5.44
1087.493	-6.74
1087.913	-7.14
1088.333	-6.34
1088.753	-9.54
1089.173	1.16
1089.593	-6.54
1090.013	-1.74
1090.433	4.06
1090.852	0.76
1091.272	0.36
1091.692	-5.84
1092.112	-3.74
1092.531	-7.44
1092.951	-13.84
1093.371	0.66
1093.79	0.76
1094.21	-3.74
1094.63	-7.84
1095.049	-10.54
1095.469	-2.04
1095.888	-0.54
1096.308	4.36
1096.727	2.26
1097.146	-6.14
1097.566	-4.64
1097.985	-8.34
1098.405	-5.94
1098.824	-6.04
1099.243	-9.04
1099.662	-6.94
1100.082	4.76
1100.501	-3.14
1100.92	-1.84
1101.339	-1.94
1101.758	-7.94
