Data from 20171114-ORNL-Ar_H_NY_Subt18_08-03-39-951.txt Node
Date: Tue Nov 14 08:03:39 EST 2017
User: Ender
Spectrometer: HR+D1039
Trigger mode: 0
Integration Time (sec): 2.730000E-2
Scans to average: 10
Electric dark correction enabled: true
Nonlinearity correction enabled: false
Boxcar width: 0
XAxis mode: Wavelengths
Number of Pixels in Spectrum: 2048
>>>>>Begin Spectral Data<<<<<
187.836	-7.63
188.309	-7.63
188.782	-7.63
189.255	0.27
189.728	-4.43
190.201	7.37
190.674	1.47
191.147	-1.03
191.619	-6.43
192.092	1.77
192.565	4.27
193.038	-0.23
193.511	0.87
193.984	0.07
194.456	1.27
194.929	3.17
195.402	-2.93
195.874	2.17
196.347	0.97
196.82	-7.43
197.292	5.37
197.765	-6.23
198.237	-0.83
198.71	4.47
199.182	1.37
199.655	5.57
200.127	2.47
200.6	-1.83
201.072	-1.53
201.544	-1.73
202.017	3.17
202.489	3.27
202.961	0.77
203.433	-1.53
203.906	-7.93
204.378	0.37
204.85	-2.43
205.322	-4.53
205.794	-1.93
206.266	-12.43
206.739	-8.63
207.211	4.57
207.683	-3.73
208.155	-8.53
208.627	-7.83
209.099	-3.23
209.57	-8.73
210.042	-2.03
210.514	-5.53
210.986	-5.23
211.458	-6.13
211.93	0.17
212.402	5.97
212.873	-8.43
213.345	-12.33
213.817	-13.43
214.288	-5.93
214.76	-15.43
215.232	-7.53
215.703	-7.43
216.175	-2.53
216.646	-7.43
217.118	-8.23
217.589	-5.03
218.061	-3.33
218.532	-2.03
219.004	-0.83
219.475	-5.53
219.946	-7.23
220.418	-3.03
220.889	3.67
221.36	-1.63
221.832	-7.33
222.303	-5.53
222.774	2.77
223.245	-9.23
223.717	-4.43
224.188	-9.53
224.659	-4.43
225.13	-7.03
225.601	-5.03
226.072	4.47
226.543	-1.63
227.014	-0.83
227.485	-1.73
227.956	-1.83
228.427	-3.03
228.898	-4.23
229.369	0.67
229.839	-5.43
230.31	-7.83
230.781	6.77
231.252	-0.73
231.722	-2.13
232.193	-0.93
232.664	-0.43
233.135	-1.23
233.605	-1.43
234.076	-1.83
234.546	-1.63
235.017	-0.63
235.487	3.57
235.958	0.57
236.428	-5.53
236.899	5.67
237.369	-3.93
237.84	-7.53
238.31	-0.53
238.78	-3.33
239.251	-6.13
239.721	-0.53
240.191	-3.83
240.662	-1.23
241.132	-5.93
241.602	-4.63
242.072	-1.03
242.542	8.17
243.013	0.07
243.483	-0.03
243.953	2.87
244.423	1.97
244.893	-6.73
245.363	8.87
245.833	1.37
246.303	-6.33
246.773	4.17
247.243	-3.33
247.712	2.17
248.182	4.57
248.652	0.27
249.122	-8.33
249.592	-1.43
250.061	0.47
250.531	9.07
251.001	-1.53
251.471	2.17
251.94	2.87
252.41	4.97
252.879	-12.63
253.349	10.07
253.818	3.77
254.288	3.17
254.757	0.87
255.227	-2.03
255.696	1.57
256.166	1.97
256.635	2.87
257.105	7.57
257.574	-1.43
258.043	0.67
258.513	-1.93
258.982	-2.83
259.451	-1.73
259.92	-1.43
260.389	-4.83
260.859	8.37
261.328	1.97
261.797	-1.53
262.266	-5.53
262.735	6.37
263.204	6.07
263.673	-3.33
264.142	4.77
264.611	-1.83
265.08	-3.83
265.549	0.37
266.018	4.47
266.487	-0.53
266.955	-1.23
267.424	0.47
267.893	5.37
268.362	-0.43
268.83	3.07
269.299	8.17
269.768	4.17
270.236	5.17
270.705	0.57
271.174	-0.93
271.642	-0.13
272.111	-0.03
272.579	1.97
273.048	4.17
273.516	5.07
273.985	4.67
274.453	5.07
274.922	10.87
275.39	8.57
275.858	0.17
276.327	4.37
276.795	10.27
277.263	2.27
277.731	15.17
278.2	5.17
278.668	5.97
279.136	7.27
279.604	-0.73
280.072	4.27
280.54	9.57
281.008	11.47
281.477	12.87
281.945	5.17
282.413	5.47
282.881	10.37
283.348	-1.33
283.816	7.67
284.284	10.07
284.752	19.27
285.22	6.67
285.688	9.07
286.156	4.97
286.623	13.97
287.091	2.77
287.559	8.77
288.026	12.77
288.494	6.87
288.962	2.77
289.429	5.87
289.897	9.17
290.364	7.67
290.832	11.47
291.3	12.07
291.767	12.67
292.234	16.67
292.702	9.27
293.169	6.77
293.637	16.97
294.104	19.57
294.571	7.67
295.039	10.87
295.506	9.67
295.973	9.07
296.44	8.07
296.908	12.77
297.375	10.37
297.842	14.27
298.309	12.47
298.776	3.47
299.243	10.47
299.71	5.87
300.177	13.47
300.644	15.97
301.111	17.37
301.578	12.47
302.045	12.67
302.512	22.07
302.979	18.17
303.446	14.57
303.913	10.97
304.379	18.17
304.846	23.27
305.313	16.37
305.78	12.77
306.246	16.97
306.713	20.17
307.18	20.87
307.646	22.67
308.113	23.27
308.579	14.07
309.046	20.77
309.512	21.77
309.979	17.77
310.445	20.57
310.912	25.97
311.378	25.97
311.845	19.77
312.311	27.37
312.777	29.17
313.244	23.77
313.71	37.87
314.176	23.07
314.642	25.27
315.109	27.47
315.575	33.87
316.041	29.57
316.507	26.87
316.973	28.57
317.439	30.87
317.905	35.27
318.371	32.17
318.837	28.67
319.303	33.77
319.769	28.27
320.235	29.77
320.701	31.47
321.167	33.57
321.633	23.87
322.099	28.27
322.564	33.37
323.03	27.97
323.496	34.77
323.962	34.27
324.427	26.87
324.893	36.27
325.359	35.37
325.824	32.67
326.29	35.97
326.755	36.57
327.221	40.97
327.686	28.17
328.152	38.87
328.617	39.67
329.083	46.37
329.548	47.67
330.014	44.57
330.479	42.47
330.944	37.07
331.41	39.07
331.875	37.17
332.34	33.57
332.805	39.07
333.271	43.87
333.736	38.37
334.201	44.07
334.666	47.57
335.131	49.47
335.596	50.87
336.061	44.77
336.526	35.47
336.991	49.47
337.456	51.87
337.921	47.97
338.386	48.77
338.851	43.17
339.316	51.57
339.781	47.07
340.246	47.67
340.711	47.47
341.175	47.87
341.64	48.17
342.105	50.27
342.569	56.77
343.034	66.27
343.499	61.77
343.963	50.87
344.428	65.57
344.893	63.87
345.357	58.77
345.822	65.77
346.286	62.57
346.751	74.17
347.215	68.57
347.679	73.67
348.144	97.57
348.608	85.27
349.073	71.87
349.537	77.47
350.001	81.27
350.465	89.17
350.93	82.97
351.394	89.47
351.858	76.37
352.322	89.37
352.786	88.07
353.25	93.17
353.715	109.07
354.179	99.27
354.643	115.57
355.107	123.37
355.571	101.27
356.035	100.07
356.498	115.07
356.962	118.27
357.426	119.57
357.89	115.27
358.354	95.17
358.818	95.37
359.281	87.87
359.745	86.17
360.209	91.07
360.673	83.07
361.136	95.17
361.6	90.57
362.064	90.87
362.527	93.47
362.991	105.47
363.454	93.87
363.918	89.97
364.381	84.47
364.845	95.77
365.308	95.57
365.772	102.37
366.235	105.67
366.698	89.47
367.162	89.67
367.625	97.17
368.088	101.97
368.552	97.97
369.015	99.07
369.478	105.47
369.941	116.07
370.404	99.47
370.867	112.07
371.331	116.87
371.794	123.17
372.257	109.07
372.72	119.37
373.183	116.37
373.646	112.97
374.109	114.37
374.572	115.47
375.035	115.67
375.497	124.57
375.96	113.97
376.423	123.57
376.886	124.07
377.349	126.87
377.811	124.27
378.274	119.57
378.737	126.87
379.199	130.17
379.662	126.77
380.125	127.77
380.587	128.67
381.05	123.57
381.512	142.37
381.975	149.37
382.437	141.27
382.9	140.87
383.362	143.97
383.825	156.17
384.287	146.97
384.75	141.17
385.212	151.87
385.674	157.67
386.136	148.57
386.599	146.67
387.061	142.47
387.523	151.77
387.985	152.87
388.447	155.27
388.91	149.87
389.372	151.07
389.834	156.87
390.296	154.77
390.758	158.37
391.22	154.37
391.682	172.47
392.144	174.77
392.606	161.57
393.068	161.77
393.529	179.07
393.991	175.37
394.453	162.17
394.915	158.27
395.377	160.97
395.838	157.97
396.3	159.17
396.762	168.97
397.224	166.17
397.685	165.97
398.147	170.87
398.608	165.37
399.07	161.87
399.531	173.77
399.993	172.67
400.454	190.17
400.916	187.97
401.377	179.77
401.839	189.97
402.3	187.47
402.762	199.87
403.223	218.37
403.684	207.27
404.145	196.47
404.607	200.67
405.068	196.57
405.529	198.17
405.99	217.27
406.451	208.67
406.913	213.37
407.374	200.57
407.835	206.07
408.296	206.77
408.757	212.77
409.218	220.57
409.679	219.97
410.14	210.87
410.601	210.67
411.062	215.77
411.522	218.37
411.983	217.47
412.444	220.57
412.905	225.77
413.366	228.87
413.826	253.77
414.287	280.77
414.748	333.77
415.208	316.17
415.669	273.17
416.13	260.47
416.59	260.67
417.051	271.47
417.511	285.07
417.972	307.57
418.432	320.87
418.893	373.17
419.353	325.37
419.814	263.07
420.274	232.67
420.734	227.77
421.195	244.27
421.655	235.47
422.115	243.57
422.576	247.07
423.036	249.67
423.496	262.07
423.956	268.67
424.416	290.47
424.876	329.17
425.336	316.67
425.797	321.77
426.257	315.67
426.717	290.77
427.177	277.37
427.637	275.57
428.097	289.97
428.556	290.47
429.016	320.17
429.476	310.17
429.936	310.67
430.396	320.97
430.856	343.67
431.315	363.47
431.775	394.77
432.235	430.97
432.694	401.77
433.154	412.77
433.614	428.47
434.073	387.17
434.533	331.47
434.993	313.47
435.452	317.77
435.912	329.77
436.371	327.77
436.83	321.77
437.29	310.27
437.749	294.57
438.209	290.77
438.668	318.17
439.127	323.67
439.587	296.87
440.046	280.47
440.505	304.27
440.964	310.87
441.424	351.17
441.883	346.97
442.342	309.47
442.801	271.87
443.26	279.77
443.719	281.07
444.178	273.17
444.637	260.67
445.096	270.77
445.555	272.87
446.014	276.97
446.473	277.37
446.932	293.47
447.391	276.07
447.849	282.77
448.308	278.07
448.767	276.67
449.226	289.17
449.685	292.87
450.143	305.17
450.602	288.87
451.061	276.97
451.519	277.57
451.978	280.67
452.436	278.27
452.895	284.27
453.353	296.77
453.812	292.07
454.27	281.37
454.729	289.57
455.187	285.27
455.646	292.27
456.104	301.07
456.562	305.37
457.021	304.47
457.479	300.47
457.937	316.07
458.395	310.37
458.854	297.97
459.312	311.97
459.77	322.27
460.228	308.47
460.686	295.17
461.144	299.17
461.602	306.17
462.06	295.57
462.518	306.67
462.976	311.67
463.434	310.87
463.892	310.47
464.35	315.97
464.808	327.87
465.266	304.47
465.724	322.67
466.181	327.17
466.639	328.17
467.097	339.27
467.555	356.47
468.012	355.07
468.47	360.97
468.928	379.97
469.385	393.37
469.843	388.67
470.3	396.17
470.758	407.57
471.215	442.87
471.673	451.57
472.13	455.07
472.588	466.77
473.045	433.27
473.503	433.67
473.96	454.77
474.417	462.87
474.875	492.47
475.332	524.97
475.789	520.57
476.246	522.77
476.704	540.47
477.161	561.57
477.618	574.27
478.075	618.17
478.532	657.97
478.989	726.57
479.446	816.17
479.903	788.27
480.36	831.87
480.817	875.47
481.274	957.97
481.731	1041.37
482.188	1119.97
482.645	1239.17
483.102	1332.87
483.558	1427.57
484.015	1489.97
484.472	1476.47
484.929	1415.77
485.385	1388.97
485.842	1362.37
486.299	1325.87
486.755	1254.27
487.212	1120.17
487.668	972.17
488.125	903.77
488.582	832.07
489.038	793.07
489.494	778.17
489.951	738.57
490.407	719.87
490.864	715.97
491.32	705.57
491.776	698.87
492.233	701.27
492.689	669.97
493.145	670.97
493.602	663.87
494.058	672.57
494.514	670.77
494.97	674.97
495.426	675.57
495.882	668.97
496.338	654.57
496.794	675.17
497.251	663.87
497.707	666.47
498.163	673.97
498.618	682.17
499.074	676.87
499.53	703.37
499.986	702.87
500.442	690.87
500.898	677.87
501.354	667.17
501.809	672.97
502.265	670.97
502.721	683.57
503.177	685.27
503.632	689.17
504.088	691.47
504.543	719.17
504.999	728.87
505.455	708.67
505.91	680.47
506.366	690.37
506.821	675.67
507.277	691.67
507.732	695.27
508.187	690.97
508.643	694.37
509.098	688.07
509.553	707.17
510.009	719.07
510.464	722.87
510.919	734.77
511.375	740.67
511.83	739.57
512.285	753.07
512.74	785.17
513.195	794.07
513.65	797.97
514.105	795.17
514.56	795.67
515.015	803.07
515.47	814.67
515.925	805.27
516.38	811.47
516.835	821.07
517.29	801.97
517.745	815.77
518.2	796.27
518.655	773.87
519.109	770.17
519.564	759.37
520.019	753.67
520.474	745.27
520.928	753.37
521.383	730.97
521.838	734.47
522.292	729.27
522.747	732.77
523.201	731.87
523.656	721.67
524.11	723.47
524.565	729.27
525.019	713.37
525.474	716.87
525.928	713.87
526.382	720.37
526.837	715.27
527.291	721.67
527.745	707.77
528.2	699.67
528.654	705.77
529.108	704.87
529.562	701.27
530.016	698.47
530.47	704.17
530.925	702.17
531.379	699.97
531.833	704.47
532.287	695.77
532.741	689.67
533.195	701.57
533.649	687.67
534.103	706.87
534.556	697.07
535.01	699.87
535.464	696.87
535.918	700.57
536.372	710.77
536.826	701.57
537.279	693.27
537.733	703.87
538.187	705.27
538.64	698.37
539.094	709.17
539.548	709.87
540.001	712.87
540.455	707.77
540.908	724.07
541.362	724.17
541.815	734.87
542.269	740.97
542.722	736.67
543.175	751.87
543.629	748.97
544.082	775.97
544.536	759.27
544.989	764.87
545.442	775.07
545.895	770.87
546.349	758.07
546.802	779.27
547.255	774.67
547.708	779.97
548.161	792.17
548.614	791.57
549.067	793.27
549.52	792.87
549.973	767.87
550.426	779.67
550.879	761.77
551.332	772.37
551.785	767.37
552.238	769.27
552.691	792.57
553.144	786.17
553.596	805.47
554.049	814.27
554.502	837.07
554.955	856.27
555.407	860.97
555.86	847.97
556.313	827.77
556.765	828.77
557.218	825.87
557.67	818.97
558.123	820.37
558.576	812.47
559.028	816.07
559.48	816.87
559.933	819.87
560.385	796.77
560.838	768.97
561.29	755.97
561.742	739.87
562.195	732.97
562.647	726.37
563.099	736.17
563.551	734.77
564.004	735.97
564.456	715.67
564.908	707.17
565.36	691.87
565.812	679.57
566.264	668.87
566.716	669.37
567.168	653.07
567.62	648.07
568.072	645.97
568.524	644.37
568.976	641.27
569.428	633.27
569.88	623.57
570.332	637.37
570.784	639.47
571.235	640.97
571.687	627.77
572.139	644.77
572.59	650.67
573.042	652.47
573.494	653.07
573.945	648.47
574.397	625.67
574.849	629.57
575.3	624.57
575.752	615.57
576.203	614.27
576.655	626.27
577.106	615.07
577.557	605.87
578.009	604.67
578.46	602.47
578.912	598.87
579.363	592.77
579.814	595.37
580.265	586.47
580.717	605.57
581.168	596.87
581.619	603.47
582.07	601.67
582.521	598.27
582.972	595.37
583.423	603.87
583.875	598.87
584.326	604.37
584.777	624.07
585.227	634.07
585.678	656.67
586.129	674.57
586.58	694.67
587.031	707.07
587.482	749.97
587.933	776.57
588.384	757.97
588.834	709.77
589.285	681.47
589.736	694.37
590.186	672.17
590.637	676.07
591.088	651.17
591.538	651.17
591.989	644.07
592.439	633.77
592.89	635.27
593.34	609.87
593.791	620.47
594.241	606.67
594.692	614.57
595.142	602.87
595.593	600.27
596.043	613.07
596.493	609.17
596.943	612.27
597.394	616.27
597.844	620.57
598.294	634.27
598.744	661.97
599.195	671.87
599.645	706.27
600.095	730.57
600.545	771.97
600.995	806.87
601.445	856.27
601.895	909.17
602.345	958.27
602.795	942.17
603.245	902.87
603.695	854.57
604.145	817.87
604.594	784.47
605.044	744.17
605.494	691.27
605.944	652.27
606.393	635.27
606.843	617.07
607.293	625.27
607.743	620.57
608.192	621.97
608.642	631.57
609.091	637.97
609.541	644.27
609.99	636.27
610.44	634.87
610.889	602.77
611.339	589.27
611.788	567.47
612.238	588.07
612.687	590.87
613.136	579.97
613.586	592.87
614.035	577.17
614.484	597.97
614.933	592.57
615.383	598.87
615.832	597.27
616.281	583.37
616.73	572.87
617.179	549.77
617.628	540.57
618.077	524.07
618.526	521.07
618.975	509.57
619.424	510.47
619.873	498.37
620.322	505.97
620.771	496.37
621.22	501.67
621.669	480.37
622.118	482.17
622.567	476.27
623.015	466.27
623.464	468.17
623.913	459.17
624.361	446.67
624.81	448.87
625.259	458.57
625.707	462.17
626.156	460.57
626.604	470.37
627.053	468.17
627.501	467.47
627.95	464.87
628.398	478.97
628.847	458.67
629.295	467.57
629.744	470.07
630.192	460.87
630.64	460.57
631.089	444.87
631.537	439.57
631.985	431.77
632.433	437.47
632.881	432.97
633.33	427.97
633.778	423.67
634.226	422.17
634.674	432.37
635.122	441.87
635.57	436.87
636.018	450.57
636.466	453.47
636.914	445.07
637.362	465.47
637.81	470.07
638.258	474.17
638.705	467.57
639.153	483.67
639.601	497.97
640.049	514.67
640.497	538.67
640.944	552.67
641.392	510.07
641.84	495.07
642.287	473.07
642.735	456.17
643.182	451.17
643.63	450.37
644.078	448.67
644.525	457.77
644.973	470.07
645.42	468.67
645.867	491.57
646.315	504.17
646.762	507.87
647.21	531.17
647.657	547.27
648.104	572.07
648.551	591.47
648.999	623.87
649.446	669.17
649.893	721.77
650.34	809.47
650.787	954.07
651.234	1167.37
651.682	1467.77
652.129	1950.67
652.576	2689.67
653.023	3928.77
653.47	5371.37
653.917	6791.97
654.363	7926.57
654.81	8963.17
655.257	8537.37
655.704	5700.37
656.151	3429.17
656.598	2274.07
657.044	1637.67
657.491	1282.47
657.938	1034.67
658.385	883.97
658.831	768.67
659.278	697.67
659.724	624.47
660.171	579.37
660.618	540.47
661.064	512.87
661.511	486.77
661.957	475.47
662.404	463.07
662.85	469.57
663.296	455.87
663.743	432.77
664.189	410.17
664.635	418.57
665.082	406.77
665.528	402.47
665.974	394.27
666.42	391.07
666.867	390.97
667.313	358.97
667.759	361.67
668.205	349.97
668.651	354.87
669.097	348.67
669.543	348.27
669.989	353.17
670.435	359.17
670.881	349.47
671.327	358.87
671.773	370.87
672.219	387.87
672.665	427.57
673.11	457.27
673.556	487.17
674.002	523.87
674.448	523.07
674.893	429.97
675.339	383.67
675.785	349.57
676.23	323.07
676.676	308.27
677.122	301.37
677.567	293.57
678.013	282.57
678.458	284.17
678.904	290.87
679.349	275.47
679.794	282.87
680.24	277.57
680.685	277.97
681.131	266.27
681.576	271.57
682.021	284.97
682.466	273.87
682.912	272.87
683.357	271.17
683.802	299.07
684.247	328.07
684.692	348.67
685.137	382.87
685.583	421.57
686.028	440.57
686.473	416.07
686.918	357.17
687.363	336.87
687.807	315.17
688.252	294.47
688.697	282.07
689.142	269.47
689.587	255.37
690.032	256.57
690.477	262.67
690.921	270.47
691.366	286.97
691.811	308.17
692.255	338.47
692.7	359.77
693.145	386.87
693.589	514.57
694.034	829.87
694.478	1164.37
694.923	1369.37
695.367	1824.37
695.812	973.87
696.256	401.07
696.701	301.17
697.145	266.17
697.59	255.77
698.034	251.17
698.478	253.27
698.922	252.67
699.367	251.37
699.811	257.87
700.255	270.07
700.699	284.67
701.143	314.77
701.588	359.37
702.032	399.97
702.476	396.57
702.92	385.27
703.364	375.77
703.808	482.97
704.252	763.57
704.696	1092.87
705.14	1320.87
705.584	1710.47
706.027	849.07
706.471	412.37
706.915	312.77
707.359	267.17
707.803	253.47
708.246	236.67
708.69	247.57
709.134	253.27
709.577	237.17
710.021	251.97
710.465	238.97
710.908	236.97
711.352	230.87
711.795	236.67
712.239	260.47
712.682	292.07
713.126	328.57
713.569	360.87
714.012	286.17
714.456	245.27
714.899	226.67
715.342	213.17
715.786	201.87
716.229	198.37
716.672	202.67
717.115	189.67
717.558	187.47
718.002	199.67
718.445	199.77
718.888	216.07
719.331	224.57
719.774	228.47
720.217	228.67
720.66	220.67
721.103	208.97
721.546	199.87
721.989	190.97
722.432	176.87
722.874	177.37
723.317	175.17
723.76	179.67
724.203	196.97
724.645	240.37
725.088	332.47
725.531	432.37
725.974	500.27
726.416	435.97
726.859	229.07
727.301	194.27
727.744	181.17
728.187	178.47
728.629	187.27
729.071	188.17
729.514	191.27
729.956	206.37
730.399	215.87
730.841	221.17
731.283	209.77
731.726	205.07
732.168	205.77
732.61	206.97
733.053	223.37
733.495	239.47
733.937	264.87
734.379	296.17
734.821	335.37
735.263	410.07
735.705	604.67
736.148	1143.77
736.59	1953.57
737.032	2450.47
737.474	2009.17
737.916	645.97
738.357	343.17
738.799	255.97
739.241	231.37
739.683	218.57
740.125	228.97
740.567	239.77
741.008	250.47
741.45	251.97
741.892	255.87
742.334	280.57
742.775	304.57
743.217	288.67
743.658	219.17
744.1	202.47
744.542	202.37
744.983	258.37
745.425	308.77
745.866	301.57
746.307	226.87
746.749	215.27
747.19	242.27
747.632	338.87
748.073	632.87
748.514	1362.87
748.956	2193.77
749.397	2768.77
749.838	2301.47
750.279	2390.17
750.72	1227.07
751.162	441.87
751.603	246.57
752.044	194.37
752.485	167.27
752.926	158.87
753.367	161.87
753.808	146.17
754.249	151.77
754.69	138.27
755.131	140.27
755.572	141.07
756.013	137.37
756.453	143.37
756.894	144.97
757.335	139.87
757.776	149.37
758.216	151.87
758.657	153.07
759.098	153.57
759.538	172.07
759.979	200.57
760.42	278.07
760.86	512.07
761.301	1304.47
761.741	3321.27
762.182	5276.77
762.622	3785.87
763.063	1070.07
763.503	429.77
763.943	265.27
764.384	214.57
764.824	203.17
765.264	194.57
765.705	161.17
766.145	147.97
766.585	133.27
767.025	133.47
767.465	128.57
767.906	134.37
768.346	163.07
768.786	164.87
769.226	171.07
769.666	222.37
770.106	437.27
770.546	1124.27
770.986	2080.77
771.426	1924.47
771.866	635.67
772.306	255.27
772.745	155.37
773.185	127.67
773.625	125.17
774.065	118.17
774.505	126.47
774.944	171.57
775.384	312.37
775.824	566.77
776.263	565.97
776.703	251.87
777.142	135.07
777.582	103.37
778.021	96.77
778.461	94.57
778.9	94.77
779.34	99.37
779.779	87.77
780.219	79.67
780.658	77.37
781.097	81.77
781.537	86.87
781.976	80.17
782.415	75.27
782.855	78.57
783.294	83.87
783.733	79.77
784.172	79.57
784.611	82.27
785.05	81.77
785.489	82.67
785.928	89.37
786.367	83.07
786.806	83.77
787.245	101.87
787.684	102.67
788.123	110.07
788.562	108.37
789.001	100.97
789.44	95.67
789.879	91.87
790.317	94.67
790.756	98.37
791.195	96.07
791.634	109.37
792.072	153.07
792.511	262.27
792.95	717.37
793.388	1648.17
793.827	1582.17
794.265	530.17
794.704	219.87
795.142	140.47
795.581	121.97
796.019	108.77
796.458	93.37
796.896	94.27
797.334	100.57
797.773	122.97
798.211	163.97
798.649	319.77
799.087	759.97
799.526	1225.17
799.964	1537.77
800.402	1641.17
800.84	617.87
801.278	241.07
801.716	150.27
802.154	124.37
802.592	118.77
803.03	112.67
803.468	100.07
803.906	114.87
804.344	119.87
804.782	114.27
805.22	105.77
805.658	99.47
806.096	116.37
806.533	124.27
806.971	131.17
807.409	169.67
807.847	234.87
808.284	482.57
808.722	1377.87
809.16	2629.07
809.597	2405.47
810.035	4248.17
810.472	4895.97
810.91	1751.07
811.347	657.67
811.785	330.97
812.222	209.17
812.66	152.37
813.097	136.97
813.535	117.57
813.972	98.87
814.409	98.87
814.846	82.47
815.284	90.47
815.721	83.87
816.158	82.17
816.595	88.97
817.032	131.37
817.47	166.17
817.907	125.27
818.344	87.07
818.781	80.07
819.218	75.47
819.655	106.97
820.092	174.27
820.529	209.37
820.966	159.87
821.403	116.27
821.839	87.17
822.276	78.47
822.713	109.67
823.15	114.27
823.587	95.87
824.023	117.27
824.46	219.87
824.897	654.87
825.333	1082.57
825.77	478.07
826.206	176.77
826.643	105.87
827.08	79.07
827.516	59.67
827.953	61.77
828.389	62.17
828.825	59.37
829.262	55.67
829.698	50.97
830.135	48.67
830.571	45.97
831.007	51.47
831.443	56.07
831.88	46.27
832.316	45.17
832.752	53.97
833.188	50.57
833.624	50.87
834.06	48.17
834.497	52.97
834.933	58.77
835.369	62.37
835.805	52.47
836.241	59.97
836.677	62.17
837.112	69.57
837.548	80.17
837.984	103.97
838.42	153.77
838.856	365.67
839.292	1150.77
839.727	1882.27
840.163	881.17
840.599	704.77
841.034	1573.27
841.47	1778.07
841.906	640.67
842.341	257.47
842.777	161.07
843.212	179.07
843.648	169.77
844.083	98.37
844.519	65.47
844.954	61.07
845.39	43.17
845.825	42.07
846.261	42.67
846.696	39.57
847.131	42.17
847.566	44.67
848.002	37.87
848.437	40.97
848.872	44.67
849.307	47.57
849.742	59.37
850.177	122.17
850.613	412.27
851.048	706.67
851.483	309.17
851.918	116.47
852.353	67.27
852.788	39.77
853.223	36.27
853.657	39.17
854.092	38.77
854.527	32.37
854.962	29.97
855.397	34.67
855.832	42.47
856.266	32.37
856.701	29.57
857.136	27.87
857.57	33.07
858.005	48.57
858.44	50.77
858.874	36.07
859.309	43.67
859.743	24.37
860.178	35.97
860.612	31.97
861.047	41.87
861.481	60.37
861.915	71.77
862.35	50.47
862.784	29.47
863.218	31.77
863.653	30.57
864.087	39.57
864.521	45.47
864.955	48.27
865.39	116.37
865.824	138.37
866.258	100.27
866.692	167.37
867.126	191.07
867.56	108.67
867.994	51.57
868.428	27.27
868.862	42.77
869.296	54.07
869.73	53.27
870.164	54.27
870.598	40.37
871.031	30.27
871.465	26.77
871.899	23.97
872.333	14.47
872.766	20.47
873.2	16.77
873.634	22.37
874.067	23.07
874.501	19.27
874.935	31.87
875.368	29.67
875.802	25.07
876.235	18.37
876.669	23.57
877.102	18.17
877.535	21.57
877.969	13.37
878.402	21.37
878.836	16.67
879.269	21.47
879.702	24.67
880.135	15.67
880.569	17.17
881.002	20.37
881.435	20.77
881.868	14.17
882.301	17.47
882.734	12.77
883.167	21.47
883.601	15.07
884.034	16.37
884.467	1.97
884.899	12.67
885.332	15.87
885.765	15.97
886.198	6.87
886.631	12.77
887.064	13.67
887.497	14.97
887.929	23.17
888.362	15.87
888.795	10.47
889.228	14.57
889.66	14.87
890.093	16.07
890.526	17.37
890.958	11.77
891.391	17.67
891.823	21.07
892.256	8.97
892.688	5.67
893.121	9.07
893.553	12.87
893.985	15.97
894.418	13.97
894.85	10.57
895.282	7.97
895.715	13.47
896.147	12.17
896.579	10.97
897.011	11.87
897.444	15.27
897.876	8.27
898.308	13.97
898.74	13.47
899.172	12.47
899.604	16.97
900.036	15.87
900.468	10.07
900.9	13.77
901.332	17.47
901.764	10.37
902.196	12.57
902.628	13.97
903.06	14.87
903.491	27.37
903.923	18.67
904.355	17.67
904.787	18.17
905.218	23.27
905.65	18.77
906.082	8.97
906.513	2.77
906.945	15.97
907.376	10.87
907.808	18.37
908.239	7.57
908.671	17.57
909.102	16.67
909.534	23.67
909.965	34.57
910.397	71.27
910.828	245.57
911.259	393.27
911.691	180.77
912.122	78.07
912.553	35.87
912.984	28.67
913.415	18.87
913.847	23.17
914.278	15.07
914.709	12.67
915.14	11.17
915.571	16.17
916.002	8.97
916.433	19.87
916.864	13.37
917.295	5.07
917.726	14.47
918.157	12.87
918.587	23.77
919.018	12.77
919.449	21.37
919.88	15.47
920.311	19.17
920.741	36.87
921.172	129.27
921.603	118.67
922.033	51.77
922.464	34.17
922.895	18.07
923.325	19.97
923.756	14.97
924.186	15.97
924.617	15.17
925.047	16.27
925.478	22.07
925.908	24.87
926.338	12.07
926.769	7.07
927.199	18.87
927.629	4.67
928.06	14.37
928.49	10.37
928.92	10.77
929.35	8.77
929.78	9.37
930.21	6.77
930.641	12.77
931.071	12.37
931.501	1.77
931.931	-0.23
932.361	6.97
932.791	6.27
933.221	4.17
933.651	5.07
934.08	9.67
934.51	24.27
934.94	11.37
935.37	9.27
935.8	8.67
936.229	3.37
936.659	12.97
937.089	0.27
937.519	16.57
937.948	27.07
938.378	15.57
938.807	6.97
939.237	5.17
939.666	4.87
940.096	-5.13
940.525	1.27
940.955	5.07
941.384	6.77
941.814	-0.43
942.243	-1.03
942.672	10.07
943.102	1.77
943.531	2.47
943.96	4.57
944.39	0.67
944.819	-4.23
945.248	-0.33
945.677	-3.03
946.106	10.07
946.535	11.07
946.964	6.67
947.393	4.67
947.822	3.07
948.251	-3.03
948.68	-0.53
949.109	8.57
949.538	3.67
949.967	-1.03
950.396	0.87
950.825	4.17
951.254	5.37
951.682	-4.23
952.111	3.87
952.54	2.87
952.969	-6.03
953.397	-7.03
953.826	2.57
954.254	-6.03
954.683	6.57
955.112	-2.73
955.54	3.07
955.969	4.47
956.397	-3.73
956.826	-4.73
957.254	1.17
957.682	3.77
958.111	5.37
958.539	-4.53
958.967	2.97
959.396	1.67
959.824	1.87
960.252	-0.93
960.68	-0.73
961.109	-2.63
961.537	-0.63
961.965	2.57
962.393	2.17
962.821	-2.83
963.249	3.37
963.677	4.37
964.105	-1.83
964.533	29.37
964.961	36.37
965.389	17.97
965.817	3.47
966.245	-5.03
966.672	4.77
967.1	-6.63
967.528	-1.53
967.956	1.17
968.383	-1.03
968.811	-4.73
969.239	-1.73
969.666	-6.23
970.094	-0.23
970.522	5.67
970.949	1.37
971.377	-3.03
971.804	-6.43
972.232	-0.43
972.659	-2.73
973.087	2.97
973.514	0.47
973.941	-6.63
974.369	0.47
974.796	-1.63
975.223	-1.13
975.651	-2.13
976.078	2.47
976.505	-0.83
976.932	4.07
977.359	11.37
977.786	18.17
978.214	-6.53
978.641	-5.83
979.068	-4.73
979.495	-3.83
979.922	0.57
980.349	-3.13
980.776	9.37
981.202	6.97
981.629	7.17
982.056	3.17
982.483	0.17
982.91	4.17
983.337	-5.53
983.763	4.97
984.19	-2.93
984.617	1.37
985.043	-5.33
985.47	3.17
985.897	-11.73
986.323	-2.03
986.75	0.07
987.176	-5.73
987.603	2.47
988.029	-2.93
988.456	-0.03
988.882	5.87
989.308	-0.13
989.735	-5.63
990.161	8.27
990.587	-4.23
991.014	2.07
991.44	8.27
991.866	-4.63
992.292	-3.53
992.719	-1.83
993.145	9.17
993.571	-8.63
993.997	-3.73
994.423	-9.43
994.849	-2.13
995.275	1.87
995.701	-4.33
996.127	-3.33
996.553	0.87
996.979	2.37
997.405	1.47
997.83	-5.43
998.256	-6.13
998.682	-2.63
999.108	-13.33
999.534	2.87
999.959	0.57
1000.385	-7.33
1000.811	-3.33
1001.236	-14.03
1001.662	-4.33
1002.087	-10.43
1002.513	4.67
1002.938	6.47
1003.364	-3.53
1003.789	-4.03
1004.215	1.77
1004.64	-7.43
1005.066	-1.33
1005.491	-0.43
1005.916	-3.13
1006.342	0.77
1006.767	-4.23
1007.192	7.37
1007.617	-3.33
1008.042	-10.43
1008.468	-9.23
1008.893	-3.23
1009.318	-2.03
1009.743	0.97
1010.168	8.27
1010.593	3.57
1011.018	-3.63
1011.443	0.87
1011.868	3.87
1012.293	-2.23
1012.718	-6.83
1013.143	2.97
1013.567	0.87
1013.992	-2.43
1014.417	-12.23
1014.842	3.47
1015.267	-7.23
1015.691	-3.93
1016.116	5.97
1016.541	-0.73
1016.965	5.97
1017.39	1.47
1017.814	3.47
1018.239	-3.73
1018.663	-5.73
1019.088	-5.93
1019.512	-4.63
1019.937	4.87
1020.361	-6.03
1020.785	-4.33
1021.21	0.57
1021.634	-2.93
1022.058	-0.23
1022.483	4.87
1022.907	-4.03
1023.331	-6.93
1023.755	-4.33
1024.179	1.07
1024.604	-8.93
1025.028	-2.53
1025.452	-4.63
1025.876	-4.63
1026.3	2.87
1026.724	-10.53
1027.148	-7.03
1027.572	-7.33
1027.996	-0.23
1028.42	-2.03
1028.843	-1.93
1029.267	3.07
1029.691	-2.13
1030.115	-5.33
1030.539	-7.93
1030.962	-6.13
1031.386	-9.13
1031.81	1.87
1032.233	-5.03
1032.657	-5.53
1033.08	0.77
1033.504	1.27
1033.927	-5.33
1034.351	-0.83
1034.774	0.67
1035.198	-1.53
1035.621	-3.83
1036.045	-0.33
1036.468	5.07
1036.891	-12.33
1037.315	-10.43
1037.738	-12.33
1038.161	-2.13
1038.584	-3.63
1039.008	-7.53
1039.431	-8.13
1039.854	-0.93
1040.277	-10.83
1040.7	-4.73
1041.123	4.17
1041.546	-9.53
1041.969	-8.23
1042.392	-3.53
1042.815	-5.23
1043.238	2.77
1043.661	0.17
1044.084	-6.63
1044.507	0.47
1044.93	-4.93
1045.352	-4.53
1045.775	3.47
1046.198	2.07
1046.621	-0.43
1047.043	2.87
1047.466	4.37
1047.889	-5.63
1048.311	-1.33
1048.734	-1.23
1049.156	-2.53
1049.579	-6.53
1050.001	-4.53
1050.424	3.07
1050.846	-1.83
1051.269	1.87
1051.691	-5.13
1052.113	-5.83
1052.536	-4.63
1052.958	3.27
1053.38	-0.83
1053.802	-6.03
1054.225	-1.83
1054.647	-4.83
1055.069	-5.73
1055.491	2.67
1055.913	-8.33
1056.335	-0.93
1056.757	-1.93
1057.179	-9.73
1057.601	-0.53
1058.023	-0.33
1058.445	-6.23
1058.867	-5.43
1059.289	-3.43
1059.711	-3.43
1060.133	-6.83
1060.555	-4.73
1060.976	-5.33
1061.398	-8.33
1061.82	-8.53
1062.241	-3.23
1062.663	-4.73
1063.085	-0.53
1063.506	1.07
1063.928	-2.83
1064.35	2.87
1064.771	-10.73
1065.193	-5.53
1065.614	-9.43
1066.035	1.77
1066.457	-3.53
1066.878	2.97
1067.3	-8.73
1067.721	2.17
1068.142	-10.33
1068.564	-1.73
1068.985	-6.33
1069.406	4.07
1069.827	-4.63
1070.248	-2.63
1070.67	-6.03
1071.091	-4.93
1071.512	-2.33
1071.933	-9.83
1072.354	-3.63
1072.775	-4.03
1073.196	-12.53
1073.617	0.67
1074.038	-7.53
1074.459	4.57
1074.88	-6.33
1075.3	-1.03
1075.721	-3.23
1076.142	2.47
1076.563	-3.73
1076.983	-11.13
1077.404	-7.03
1077.825	-10.93
1078.246	-2.93
1078.666	-11.83
1079.087	-5.63
1079.507	-6.83
1079.928	1.87
1080.348	-2.33
1080.769	-7.53
1081.189	2.77
1081.61	-9.53
1082.03	-4.03
1082.451	-3.93
1082.871	0.87
1083.291	-6.93
1083.711	-7.23
1084.132	0.27
1084.552	-2.93
1084.972	3.27
1085.392	-9.93
1085.813	-9.13
1086.233	-9.23
1086.653	-2.43
1087.073	-0.13
1087.493	-5.73
1087.913	-7.83
1088.333	-6.03
1088.753	-7.73
1089.173	-0.93
1089.593	-7.43
1090.013	-2.63
1090.433	-0.83
1090.852	-0.63
1091.272	-2.33
1091.692	-3.03
1092.112	-2.23
1092.531	-10.33
1092.951	-12.73
1093.371	-2.83
1093.79	-2.03
1094.21	-1.93
1094.63	-8.03
1095.049	-3.93
1095.469	3.77
1095.888	-7.13
1096.308	-0.23
1096.727	0.97
1097.146	2.47
1097.566	0.17
1097.985	-5.53
1098.405	-3.43
1098.824	-5.13
1099.243	-7.23
1099.662	-2.13
1100.082	-2.93
1100.501	-1.13
1100.92	-0.33
1101.339	-1.63
1101.758	-5.53
