Data from 20171114-ORNL-Ar_H_NY_Subt18_08-04-02-881.txt Node
Date: Tue Nov 14 08:04:02 EST 2017
User: Ender
Spectrometer: HR+D1039
Trigger mode: 0
Integration Time (sec): 2.730000E-2
Scans to average: 10
Electric dark correction enabled: true
Nonlinearity correction enabled: false
Boxcar width: 0
XAxis mode: Wavelengths
Number of Pixels in Spectrum: 2048
>>>>>Begin Spectral Data<<<<<
187.836	-3.41
188.309	-3.41
188.782	-3.41
189.255	-3.31
189.728	0.79
190.201	8.29
190.674	-0.01
191.147	3.09
191.619	-10.61
192.092	-0.61
192.565	4.89
193.038	-0.81
193.511	-1.61
193.984	-2.81
194.456	-5.31
194.929	8.49
195.402	0.89
195.874	1.99
196.347	1.49
196.82	-5.21
197.292	10.09
197.765	1.39
198.237	-2.81
198.71	2.49
199.182	4.89
199.655	3.09
200.127	4.29
200.6	-1.21
201.072	-4.21
201.544	-1.21
202.017	-5.11
202.489	-2.41
202.961	2.59
203.433	-1.61
203.906	-7.11
204.378	-3.01
204.85	2.59
205.322	-11.01
205.794	-3.01
206.266	-4.31
206.739	-3.91
207.211	-1.21
207.683	-5.31
208.155	-5.11
208.627	-7.61
209.099	-0.01
209.57	-4.41
210.042	1.09
210.514	-2.81
210.986	3.29
211.458	-10.41
211.93	-3.11
212.402	3.89
212.873	-10.91
213.345	-1.81
213.817	-11.91
214.288	-4.61
214.76	-11.01
215.232	-1.11
215.703	-3.01
216.175	-2.81
216.646	-9.41
217.118	-6.81
217.589	-3.91
218.061	-1.21
218.532	-4.51
219.004	0.39
219.475	-9.71
219.946	-3.81
220.418	-2.81
220.889	3.99
221.36	1.39
221.832	-5.81
222.303	-9.51
222.774	1.99
223.245	-7.61
223.717	-5.71
224.188	-4.21
224.659	-4.11
225.13	-2.71
225.601	2.99
226.072	-3.01
226.543	2.99
227.014	-5.41
227.485	1.99
227.956	-1.11
228.427	-4.41
228.898	1.09
229.369	2.09
229.839	-6.11
230.31	2.39
230.781	5.79
231.252	0.79
231.722	-0.01
232.193	-1.81
232.664	-6.51
233.135	2.19
233.605	-11.21
234.076	-3.61
234.546	-1.61
235.017	2.59
235.487	-1.51
235.958	1.79
236.428	-5.71
236.899	2.19
237.369	4.19
237.84	-3.51
238.31	6.49
238.78	-2.41
239.251	-3.91
239.721	-1.01
240.191	-1.81
240.662	-0.01
241.132	-2.91
241.602	-6.71
242.072	1.99
242.542	9.89
243.013	2.59
243.483	1.39
243.953	-0.21
244.423	-2.01
244.893	-0.21
245.363	0.59
245.833	1.39
246.303	-6.01
246.773	-0.21
247.243	1.69
247.712	9.39
248.182	5.49
248.652	7.99
249.122	-2.11
249.592	8.59
250.061	11.39
250.531	24.49
251.001	14.59
251.471	13.99
251.94	14.29
252.41	4.19
252.879	-6.51
253.349	8.39
253.818	8.99
254.288	-0.41
254.757	2.09
255.227	1.49
255.696	-0.41
256.166	5.89
256.635	6.09
257.105	10.99
257.574	2.99
258.043	6.19
258.513	6.99
258.982	10.89
259.451	7.99
259.92	5.99
260.389	5.49
260.859	14.39
261.328	6.89
261.797	12.59
262.266	6.59
262.735	9.89
263.204	5.69
263.673	2.09
264.142	4.89
264.611	-3.91
265.08	-3.11
265.549	-0.81
266.018	4.39
266.487	-3.21
266.955	0.49
267.424	-6.11
267.893	2.29
268.362	4.09
268.83	5.39
269.299	12.79
269.768	5.19
270.236	1.19
270.705	0.89
271.174	5.69
271.642	4.39
272.111	3.89
272.579	7.39
273.048	15.19
273.516	13.69
273.985	12.39
274.453	11.69
274.922	14.79
275.39	10.79
275.858	3.89
276.327	4.69
276.795	11.99
277.263	9.79
277.731	15.19
278.2	33.69
278.668	32.79
279.136	28.49
279.604	10.19
280.072	7.09
280.54	9.39
281.008	7.49
281.477	13.29
281.945	11.19
282.413	7.79
282.881	5.29
283.348	5.09
283.816	8.89
284.284	8.69
284.752	9.49
285.22	5.09
285.688	12.19
286.156	13.49
286.623	33.39
287.091	28.39
287.559	18.59
288.026	12.39
288.494	7.59
288.962	-2.41
289.429	0.69
289.897	15.89
290.364	12.89
290.832	11.29
291.3	11.19
291.767	10.79
292.234	15.99
292.702	13.39
293.169	7.99
293.637	14.99
294.104	10.39
294.571	3.89
295.039	5.29
295.506	10.59
295.973	16.99
296.44	9.29
296.908	7.69
297.375	9.39
297.842	12.09
298.309	11.49
298.776	8.99
299.243	17.19
299.71	3.89
300.177	21.99
300.644	16.39
301.111	13.99
301.578	21.79
302.045	11.29
302.512	11.79
302.979	16.59
303.446	13.49
303.913	13.59
304.379	18.99
304.846	19.89
305.313	19.79
305.78	19.09
306.246	21.09
306.713	19.89
307.18	20.99
307.646	17.19
308.113	20.29
308.579	14.69
309.046	16.29
309.512	20.89
309.979	9.89
310.445	22.79
310.912	18.09
311.378	16.89
311.845	23.09
312.311	26.59
312.777	22.79
313.244	21.39
313.71	31.69
314.176	27.99
314.642	25.79
315.109	21.69
315.575	25.19
316.041	29.89
316.507	19.19
316.973	29.19
317.439	26.69
317.905	28.79
318.371	31.19
318.837	34.09
319.303	29.79
319.769	22.69
320.235	20.39
320.701	31.99
321.167	26.89
321.633	21.39
322.099	32.69
322.564	31.39
323.03	29.79
323.496	28.69
323.962	30.99
324.427	21.69
324.893	35.89
325.359	29.69
325.824	28.39
326.29	31.89
326.755	30.59
327.221	37.09
327.686	30.29
328.152	35.79
328.617	31.49
329.083	34.49
329.548	46.49
330.014	34.89
330.479	35.39
330.944	31.19
331.41	35.69
331.875	34.49
332.34	28.59
332.805	30.99
333.271	40.59
333.736	35.69
334.201	41.39
334.666	43.69
335.131	42.49
335.596	40.99
336.061	42.89
336.526	33.79
336.991	34.29
337.456	50.09
337.921	42.49
338.386	30.39
338.851	35.99
339.316	38.69
339.781	37.39
340.246	39.19
340.711	34.19
341.175	42.49
341.64	33.49
342.105	46.99
342.569	40.29
343.034	50.49
343.499	40.89
343.963	40.29
344.428	51.99
344.893	52.49
345.357	48.49
345.822	41.09
346.286	49.19
346.751	51.19
347.215	55.79
347.679	55.29
348.144	69.89
348.608	55.79
349.073	53.99
349.537	57.29
350.001	62.19
350.465	73.29
350.93	61.09
351.394	64.19
351.858	49.59
352.322	67.29
352.786	60.29
353.25	71.39
353.715	74.59
354.179	71.19
354.643	89.39
355.107	95.19
355.571	83.39
356.035	82.29
356.498	81.19
356.962	89.49
357.426	97.79
357.89	82.19
358.354	70.79
358.818	71.69
359.281	62.99
359.745	65.89
360.209	61.29
360.673	63.09
361.136	66.49
361.6	68.19
362.064	76.19
362.527	68.99
362.991	72.29
363.454	60.69
363.918	64.79
364.381	60.49
364.845	69.79
365.308	67.59
365.772	73.69
366.235	69.09
366.698	70.09
367.162	68.19
367.625	65.89
368.088	70.49
368.552	70.79
369.015	68.99
369.478	78.69
369.941	86.19
370.404	71.09
370.867	83.09
371.331	93.49
371.794	90.59
372.257	87.29
372.72	101.09
373.183	89.09
373.646	84.59
374.109	87.79
374.572	88.69
375.035	87.69
375.497	91.39
375.96	85.39
376.423	90.09
376.886	93.09
377.349	87.59
377.811	86.79
378.274	91.79
378.737	91.99
379.199	96.19
379.662	87.19
380.125	101.89
380.587	96.29
381.05	102.09
381.512	112.99
381.975	116.69
382.437	107.89
382.9	106.19
383.362	108.49
383.825	119.99
384.287	118.59
384.75	113.39
385.212	112.89
385.674	114.39
386.136	113.69
386.599	112.99
387.061	112.09
387.523	114.19
387.985	111.89
388.447	128.89
388.91	120.99
389.372	127.59
389.834	121.99
390.296	121.49
390.758	132.89
391.22	131.69
391.682	167.39
392.144	238.39
392.606	191.19
393.068	139.19
393.529	140.69
393.991	135.69
394.453	133.59
394.915	132.09
395.377	158.09
395.838	173.59
396.3	128.79
396.762	123.99
397.224	115.39
397.685	111.29
398.147	119.59
398.608	110.89
399.07	113.69
399.531	119.69
399.993	126.19
400.454	135.19
400.916	124.99
401.377	123.79
401.839	129.39
402.3	130.19
402.762	141.69
403.223	157.19
403.684	147.29
404.145	140.89
404.607	137.99
405.068	143.09
405.529	144.79
405.99	158.79
406.451	152.09
406.913	146.09
407.374	140.29
407.835	142.09
408.296	147.59
408.757	147.99
409.218	161.99
409.679	154.69
410.14	154.79
410.601	154.09
411.062	163.79
411.522	168.19
411.983	165.89
412.444	154.59
412.905	155.09
413.366	158.89
413.826	167.69
414.287	191.09
414.748	229.79
415.208	225.29
415.669	191.39
416.13	175.59
416.59	178.59
417.051	189.19
417.511	191.79
417.972	210.09
418.432	228.09
418.893	257.19
419.353	224.49
419.814	180.49
420.274	160.89
420.734	161.79
421.195	173.99
421.655	173.99
422.115	170.49
422.576	172.69
423.036	168.99
423.496	182.99
423.956	195.99
424.416	206.59
424.876	238.29
425.336	228.39
425.797	233.69
426.257	219.99
426.717	210.79
427.177	203.89
427.637	197.59
428.097	205.99
428.556	213.09
429.016	230.69
429.476	222.59
429.936	238.39
430.396	233.89
430.856	251.29
431.315	269.19
431.775	295.39
432.235	322.69
432.694	301.09
433.154	311.39
433.614	323.19
434.073	287.49
434.533	247.49
434.993	237.39
435.452	237.89
435.912	241.69
436.371	246.59
436.83	243.29
437.29	232.69
437.749	213.69
438.209	202.79
438.668	230.39
439.127	235.09
439.587	216.89
440.046	209.29
440.505	215.59
440.964	233.29
441.424	264.29
441.883	256.79
442.342	219.59
442.801	198.49
443.26	196.19
443.719	201.99
444.178	193.79
444.637	190.99
445.096	188.89
445.555	192.99
446.014	194.19
446.473	196.99
446.932	199.49
447.391	196.59
447.849	194.99
448.308	191.49
448.767	200.29
449.226	201.39
449.685	204.69
450.143	217.79
450.602	212.89
451.061	198.39
451.519	202.39
451.978	196.29
452.436	203.59
452.895	205.19
453.353	211.49
453.812	209.59
454.27	216.59
454.729	206.19
455.187	209.09
455.646	210.99
456.104	212.79
456.562	218.59
457.021	221.19
457.479	222.69
457.937	230.69
458.395	229.29
458.854	213.19
459.312	211.19
459.77	222.09
460.228	224.39
460.686	214.39
461.144	221.99
461.602	216.49
462.06	217.09
462.518	225.69
462.976	226.09
463.434	224.59
463.892	235.39
464.35	234.79
464.808	241.59
465.266	229.99
465.724	239.89
466.181	241.79
466.639	239.89
467.097	245.69
467.555	260.49
468.012	267.99
468.47	265.99
468.928	284.59
469.385	287.89
469.843	294.99
470.3	305.99
470.758	304.79
471.215	324.89
471.673	335.99
472.13	331.79
472.588	341.19
473.045	321.39
473.503	325.29
473.96	344.19
474.417	350.59
474.875	368.19
475.332	397.49
475.789	395.89
476.246	393.39
476.704	419.39
477.161	437.79
477.618	446.59
478.075	481.09
478.532	515.39
478.989	575.79
479.446	664.19
479.903	656.39
480.36	686.29
480.817	741.99
481.274	835.69
481.731	920.59
482.188	991.49
482.645	1119.49
483.102	1209.49
483.558	1331.79
484.015	1383.19
484.472	1365.39
484.929	1327.99
485.385	1286.39
485.842	1230.79
486.299	1184.09
486.755	1105.69
487.212	951.19
487.668	813.29
488.125	739.89
488.582	687.99
489.038	651.39
489.494	623.29
489.951	595.29
490.407	588.19
490.864	563.69
491.32	549.99
491.776	545.89
492.233	551.19
492.689	531.69
493.145	525.29
493.602	515.89
494.058	518.59
494.514	522.49
494.97	541.49
495.426	543.29
495.882	529.59
496.338	532.39
496.794	540.39
497.251	525.29
497.707	547.19
498.163	538.49
498.618	551.59
499.074	544.09
499.53	567.79
499.986	568.99
500.442	553.59
500.898	539.49
501.354	533.49
501.809	534.59
502.265	542.29
502.721	562.29
503.177	563.19
503.632	555.99
504.088	572.19
504.543	598.49
504.999	587.49
505.455	554.59
505.91	544.49
506.366	542.99
506.821	537.79
507.277	543.69
507.732	535.49
508.187	533.79
508.643	546.39
509.098	545.19
509.553	566.89
510.009	561.19
510.464	575.89
510.919	584.99
511.375	582.49
511.83	606.89
512.285	605.79
512.74	640.69
513.195	655.49
513.65	643.59
514.105	651.39
514.56	650.59
515.015	665.49
515.47	681.89
515.925	659.69
516.38	668.69
516.835	674.59
517.29	667.39
517.745	664.29
518.2	653.79
518.655	631.39
519.109	633.09
519.564	629.39
520.019	610.09
520.474	606.09
520.928	609.49
521.383	595.39
521.838	600.19
522.292	608.99
522.747	597.39
523.201	590.79
523.656	587.89
524.11	579.99
524.565	577.59
525.019	580.59
525.474	580.59
525.928	593.59
526.382	586.79
526.837	583.59
527.291	586.99
527.745	581.59
528.2	586.19
528.654	581.69
529.108	571.29
529.562	573.59
530.016	575.09
530.47	588.69
530.925	567.29
531.379	582.79
531.833	583.09
532.287	586.89
532.741	583.69
533.195	589.59
533.649	580.09
534.103	603.29
534.556	590.39
535.01	583.19
535.464	580.59
535.918	595.59
536.372	596.19
536.826	596.39
537.279	582.39
537.733	581.49
538.187	596.89
538.64	591.59
539.094	603.49
539.548	599.49
540.001	602.69
540.455	591.59
540.908	598.49
541.362	613.99
541.815	611.89
542.269	622.89
542.722	628.09
543.175	625.69
543.629	629.49
544.082	653.79
544.536	649.29
544.989	646.59
545.442	665.09
545.895	649.49
546.349	656.79
546.802	661.49
547.255	663.09
547.708	660.29
548.161	677.79
548.614	677.99
549.067	687.79
549.52	671.69
549.973	668.59
550.426	670.39
550.879	654.69
551.332	667.69
551.785	666.49
552.238	654.19
552.691	665.69
553.144	676.29
553.596	689.69
554.049	700.69
554.502	727.39
554.955	743.69
555.407	734.59
555.86	731.19
556.313	734.59
556.765	710.49
557.218	714.59
557.67	717.19
558.123	709.89
558.576	705.69
559.028	713.49
559.48	718.89
559.933	720.39
560.385	677.59
560.838	661.69
561.29	631.89
561.742	626.89
562.195	616.59
562.647	625.29
563.099	621.19
563.551	624.79
564.004	623.19
564.456	613.69
564.908	605.69
565.36	594.29
565.812	585.89
566.264	578.59
566.716	577.09
567.168	574.79
567.62	579.59
568.072	569.19
568.524	559.89
568.976	547.79
569.428	531.99
569.88	537.99
570.332	539.19
570.784	540.79
571.235	541.29
571.687	547.69
572.139	562.39
572.59	567.19
573.042	566.69
573.494	574.79
573.945	562.89
574.397	545.69
574.849	543.39
575.3	542.09
575.752	539.49
576.203	530.79
576.655	539.49
577.106	526.39
577.557	524.59
578.009	529.99
578.46	526.89
578.912	513.99
579.363	520.79
579.814	528.89
580.265	514.29
580.717	522.69
581.168	528.79
581.619	539.09
582.07	534.39
582.521	520.89
582.972	528.09
583.423	540.19
583.875	533.49
584.326	554.59
584.777	588.49
585.227	646.19
585.678	716.89
586.129	786.79
586.58	849.49
587.031	925.39
587.482	1063.29
587.933	1209.19
588.384	1039.19
588.834	770.39
589.285	625.69
589.736	612.49
590.186	606.19
590.637	607.39
591.088	588.09
591.538	572.49
591.989	574.49
592.439	563.79
592.89	558.79
593.34	541.29
593.791	547.79
594.241	545.49
594.692	548.59
595.142	537.89
595.593	534.49
596.043	547.29
596.493	539.09
596.943	559.29
597.394	551.19
597.844	548.59
598.294	568.59
598.744	579.09
599.195	593.99
599.645	628.19
600.095	651.49
600.545	689.79
600.995	747.29
601.445	774.59
601.895	836.89
602.345	883.89
602.795	863.29
603.245	827.19
603.695	765.19
604.145	729.09
604.594	713.89
605.044	670.29
605.494	611.69
605.944	580.69
606.393	558.29
606.843	552.99
607.293	551.39
607.743	547.99
608.192	572.99
608.642	586.59
609.091	585.89
609.541	580.79
609.99	585.99
610.44	576.29
610.889	552.29
611.339	541.79
611.788	522.69
612.238	536.29
612.687	537.59
613.136	549.39
613.586	557.39
614.035	551.99
614.484	571.09
614.933	566.49
615.383	559.89
615.832	558.89
616.281	540.79
616.73	520.79
617.179	507.79
617.628	505.49
618.077	482.89
618.526	469.49
618.975	462.79
619.424	464.29
619.873	465.79
620.322	476.49
620.771	455.49
621.22	457.29
621.669	442.19
622.118	439.09
622.567	431.49
623.015	427.59
623.464	428.79
623.913	415.49
624.361	423.99
624.81	421.19
625.259	419.49
625.707	420.89
626.156	415.49
626.604	420.59
627.053	418.49
627.501	415.79
627.95	422.59
628.398	431.79
628.847	424.39
629.295	422.39
629.744	425.79
630.192	424.49
630.64	425.69
631.089	431.79
631.537	431.29
631.985	420.59
632.433	434.29
632.881	433.69
633.33	462.79
633.778	456.89
634.226	411.69
634.674	421.99
635.122	418.69
635.57	430.79
636.018	459.29
636.466	425.19
636.914	402.89
637.362	421.79
637.81	430.19
638.258	429.69
638.705	422.79
639.153	451.39
639.601	453.59
640.049	474.99
640.497	500.29
640.944	511.29
641.392	475.59
641.84	453.49
642.287	426.79
642.735	423.39
643.182	423.89
643.63	421.19
644.078	429.79
644.525	444.09
644.973	445.79
645.42	447.79
645.867	451.19
646.315	470.29
646.762	490.79
647.21	508.09
647.657	521.89
648.104	552.09
648.551	564.69
648.999	612.59
649.446	665.09
649.893	727.89
650.34	844.69
650.787	1004.59
651.234	1239.59
651.682	1589.59
652.129	2179.19
652.576	3129.09
653.023	4654.39
653.47	6470.39
653.917	8165.39
654.363	9677.59
654.81	10961.89
655.257	10400.59
655.704	6754.89
656.151	3933.49
656.598	2533.09
657.044	1791.59
657.491	1378.49
657.938	1096.19
658.385	931.89
658.831	787.59
659.278	712.79
659.724	621.89
660.171	581.09
660.618	526.09
661.064	500.19
661.511	474.79
661.957	469.89
662.404	457.39
662.85	459.39
663.296	445.79
663.743	398.39
664.189	393.89
664.635	386.09
665.082	387.39
665.528	386.69
665.974	367.09
666.42	369.29
666.867	371.09
667.313	352.79
667.759	353.69
668.205	346.39
668.651	353.79
669.097	355.79
669.543	361.29
669.989	332.69
670.435	329.99
670.881	326.39
671.327	327.69
671.773	342.39
672.219	361.09
672.665	390.99
673.11	420.49
673.556	450.69
674.002	496.59
674.448	482.79
674.893	402.59
675.339	354.09
675.785	311.49
676.23	305.09
676.676	288.39
677.122	277.69
677.567	271.89
678.013	267.59
678.458	262.19
678.904	259.39
679.349	243.99
679.794	250.19
680.24	249.99
680.685	253.49
681.131	250.19
681.576	252.49
682.021	252.69
682.466	254.59
682.912	242.79
683.357	244.69
683.802	273.69
684.247	290.19
684.692	326.69
685.137	353.89
685.583	383.69
686.028	416.79
686.473	377.89
686.918	320.69
687.363	303.29
687.807	279.09
688.252	257.29
688.697	249.59
689.142	241.29
689.587	240.49
690.032	237.29
690.477	243.79
690.921	247.89
691.366	279.89
691.811	287.49
692.255	310.49
692.7	323.39
693.145	359.99
693.589	484.19
694.034	797.49
694.478	1106.89
694.923	1293.09
695.367	1715.69
695.812	884.29
696.256	364.09
696.701	267.99
697.145	243.19
697.59	233.09
698.034	227.59
698.478	238.89
698.922	228.29
699.367	236.99
699.811	243.69
700.255	253.59
700.699	279.89
701.143	292.89
701.588	344.89
702.032	372.99
702.476	376.09
702.92	353.19
703.364	356.89
703.808	444.49
704.252	722.49
704.696	1028.99
705.14	1240.39
705.584	1601.79
706.027	786.79
706.471	367.79
706.915	290.39
707.359	255.09
707.803	230.79
708.246	224.99
708.69	222.69
709.134	224.89
709.577	230.19
710.021	233.99
710.465	220.09
710.908	209.99
711.352	211.19
711.795	218.59
712.239	250.69
712.682	272.29
713.126	301.89
713.569	343.09
714.012	265.99
714.456	228.19
714.899	216.39
715.342	191.49
715.786	190.99
716.229	184.39
716.672	182.39
717.115	174.69
717.558	180.39
718.002	180.29
718.445	187.89
718.888	202.49
719.331	210.89
719.774	217.69
720.217	220.19
720.66	205.19
721.103	183.39
721.546	179.29
721.989	183.49
722.432	161.79
722.874	169.69
723.317	153.49
723.76	171.89
724.203	184.19
724.645	222.39
725.088	311.89
725.531	406.69
725.974	469.89
726.416	402.99
726.859	220.69
727.301	173.39
727.744	174.89
728.187	164.89
728.629	167.89
729.071	176.89
729.514	185.59
729.956	189.89
730.399	203.49
730.841	209.89
731.283	201.39
731.726	189.99
732.168	188.19
732.61	191.49
733.053	199.89
733.495	226.39
733.937	243.69
734.379	274.79
734.821	301.09
735.263	377.19
735.705	575.89
736.148	1086.89
736.59	1849.89
737.032	2303.19
737.474	1876.29
737.916	588.69
738.357	307.49
738.799	231.89
739.241	216.39
739.683	208.49
740.125	206.69
740.567	215.99
741.008	227.39
741.45	232.39
741.892	217.29
742.334	250.99
742.775	266.69
743.217	245.89
743.658	188.89
744.1	178.29
744.542	183.69
744.983	218.09
745.425	260.09
745.866	258.29
746.307	205.99
746.749	200.39
747.19	231.49
747.632	323.29
748.073	610.29
748.514	1293.79
748.956	2060.89
749.397	2568.19
749.838	2159.19
750.279	2248.69
750.72	1103.79
751.162	400.69
751.603	229.79
752.044	178.29
752.485	153.99
752.926	143.39
753.367	147.29
753.808	133.09
754.249	138.39
754.69	130.19
755.131	126.49
755.572	127.49
756.013	127.99
756.453	134.49
756.894	137.39
757.335	130.19
757.776	146.59
758.216	133.29
758.657	142.99
759.098	145.09
759.538	163.59
759.979	188.99
760.42	256.59
760.86	475.89
761.301	1258.69
761.741	3158.59
762.182	4951.69
762.622	3496.89
763.063	981.59
763.503	400.39
763.943	250.09
764.384	245.29
764.824	297.99
765.264	333.49
765.705	223.99
766.145	153.29
766.585	135.09
767.025	128.39
767.465	128.99
767.906	168.79
768.346	231.89
768.786	249.69
769.226	194.29
769.666	228.89
770.106	422.39
770.546	1071.39
770.986	1954.99
771.426	1806.69
771.866	586.79
772.306	237.09
772.745	151.69
773.185	118.99
773.625	117.09
774.065	110.29
774.505	135.39
774.944	214.29
775.384	455.49
775.824	866.99
776.263	873.19
776.703	361.59
777.142	157.59
777.582	105.59
778.021	96.69
778.461	102.49
778.9	104.79
779.34	94.59
779.779	82.09
780.219	76.69
780.658	71.69
781.097	80.79
781.537	82.99
781.976	72.19
782.415	73.69
782.855	70.29
783.294	74.89
783.733	77.29
784.172	77.69
784.611	68.89
785.05	74.59
785.489	83.19
785.928	89.79
786.367	85.29
786.806	80.99
787.245	94.79
787.684	94.19
788.123	109.39
788.562	92.99
789.001	92.59
789.44	86.39
789.879	85.09
790.317	86.39
790.756	93.69
791.195	90.09
791.634	105.29
792.072	147.59
792.511	251.99
792.95	697.89
793.388	1577.39
793.827	1489.29
794.265	497.69
794.704	202.49
795.142	137.59
795.581	112.09
796.019	94.79
796.458	86.19
796.896	84.29
797.334	90.39
797.773	114.49
798.211	154.09
798.649	296.69
799.087	727.59
799.526	1165.09
799.964	1465.89
800.402	1549.59
800.84	569.49
801.278	210.69
801.716	136.29
802.154	111.79
802.592	107.19
803.03	96.29
803.468	91.39
803.906	102.89
804.344	110.59
804.782	104.39
805.22	98.49
805.658	99.19
806.096	110.39
806.533	116.89
806.971	124.19
807.409	153.19
807.847	222.09
808.284	457.39
808.722	1319.59
809.16	2482.59
809.597	2266.39
810.035	4063.49
810.472	4583.09
810.91	1618.59
811.347	592.89
811.785	300.89
812.222	191.29
812.66	139.09
813.097	119.59
813.535	99.49
813.972	93.59
814.409	91.59
814.846	75.99
815.284	85.69
815.721	73.69
816.158	76.69
816.595	76.99
817.032	128.39
817.47	149.39
817.907	125.79
818.344	112.09
818.781	85.59
819.218	74.19
819.655	94.89
820.092	138.09
820.529	163.19
820.966	135.99
821.403	101.69
821.839	74.79
822.276	77.09
822.713	89.29
823.15	99.89
823.587	86.49
824.023	98.99
824.46	204.19
824.897	637.69
825.333	1023.89
825.77	441.99
826.206	171.09
826.643	92.99
827.08	69.79
827.516	61.79
827.953	51.89
828.389	61.59
828.825	55.29
829.262	48.89
829.698	39.79
830.135	49.09
830.571	43.29
831.007	44.59
831.443	51.19
831.88	44.29
832.316	44.09
832.752	48.69
833.188	47.59
833.624	50.99
834.06	50.19
834.497	45.79
834.933	53.29
835.369	54.79
835.805	49.79
836.241	50.49
836.677	52.29
837.112	62.19
837.548	76.29
837.984	98.19
838.42	138.89
838.856	353.29
839.292	1097.99
839.727	1782.39
840.163	810.79
840.599	660.59
841.034	1513.29
841.47	1656.29
841.906	594.29
842.341	243.19
842.777	158.69
843.212	222.39
843.648	222.59
844.083	107.19
844.519	65.69
844.954	58.09
845.39	37.19
845.825	41.19
846.261	38.79
846.696	38.59
847.131	35.39
847.566	46.69
848.002	34.69
848.437	38.99
848.872	39.49
849.307	46.89
849.742	56.99
850.177	123.19
850.613	401.59
851.048	662.69
851.483	291.39
851.918	108.89
852.353	65.39
852.788	35.79
853.223	43.19
853.657	39.09
854.092	35.99
854.527	27.19
854.962	26.99
855.397	32.49
855.832	34.39
856.266	31.09
856.701	25.79
857.136	29.59
857.57	28.19
858.005	43.19
858.44	48.29
858.874	33.49
859.309	37.69
859.743	28.59
860.178	38.99
860.612	31.39
861.047	41.79
861.481	54.99
861.915	48.79
862.35	37.99
862.784	27.79
863.218	29.89
863.653	19.29
864.087	33.79
864.521	40.79
864.955	48.29
865.39	110.49
865.824	127.39
866.258	82.89
866.692	126.09
867.126	142.79
867.56	83.79
867.994	38.29
868.428	28.99
868.862	33.99
869.296	41.39
869.73	48.79
870.164	42.49
870.598	30.19
871.031	28.49
871.465	15.49
871.899	23.29
872.333	16.99
872.766	17.39
873.2	17.59
873.634	17.19
874.067	17.09
874.501	23.49
874.935	31.09
875.368	26.09
875.802	20.99
876.235	14.99
876.669	16.29
877.102	12.69
877.535	21.29
877.969	11.49
878.402	17.39
878.836	17.39
879.269	17.89
879.702	22.99
880.135	13.19
880.569	13.59
881.002	18.69
881.435	11.29
881.868	13.69
882.301	13.09
882.734	10.29
883.167	13.79
883.601	13.29
884.034	14.69
884.467	6.89
884.899	16.49
885.332	12.59
885.765	11.49
886.198	11.29
886.631	17.59
887.064	9.09
887.497	17.29
887.929	21.39
888.362	14.59
888.795	3.69
889.228	10.29
889.66	11.09
890.093	14.39
890.526	12.79
890.958	10.59
891.391	15.99
891.823	16.99
892.256	14.89
892.688	8.89
893.121	15.09
893.553	12.09
893.985	17.09
894.418	16.09
894.85	9.49
895.282	12.69
895.715	13.99
896.147	14.19
896.579	13.59
897.011	13.49
897.444	16.39
897.876	6.89
898.308	10.79
898.74	7.79
899.172	7.79
899.604	14.79
900.036	16.99
900.468	10.19
900.9	12.49
901.332	12.99
901.764	5.29
902.196	14.49
902.628	6.19
903.06	7.59
903.491	23.89
903.923	21.49
904.355	8.99
904.787	16.79
905.218	14.79
905.65	11.79
906.082	6.59
906.513	10.09
906.945	12.89
907.376	11.09
907.808	12.69
908.239	15.29
908.671	18.99
909.102	14.49
909.534	18.19
909.965	33.39
910.397	72.99
910.828	239.19
911.259	364.89
911.691	163.99
912.122	78.99
912.553	34.59
912.984	26.99
913.415	21.49
913.847	22.69
914.278	10.39
914.709	8.69
915.14	10.59
915.571	10.09
916.002	4.49
916.433	14.49
916.864	5.89
917.295	6.79
917.726	25.09
918.157	7.89
918.587	19.79
919.018	16.69
919.449	13.19
919.88	15.99
920.311	25.29
920.741	28.29
921.172	123.49
921.603	117.29
922.033	50.09
922.464	33.49
922.895	13.79
923.325	20.29
923.756	4.59
924.186	15.39
924.617	21.69
925.047	25.99
925.478	33.89
925.908	33.69
926.338	19.79
926.769	13.49
927.199	13.39
927.629	4.59
928.06	13.89
928.49	11.69
928.92	11.49
929.35	11.29
929.78	6.89
930.21	-0.41
930.641	4.39
931.071	4.49
931.501	3.19
931.931	11.89
932.361	7.89
932.791	-1.01
933.221	2.49
933.651	6.09
934.08	15.19
934.51	22.49
934.94	6.59
935.37	5.19
935.8	8.69
936.229	1.49
936.659	9.49
937.089	-3.91
937.519	9.69
937.948	17.39
938.378	8.99
938.807	0.39
939.237	-1.11
939.666	9.99
940.096	-3.51
940.525	1.89
940.955	5.79
941.384	3.29
941.814	-5.71
942.243	-2.21
942.672	7.39
943.102	-0.21
943.531	1.39
943.96	0.79
944.39	3.89
944.819	2.49
945.248	6.09
945.677	2.99
946.106	5.49
946.535	2.89
946.964	1.39
947.393	7.29
947.822	-2.41
948.251	-7.41
948.68	1.39
949.109	6.79
949.538	5.09
949.967	-3.01
950.396	-0.51
950.825	-0.21
951.254	2.29
951.682	-6.71
952.111	5.69
952.54	0.99
952.969	-2.41
953.397	-10.61
953.826	-3.11
954.254	-11.21
954.683	-3.41
955.112	-3.81
955.54	0.89
955.969	1.19
956.397	0.19
956.826	-5.81
957.254	2.29
957.682	1.19
958.111	5.09
958.539	0.29
958.967	-0.41
959.396	0.59
959.824	1.59
960.252	3.89
960.68	-4.11
961.109	-1.41
961.537	-2.31
961.965	3.09
962.393	3.69
962.821	-2.51
963.249	-0.91
963.677	6.89
964.105	2.39
964.533	31.49
964.961	29.19
965.389	10.59
965.817	3.09
966.245	2.19
966.672	2.89
967.1	-9.31
967.528	3.59
967.956	-1.21
968.383	2.29
968.811	-3.01
969.239	-5.21
969.666	-2.61
970.094	4.19
970.522	0.99
970.949	-2.81
971.377	-4.91
971.804	-1.91
972.232	-2.01
972.659	1.99
973.087	1.39
973.514	-1.91
973.941	-2.61
974.369	3.09
974.796	3.19
975.223	-0.61
975.651	0.49
976.078	8.09
976.505	-1.51
976.932	1.99
977.359	8.79
977.786	8.89
978.214	0.59
978.641	-6.51
979.068	-7.21
979.495	-1.71
979.922	-4.71
980.349	-1.51
980.776	5.49
981.202	-1.51
981.629	1.49
982.056	0.59
982.483	-5.81
982.91	5.09
983.337	-8.51
983.763	5.79
984.19	-5.31
984.617	-4.61
985.043	-7.31
985.47	-3.31
985.897	-4.91
986.323	-4.01
986.75	3.89
987.176	-2.01
987.603	-3.91
988.029	-0.61
988.456	2.29
988.882	6.09
989.308	-4.21
989.735	-0.41
990.161	-8.01
990.587	-12.61
991.014	1.19
991.44	5.29
991.866	-1.51
992.292	-0.01
992.719	4.69
993.145	2.19
993.571	-6.51
993.997	-7.51
994.423	-0.01
994.849	-7.01
995.275	-0.01
995.701	-1.51
996.127	-6.91
996.553	5.49
996.979	-2.81
997.405	2.89
997.83	-3.51
998.256	-6.61
998.682	-1.81
999.108	-3.61
999.534	5.39
999.959	-5.71
1000.385	-5.01
1000.811	-0.11
1001.236	-10.51
1001.662	-9.31
1002.087	-10.91
1002.513	3.89
1002.938	1.59
1003.364	-3.41
1003.789	3.59
1004.215	0.79
1004.64	-2.21
1005.066	-0.61
1005.491	-2.51
1005.916	-5.21
1006.342	-7.01
1006.767	-8.21
1007.192	5.99
1007.617	-3.41
1008.042	-5.61
1008.468	-6.41
1008.893	-1.71
1009.318	-4.31
1009.743	1.99
1010.168	4.59
1010.593	-8.11
1011.018	-7.81
1011.443	0.99
1011.868	-3.31
1012.293	1.09
1012.718	-5.11
1013.143	-2.81
1013.567	6.69
1013.992	-2.51
1014.417	-11.51
1014.842	1.59
1015.267	-5.81
1015.691	-8.31
1016.116	0.79
1016.541	1.79
1016.965	2.19
1017.39	-0.81
1017.814	-1.51
1018.239	-4.51
1018.663	-6.91
1019.088	-14.11
1019.512	-1.11
1019.937	-4.61
1020.361	-2.11
1020.785	-12.81
1021.21	-5.21
1021.634	0.99
1022.058	-1.81
1022.483	1.49
1022.907	2.89
1023.331	-4.71
1023.755	4.69
1024.179	-3.81
1024.604	-5.61
1025.028	-8.11
1025.452	-3.11
1025.876	-1.01
1026.3	-1.01
1026.724	-8.91
1027.148	-5.51
1027.572	-7.41
1027.996	-4.11
1028.42	0.19
1028.843	-2.01
1029.267	-6.01
1029.691	-2.11
1030.115	-2.81
1030.539	-13.81
1030.962	-4.01
1031.386	-8.01
1031.81	4.79
1032.233	9.69
1032.657	-4.41
1033.08	-4.31
1033.504	-3.41
1033.927	-0.91
1034.351	4.79
1034.774	-3.61
1035.198	-5.91
1035.621	-3.41
1036.045	-6.21
1036.468	2.79
1036.891	-5.71
1037.315	-12.21
1037.738	-4.21
1038.161	-0.01
1038.584	-8.51
1039.008	-1.91
1039.431	-2.11
1039.854	-6.01
1040.277	-8.51
1040.7	-9.11
1041.123	4.29
1041.546	-5.31
1041.969	-6.11
1042.392	-3.41
1042.815	3.69
1043.238	-1.81
1043.661	-0.91
1044.084	-10.71
1044.507	-0.31
1044.93	-8.41
1045.352	-2.71
1045.775	1.39
1046.198	-4.71
1046.621	-4.81
1047.043	1.69
1047.466	6.09
1047.889	-3.61
1048.311	-4.31
1048.734	-5.21
1049.156	-1.11
1049.579	-3.21
1050.001	-0.11
1050.424	-1.81
1050.846	0.19
1051.269	-0.61
1051.691	-6.61
1052.113	0.99
1052.536	-3.61
1052.958	0.49
1053.38	-5.01
1053.802	-10.91
1054.225	-3.91
1054.647	-12.91
1055.069	-2.11
1055.491	1.19
1055.913	-3.01
1056.335	-2.41
1056.757	-0.91
1057.179	-11.81
1057.601	1.09
1058.023	2.49
1058.445	-5.11
1058.867	-4.81
1059.289	-5.81
1059.711	-8.91
1060.133	-4.61
1060.555	-6.31
1060.976	-8.11
1061.398	-5.71
1061.82	-2.21
1062.241	-1.21
1062.663	-8.91
1063.085	-2.11
1063.506	3.29
1063.928	-1.81
1064.35	3.59
1064.771	-13.51
1065.193	-6.11
1065.614	-12.21
1066.035	-0.91
1066.457	2.79
1066.878	1.29
1067.3	-4.11
1067.721	-0.21
1068.142	0.09
1068.564	-6.91
1068.985	-1.61
1069.406	-3.01
1069.827	-2.71
1070.248	-1.71
1070.67	-1.71
1071.091	-2.71
1071.512	-6.51
1071.933	-5.11
1072.354	-9.71
1072.775	-7.31
1073.196	-6.11
1073.617	-5.91
1074.038	-5.81
1074.459	-5.11
1074.88	-9.81
1075.3	3.99
1075.721	2.69
1076.142	4.29
1076.563	-6.11
1076.983	-10.61
1077.404	-6.31
1077.825	-6.71
1078.246	-8.21
1078.666	-7.61
1079.087	-5.51
1079.507	-3.01
1079.928	0.99
1080.348	-1.91
1080.769	-4.51
1081.189	2.59
1081.61	-1.11
1082.03	-2.31
1082.451	-9.51
1082.871	-2.61
1083.291	-6.11
1083.711	-2.41
1084.132	-8.61
1084.552	-6.01
1084.972	-2.91
1085.392	-12.61
1085.813	-5.71
1086.233	-3.31
1086.653	-3.01
1087.073	-5.31
1087.493	-6.31
1087.913	-7.91
1088.333	-5.51
1088.753	0.29
1089.173	3.59
1089.593	-5.71
1090.013	-4.21
1090.433	6.69
1090.852	-3.41
1091.272	-2.41
1091.692	-4.91
1092.112	-6.51
1092.531	-10.51
1092.951	-9.81
1093.371	-2.01
1093.79	1.19
1094.21	-0.51
1094.63	-6.51
1095.049	-3.71
1095.469	2.39
1095.888	-8.91
1096.308	-3.81
1096.727	1.29
1097.146	-5.91
1097.566	10.69
1097.985	-1.91
1098.405	-3.01
1098.824	-6.71
1099.243	-3.61
1099.662	-7.91
1100.082	-7.51
1100.501	-3.11
1100.92	-7.41
1101.339	-3.91
1101.758	-2.11
