Data from 20171114-ORNL-Ar_H_NY_Subt18_08-04-11-616.txt Node
Date: Tue Nov 14 08:04:11 EST 2017
User: Ender
Spectrometer: HR+D1039
Trigger mode: 0
Integration Time (sec): 2.730000E-2
Scans to average: 10
Electric dark correction enabled: true
Nonlinearity correction enabled: false
Boxcar width: 0
XAxis mode: Wavelengths
Number of Pixels in Spectrum: 2048
>>>>>Begin Spectral Data<<<<<
187.836	0.73
188.309	0.73
188.782	0.73
189.255	0.83
189.728	1.43
190.201	5.03
190.674	4.63
191.147	2.03
191.619	-5.17
192.092	-1.37
192.565	4.23
193.038	0.03
193.511	-1.77
193.984	-0.17
194.456	-4.27
194.929	-2.57
195.402	-2.07
195.874	-1.57
196.347	-6.27
196.82	-5.77
197.292	8.03
197.765	2.83
198.237	-5.97
198.71	1.53
199.182	-5.47
199.655	5.63
200.127	4.63
200.6	-7.17
201.072	1.73
201.544	-5.37
202.017	1.13
202.489	6.03
202.961	-4.27
203.433	-0.07
203.906	-6.77
204.378	-6.07
204.85	-2.47
205.322	-5.97
205.794	-0.37
206.266	-5.87
206.739	-12.57
207.211	6.53
207.683	-4.57
208.155	-3.77
208.627	-3.87
209.099	-1.57
209.57	-10.77
210.042	-8.27
210.514	-3.37
210.986	-0.27
211.458	-6.07
211.93	-3.17
212.402	1.63
212.873	-8.37
213.345	-6.97
213.817	-7.87
214.288	-1.27
214.76	-11.47
215.232	-0.77
215.703	-4.87
216.175	-2.57
216.646	-0.37
217.118	-4.07
217.589	0.03
218.061	-2.57
218.532	-7.27
219.004	-4.27
219.475	-1.17
219.946	-1.37
220.418	-3.97
220.889	0.63
221.36	5.13
221.832	-3.07
222.303	-7.47
222.774	-3.07
223.245	-6.27
223.717	-0.77
224.188	0.03
224.659	-7.47
225.13	-2.57
225.601	2.93
226.072	2.03
226.543	1.23
227.014	-0.67
227.485	-4.17
227.956	-1.37
228.427	-2.57
228.898	0.93
229.369	3.33
229.839	-7.87
230.31	-4.27
230.781	1.03
231.252	3.33
231.722	-2.47
232.193	1.93
232.664	-1.47
233.135	7.33
233.605	1.03
234.076	-4.27
234.546	-4.37
235.017	1.33
235.487	0.03
235.958	0.23
236.428	2.23
236.899	9.43
237.369	7.93
237.84	-4.27
238.31	5.63
238.78	10.23
239.251	4.03
239.721	4.63
240.191	-0.17
240.662	3.13
241.132	-2.67
241.602	-0.17
242.072	2.73
242.542	5.63
243.013	2.13
243.483	1.23
243.953	0.93
244.423	4.03
244.893	-1.07
245.363	1.63
245.833	4.33
246.303	2.53
246.773	11.13
247.243	0.83
247.712	7.63
248.182	4.63
248.652	4.53
249.122	-1.27
249.592	11.03
250.061	20.53
250.531	25.63
251.001	16.23
251.471	17.43
251.94	16.13
252.41	4.63
252.879	-0.47
253.349	16.43
253.818	11.33
254.288	5.73
254.757	10.43
255.227	1.23
255.696	5.43
256.166	3.33
256.635	3.93
257.105	7.03
257.574	8.83
258.043	4.93
258.513	11.93
258.982	14.53
259.451	9.13
259.92	14.33
260.389	13.73
260.859	14.73
261.328	13.73
261.797	19.43
262.266	7.93
262.735	13.63
263.204	5.83
263.673	1.83
264.142	1.43
264.611	-4.17
265.08	3.03
265.549	2.93
266.018	4.93
266.487	-1.77
266.955	-0.17
267.424	-1.57
267.893	15.63
268.362	2.33
268.83	4.73
269.299	18.83
269.768	7.73
270.236	4.53
270.705	-1.17
271.174	7.13
271.642	8.33
272.111	7.93
272.579	16.43
273.048	21.63
273.516	17.83
273.985	25.73
274.453	27.23
274.922	20.43
275.39	11.53
275.858	0.13
276.327	9.13
276.795	20.83
277.263	8.13
277.731	25.73
278.2	41.23
278.668	46.33
279.136	38.93
279.604	20.93
280.072	7.33
280.54	8.33
281.008	6.13
281.477	9.03
281.945	10.63
282.413	13.43
282.881	12.23
283.348	8.93
283.816	16.63
284.284	14.63
284.752	17.43
285.22	7.63
285.688	13.83
286.156	14.73
286.623	37.63
287.091	40.63
287.559	23.93
288.026	14.03
288.494	13.73
288.962	7.43
289.429	5.53
289.897	17.53
290.364	8.13
290.832	15.73
291.3	9.23
291.767	13.13
292.234	13.93
292.702	13.93
293.169	16.43
293.637	19.53
294.104	15.43
294.571	5.63
295.039	4.03
295.506	9.33
295.973	15.63
296.44	13.53
296.908	15.93
297.375	11.53
297.842	12.63
298.309	15.73
298.776	11.43
299.243	15.93
299.71	13.33
300.177	13.33
300.644	21.33
301.111	21.63
301.578	19.03
302.045	11.63
302.512	21.53
302.979	20.83
303.446	24.93
303.913	7.43
304.379	23.13
304.846	22.33
305.313	19.93
305.78	19.83
306.246	26.83
306.713	21.83
307.18	23.63
307.646	21.43
308.113	24.83
308.579	17.53
309.046	22.43
309.512	24.93
309.979	15.33
310.445	20.53
310.912	21.73
311.378	25.93
311.845	22.33
312.311	24.93
312.777	27.53
313.244	27.23
313.71	39.83
314.176	29.93
314.642	23.23
315.109	26.13
315.575	32.23
316.041	29.43
316.507	31.53
316.973	37.53
317.439	28.73
317.905	29.93
318.371	27.33
318.837	28.83
319.303	26.43
319.769	23.43
320.235	27.23
320.701	25.03
321.167	30.53
321.633	28.63
322.099	28.83
322.564	44.73
323.03	34.03
323.496	32.13
323.962	29.93
324.427	31.93
324.893	39.93
325.359	32.13
325.824	30.73
326.29	27.63
326.755	29.83
327.221	31.23
327.686	34.83
328.152	37.93
328.617	35.63
329.083	38.43
329.548	43.73
330.014	38.23
330.479	31.53
330.944	32.63
331.41	38.63
331.875	38.63
332.34	42.73
332.805	33.13
333.271	36.13
333.736	36.83
334.201	40.13
334.666	48.83
335.131	44.73
335.596	36.53
336.061	47.03
336.526	35.53
336.991	39.73
337.456	44.03
337.921	41.43
338.386	39.43
338.851	43.03
339.316	36.33
339.781	38.63
340.246	41.83
340.711	43.23
341.175	48.93
341.64	35.83
342.105	44.33
342.569	51.13
343.034	52.03
343.499	46.33
343.963	46.03
344.428	57.93
344.893	53.63
345.357	50.33
345.822	53.33
346.286	57.63
346.751	54.03
347.215	53.63
347.679	54.73
348.144	74.43
348.608	69.73
349.073	58.73
349.537	63.83
350.001	63.63
350.465	77.63
350.93	67.63
351.394	69.23
351.858	60.53
352.322	72.63
352.786	63.13
353.25	80.03
353.715	87.33
354.179	82.73
354.643	97.33
355.107	101.43
355.571	94.73
356.035	81.03
356.498	97.93
356.962	103.93
357.426	104.93
357.89	92.93
358.354	71.83
358.818	71.73
359.281	64.53
359.745	64.13
360.209	68.63
360.673	61.63
361.136	71.73
361.6	72.13
362.064	71.63
362.527	71.03
362.991	74.73
363.454	68.63
363.918	66.93
364.381	62.73
364.845	68.83
365.308	79.03
365.772	71.13
366.235	71.63
366.698	75.73
367.162	73.03
367.625	73.83
368.088	76.03
368.552	76.53
369.015	74.83
369.478	86.93
369.941	83.93
370.404	83.93
370.867	89.53
371.331	91.23
371.794	97.13
372.257	95.83
372.72	102.63
373.183	97.63
373.646	92.53
374.109	87.33
374.572	93.33
375.035	92.33
375.497	94.73
375.96	97.13
376.423	93.53
376.886	98.03
377.349	93.53
377.811	85.33
378.274	96.33
378.737	94.83
379.199	95.23
379.662	101.43
380.125	102.83
380.587	106.23
381.05	113.03
381.512	115.13
381.975	121.93
382.437	109.73
382.9	108.23
383.362	117.83
383.825	122.53
384.287	129.03
384.75	123.83
385.212	123.73
385.674	122.53
386.136	122.13
386.599	113.53
387.061	117.83
387.523	110.33
387.985	121.93
388.447	126.83
388.91	117.73
389.372	134.73
389.834	135.63
390.296	132.13
390.758	134.93
391.22	144.63
391.682	176.43
392.144	253.73
392.606	194.53
393.068	151.03
393.529	144.03
393.991	136.03
394.453	127.13
394.915	137.23
395.377	166.23
395.838	186.73
396.3	138.23
396.762	129.83
397.224	116.13
397.685	119.13
398.147	115.73
398.608	119.33
399.07	116.13
399.531	120.73
399.993	126.93
400.454	131.73
400.916	126.13
401.377	128.13
401.839	126.73
402.3	132.83
402.762	145.23
403.223	157.93
403.684	152.83
404.145	141.43
404.607	139.53
405.068	141.13
405.529	141.83
405.99	158.33
406.451	151.13
406.913	148.53
407.374	143.13
407.835	139.33
408.296	151.93
408.757	150.73
409.218	163.63
409.679	154.23
410.14	155.53
410.601	159.33
411.062	162.03
411.522	166.43
411.983	170.03
412.444	153.33
412.905	163.43
413.366	155.83
413.826	170.63
414.287	183.43
414.748	224.93
415.208	220.03
415.669	191.63
416.13	178.83
416.59	178.93
417.051	181.43
417.511	190.33
417.972	212.33
418.432	224.03
418.893	251.73
419.353	228.23
419.814	173.43
420.274	161.33
420.734	161.13
421.195	175.73
421.655	171.33
422.115	171.93
422.576	175.23
423.036	172.73
423.496	187.73
423.956	193.23
424.416	202.33
424.876	235.83
425.336	219.73
425.797	224.03
426.257	228.03
426.717	208.13
427.177	203.53
427.637	199.83
428.097	205.33
428.556	219.33
429.016	238.23
429.476	225.43
429.936	233.93
430.396	234.83
430.856	259.43
431.315	282.93
431.775	313.83
432.235	330.33
432.694	305.03
433.154	317.23
433.614	331.23
434.073	286.33
434.533	247.03
434.993	226.93
435.452	249.43
435.912	252.83
436.371	251.53
436.83	246.93
437.29	234.43
437.749	210.53
438.209	218.13
438.668	234.63
439.127	242.03
439.587	229.13
440.046	213.23
440.505	222.03
440.964	231.93
441.424	272.73
441.883	256.83
442.342	224.43
442.801	189.13
443.26	195.83
443.719	201.33
444.178	193.63
444.637	181.33
445.096	190.93
445.555	192.43
446.014	192.83
446.473	199.93
446.932	200.93
447.391	200.03
447.849	198.53
448.308	192.63
448.767	195.93
449.226	205.33
449.685	211.73
450.143	220.33
450.602	205.63
451.061	194.93
451.519	206.73
451.978	211.43
452.436	206.73
452.895	208.43
453.353	217.23
453.812	218.23
454.27	212.43
454.729	208.43
455.187	208.73
455.646	211.93
456.104	209.53
456.562	224.83
457.021	226.63
457.479	219.83
457.937	233.53
458.395	230.13
458.854	221.73
459.312	217.43
459.77	231.23
460.228	222.43
460.686	215.23
461.144	222.23
461.602	220.93
462.06	209.73
462.518	221.13
462.976	227.63
463.434	229.23
463.892	239.83
464.35	234.13
464.808	253.43
465.266	238.93
465.724	236.53
466.181	247.43
466.639	241.43
467.097	252.03
467.555	266.73
468.012	264.93
468.47	273.73
468.928	279.73
469.385	300.63
469.843	296.33
470.3	301.03
470.758	312.13
471.215	330.23
471.673	343.73
472.13	345.93
472.588	353.43
473.045	315.63
473.503	330.13
473.96	348.53
474.417	358.73
474.875	377.03
475.332	413.53
475.789	404.13
476.246	407.43
476.704	423.03
477.161	452.73
477.618	454.43
478.075	485.83
478.532	535.83
478.989	596.93
479.446	682.63
479.903	663.53
480.36	715.83
480.817	752.53
481.274	853.43
481.731	945.33
482.188	1031.73
482.645	1148.53
483.102	1240.63
483.558	1355.13
484.015	1415.23
484.472	1395.53
484.929	1346.13
485.385	1318.43
485.842	1268.43
486.299	1208.63
486.755	1135.93
487.212	955.43
487.668	810.93
488.125	753.83
488.582	688.73
489.038	654.03
489.494	620.73
489.951	599.03
490.407	589.43
490.864	575.33
491.32	568.93
491.776	559.83
492.233	561.33
492.689	526.03
493.145	531.73
493.602	520.83
494.058	538.13
494.514	540.13
494.97	551.43
495.426	557.63
495.882	533.83
496.338	540.03
496.794	545.43
497.251	536.33
497.707	561.23
498.163	562.33
498.618	556.63
499.074	560.63
499.53	584.53
499.986	584.13
500.442	560.13
500.898	546.73
501.354	541.93
501.809	551.33
502.265	563.43
502.721	577.03
503.177	585.03
503.632	581.53
504.088	586.83
504.543	607.73
504.999	606.23
505.455	567.53
505.91	549.63
506.366	552.03
506.821	544.53
507.277	548.43
507.732	543.53
508.187	545.53
508.643	545.03
509.098	556.13
509.553	559.23
510.009	581.33
510.464	579.53
510.919	603.63
511.375	596.23
511.83	610.13
512.285	621.23
512.74	657.83
513.195	675.63
513.65	662.83
514.105	674.93
514.56	665.73
515.015	693.33
515.47	694.93
515.925	688.33
516.38	696.63
516.835	692.83
517.29	671.63
517.745	665.53
518.2	660.13
518.655	649.63
519.109	652.33
519.564	645.73
520.019	642.73
520.474	623.53
520.928	633.43
521.383	628.33
521.838	618.33
522.292	612.43
522.747	614.33
523.201	606.43
523.656	601.43
524.11	603.03
524.565	594.73
525.019	598.03
525.474	599.93
525.928	596.13
526.382	599.83
526.837	611.93
527.291	608.93
527.745	595.73
528.2	601.23
528.654	593.63
529.108	588.73
529.562	600.93
530.016	592.73
530.47	593.03
530.925	592.43
531.379	598.53
531.833	604.03
532.287	603.43
532.741	603.83
533.195	605.83
533.649	617.53
534.103	616.53
534.556	609.03
535.01	613.33
535.464	601.53
535.918	621.23
536.372	623.83
536.826	621.23
537.279	605.13
537.733	613.43
538.187	605.73
538.64	612.53
539.094	613.13
539.548	637.63
540.001	609.53
540.455	620.23
540.908	618.83
541.362	625.33
541.815	649.73
542.269	647.83
542.722	647.03
543.175	652.53
543.629	657.53
544.082	671.83
544.536	670.33
544.989	669.63
545.442	668.53
545.895	672.53
546.349	670.33
546.802	668.13
547.255	668.43
547.708	680.73
548.161	692.73
548.614	699.83
549.067	703.03
549.52	691.63
549.973	691.63
550.426	680.73
550.879	673.53
551.332	675.63
551.785	675.53
552.238	679.03
552.691	685.63
553.144	693.73
553.596	709.43
554.049	725.53
554.502	752.83
554.955	769.33
555.407	768.93
555.86	762.23
556.313	743.43
556.765	737.43
557.218	741.63
557.67	742.43
558.123	735.73
558.576	727.53
559.028	742.03
559.48	749.53
559.933	733.13
560.385	694.83
560.838	682.33
561.29	654.43
561.742	647.83
562.195	642.83
562.647	646.33
563.099	646.13
563.551	643.13
564.004	654.63
564.456	639.03
564.908	639.53
565.36	633.13
565.812	610.73
566.264	607.83
566.716	599.63
567.168	598.23
567.62	599.63
568.072	588.53
568.524	581.73
568.976	575.73
569.428	562.13
569.88	550.13
570.332	563.53
570.784	561.83
571.235	559.53
571.687	571.53
572.139	586.13
572.59	593.03
573.042	600.23
573.494	586.43
573.945	583.83
574.397	568.73
574.849	568.43
575.3	570.43
575.752	557.73
576.203	560.33
576.655	569.63
577.106	555.63
577.557	548.33
578.009	555.53
578.46	543.13
578.912	543.93
579.363	538.83
579.814	549.73
580.265	547.93
580.717	544.73
581.168	549.03
581.619	558.73
582.07	562.63
582.521	554.63
582.972	544.73
583.423	553.63
583.875	560.53
584.326	578.63
584.777	612.13
585.227	684.13
585.678	746.83
586.129	835.43
586.58	886.63
587.031	973.33
587.482	1117.43
587.933	1270.93
588.384	1092.73
588.834	808.23
589.285	659.53
589.736	640.43
590.186	637.23
590.637	626.03
591.088	600.83
591.538	599.73
591.989	595.23
592.439	593.43
592.89	582.63
593.34	576.83
593.791	576.83
594.241	561.13
594.692	575.23
595.142	562.13
595.593	572.13
596.043	573.63
596.493	577.63
596.943	577.13
597.394	581.93
597.844	568.03
598.294	587.03
598.744	601.43
599.195	618.83
599.645	653.53
600.095	688.03
600.545	729.13
600.995	777.13
601.445	835.33
601.895	882.33
602.345	905.63
602.795	902.43
603.245	863.63
603.695	821.13
604.145	765.23
604.594	740.53
605.044	698.73
605.494	644.83
605.944	600.83
606.393	588.93
606.843	591.43
607.293	587.33
607.743	583.73
608.192	599.93
608.642	607.33
609.091	616.33
609.541	610.23
609.99	612.13
610.44	612.53
610.889	571.13
611.339	568.33
611.788	548.73
612.238	567.63
612.687	573.63
613.136	575.53
613.586	582.43
614.035	601.23
614.484	601.73
614.933	597.73
615.383	593.43
615.832	582.93
616.281	571.83
616.73	545.03
617.179	531.63
617.628	511.63
618.077	501.33
618.526	504.73
618.975	491.83
619.424	482.73
619.873	479.73
620.322	486.53
620.771	478.03
621.22	481.53
621.669	471.23
622.118	468.03
622.567	459.23
623.015	455.63
623.464	446.63
623.913	447.43
624.361	437.63
624.81	429.13
625.259	435.33
625.707	437.43
626.156	446.63
626.604	449.43
627.053	437.93
627.501	442.73
627.95	444.33
628.398	456.63
628.847	447.23
629.295	446.63
629.744	452.93
630.192	443.13
630.64	452.33
631.089	446.83
631.537	450.43
631.985	460.23
632.433	460.23
632.881	474.13
633.33	515.13
633.778	491.63
634.226	443.53
634.674	445.63
635.122	446.83
635.57	469.53
636.018	482.13
636.466	452.73
636.914	435.13
637.362	450.03
637.81	450.33
638.258	454.33
638.705	454.33
639.153	476.83
639.601	475.03
640.049	502.53
640.497	527.53
640.944	542.73
641.392	498.13
641.84	487.53
642.287	455.83
642.735	443.43
643.182	444.93
643.63	452.63
644.078	452.63
644.525	462.43
644.973	466.33
645.42	459.73
645.867	482.93
646.315	499.13
646.762	515.93
647.21	539.53
647.657	551.53
648.104	582.83
648.551	593.83
648.999	645.73
649.446	710.43
649.893	772.83
650.34	888.63
650.787	1063.23
651.234	1312.93
651.682	1699.03
652.129	2333.13
652.576	3352.63
653.023	4991.33
653.47	6937.03
653.917	8758.33
654.363	10296.43
654.81	11664.93
655.257	11082.43
655.704	7202.23
656.151	4181.63
656.598	2702.23
657.044	1908.73
657.491	1476.93
657.938	1168.93
658.385	984.63
658.831	853.43
659.278	752.83
659.724	663.23
660.171	615.53
660.618	556.33
661.064	526.53
661.511	502.43
661.957	497.03
662.404	481.73
662.85	490.73
663.296	478.23
663.743	433.13
664.189	415.43
664.635	421.83
665.082	396.93
665.528	404.13
665.974	404.53
666.42	387.33
666.867	394.83
667.313	372.73
667.759	374.33
668.205	367.43
668.651	375.83
669.097	377.73
669.543	387.63
669.989	364.03
670.435	346.83
670.881	337.53
671.327	348.53
671.773	357.53
672.219	376.03
672.665	411.63
673.11	434.13
673.556	479.13
674.002	515.03
674.448	510.33
674.893	418.93
675.339	364.03
675.785	337.93
676.23	318.53
676.676	301.03
677.122	285.93
677.567	286.43
678.013	285.23
678.458	272.53
678.904	273.43
679.349	259.93
679.794	272.73
680.24	267.33
680.685	266.33
681.131	263.23
681.576	269.33
682.021	265.53
682.466	269.23
682.912	268.33
683.357	267.73
683.802	285.93
684.247	305.53
684.692	341.83
685.137	369.73
685.583	412.83
686.028	424.13
686.473	396.13
686.918	341.53
687.363	321.13
687.807	301.43
688.252	276.73
688.697	267.13
689.142	250.03
689.587	258.23
690.032	248.23
690.477	255.33
690.921	264.03
691.366	288.03
691.811	304.43
692.255	328.03
692.7	348.53
693.145	377.63
693.589	513.13
694.034	842.93
694.478	1157.83
694.923	1338.93
695.367	1792.33
695.812	938.93
696.256	387.43
696.701	282.63
697.145	263.53
697.59	241.03
698.034	238.43
698.478	250.03
698.922	250.43
699.367	243.03
699.811	254.23
700.255	267.83
700.699	291.43
701.143	326.53
701.588	363.93
702.032	393.13
702.476	403.13
702.92	372.33
703.364	371.03
703.808	470.73
704.252	761.23
704.696	1087.73
705.14	1302.53
705.584	1686.23
706.027	835.23
706.471	406.53
706.915	305.13
707.359	266.53
707.803	241.23
708.246	238.33
708.69	245.73
709.134	244.23
709.577	232.03
710.021	246.13
710.465	227.63
710.908	227.23
711.352	217.03
711.795	232.23
712.239	260.13
712.682	288.03
713.126	311.43
713.569	362.63
714.012	283.83
714.456	246.33
714.899	224.13
715.342	210.03
715.786	191.53
716.229	196.63
716.672	194.43
717.115	191.83
717.558	194.63
718.002	186.73
718.445	194.83
718.888	211.33
719.331	215.23
719.774	229.23
720.217	229.13
720.66	215.63
721.103	194.23
721.546	195.13
721.989	186.23
722.432	169.13
722.874	173.93
723.317	170.63
723.76	178.43
724.203	198.03
724.645	236.03
725.088	333.33
725.531	432.73
725.974	501.83
726.416	419.13
726.859	234.93
727.301	192.93
727.744	175.63
728.187	176.93
728.629	185.93
729.071	189.93
729.514	195.13
729.956	205.43
730.399	220.13
730.841	212.83
731.283	201.23
731.726	202.63
732.168	192.53
732.61	209.23
733.053	210.83
733.495	235.73
733.937	262.43
734.379	297.03
734.821	322.33
735.263	405.53
735.705	614.13
736.148	1147.93
736.59	1916.43
737.032	2410.23
737.474	1954.43
737.916	616.63
738.357	322.73
738.799	246.63
739.241	228.03
739.683	210.73
740.125	219.53
740.567	227.93
741.008	234.23
741.45	245.23
741.892	248.93
742.334	265.63
742.775	278.23
743.217	265.93
743.658	198.73
744.1	190.53
744.542	194.53
744.983	243.73
745.425	263.73
745.866	269.93
746.307	211.73
746.749	212.33
747.19	242.23
747.632	335.73
748.073	629.83
748.514	1363.03
748.956	2177.63
749.397	2732.33
749.838	2273.83
750.279	2352.13
750.72	1171.93
751.162	418.03
751.603	244.13
752.044	187.83
752.485	155.93
752.926	159.03
753.367	158.23
753.808	144.33
754.249	142.43
754.69	134.13
755.131	139.93
755.572	141.43
756.013	142.03
756.453	139.73
756.894	143.23
757.335	138.63
757.776	147.23
758.216	151.03
758.657	151.23
759.098	152.33
759.538	166.03
759.979	199.03
760.42	273.53
760.86	507.93
761.301	1321.43
761.741	3316.43
762.182	5145.33
762.622	3644.33
763.063	1017.93
763.503	415.03
763.943	263.13
764.384	257.23
764.824	310.23
765.264	350.23
765.705	237.93
766.145	157.53
766.585	144.03
767.025	136.53
767.465	138.73
767.906	177.13
768.346	249.03
768.786	261.63
769.226	202.23
769.666	240.03
770.106	444.63
770.546	1143.53
770.986	2058.63
771.426	1894.03
771.866	612.13
772.306	245.03
772.745	156.43
773.185	131.93
773.625	133.23
774.065	119.43
774.505	144.43
774.944	225.93
775.384	502.63
775.824	967.53
776.263	975.23
776.703	402.73
777.142	171.33
777.582	119.33
778.021	100.83
778.461	104.23
778.9	107.53
779.34	97.53
779.779	90.73
780.219	79.93
780.658	77.33
781.097	78.63
781.537	90.43
781.976	82.03
782.415	76.53
782.855	75.43
783.294	72.63
783.733	79.43
784.172	84.93
784.611	79.03
785.05	79.93
785.489	86.13
785.928	89.33
786.367	95.53
786.806	85.33
787.245	106.13
787.684	107.83
788.123	111.73
788.562	101.23
789.001	92.83
789.44	91.73
789.879	85.03
790.317	85.13
790.756	97.93
791.195	98.13
791.634	108.83
792.072	156.13
792.511	266.83
792.95	728.93
793.388	1646.93
793.827	1561.83
794.265	530.83
794.704	214.53
795.142	137.23
795.581	112.13
796.019	105.33
796.458	103.03
796.896	88.53
797.334	104.43
797.773	112.93
798.211	162.63
798.649	323.93
799.087	761.03
799.526	1203.13
799.964	1529.13
800.402	1613.43
800.84	592.63
801.278	221.43
801.716	138.83
802.154	115.63
802.592	110.73
803.03	110.33
803.468	98.93
803.906	109.83
804.344	109.83
804.782	104.53
805.22	97.83
805.658	95.63
806.096	111.23
806.533	119.23
806.971	128.43
807.409	166.33
807.847	228.43
808.284	486.13
808.722	1386.63
809.16	2602.13
809.597	2377.73
810.035	4227.63
810.472	4756.83
810.91	1690.23
811.347	620.53
811.785	316.13
812.222	199.13
812.66	143.83
813.097	130.43
813.535	109.13
813.972	101.23
814.409	89.43
814.846	83.03
815.284	86.93
815.721	73.73
816.158	77.03
816.595	91.03
817.032	140.33
817.47	156.63
817.907	145.33
818.344	112.93
818.781	84.73
819.218	75.43
819.655	98.63
820.092	148.43
820.529	168.83
820.966	147.03
821.403	103.53
821.839	80.43
822.276	71.63
822.713	98.43
823.15	105.03
823.587	86.73
824.023	114.43
824.46	215.43
824.897	665.53
825.333	1069.23
825.77	459.13
826.206	174.93
826.643	99.23
827.08	74.43
827.516	60.63
827.953	64.53
828.389	61.93
828.825	52.93
829.262	53.83
829.698	43.43
830.135	44.23
830.571	48.33
831.007	53.43
831.443	54.83
831.88	49.03
832.316	52.63
832.752	43.23
833.188	51.73
833.624	49.03
834.06	52.43
834.497	49.43
834.933	53.23
835.369	55.43
835.805	54.33
836.241	59.43
836.677	59.93
837.112	64.83
837.548	77.63
837.984	105.53
838.42	150.23
838.856	364.03
839.292	1153.73
839.727	1853.23
840.163	851.53
840.599	695.83
841.034	1579.53
841.47	1731.83
841.906	614.13
842.341	251.33
842.777	167.53
843.212	245.93
843.648	250.13
844.083	121.03
844.519	69.53
844.954	59.03
845.39	46.53
845.825	45.23
846.261	46.23
846.696	34.03
847.131	37.33
847.566	49.53
848.002	38.93
848.437	38.93
848.872	47.93
849.307	42.63
849.742	61.63
850.177	132.83
850.613	413.13
851.048	695.23
851.483	300.23
851.918	111.43
852.353	61.43
852.788	47.63
853.223	43.03
853.657	39.13
854.092	38.93
854.527	32.73
854.962	35.63
855.397	31.93
855.832	38.13
856.266	25.83
856.701	28.43
857.136	22.33
857.57	29.03
858.005	36.43
858.44	49.83
858.874	32.83
859.309	43.63
859.743	30.23
860.178	37.93
860.612	30.33
861.047	40.33
861.481	55.63
861.915	57.03
862.35	42.13
862.784	15.83
863.218	27.13
863.653	25.83
864.087	33.63
864.521	47.63
864.955	47.63
865.39	123.93
865.824	141.13
866.258	84.23
866.692	124.33
867.126	146.03
867.56	84.73
867.994	42.23
868.428	24.53
868.862	38.63
869.296	41.93
869.73	45.33
870.164	39.73
870.598	33.53
871.031	31.13
871.465	23.73
871.899	24.13
872.333	19.93
872.766	21.73
873.2	22.63
873.634	23.73
874.067	20.33
874.501	26.33
874.935	27.33
875.368	22.63
875.802	21.53
876.235	21.63
876.669	18.13
877.102	17.23
877.535	21.23
877.969	14.93
878.402	15.63
878.836	11.33
879.269	13.73
879.702	20.23
880.135	15.83
880.569	12.43
881.002	29.23
881.435	20.23
881.868	16.73
882.301	17.93
882.734	8.23
883.167	15.43
883.601	11.43
884.034	16.73
884.467	6.93
884.899	14.03
885.332	13.03
885.765	10.03
886.198	9.03
886.631	11.93
887.064	16.43
887.497	14.73
887.929	16.43
888.362	8.43
888.795	10.73
889.228	11.53
889.66	16.63
890.093	6.73
890.526	11.83
890.958	9.93
891.391	16.93
891.823	16.73
892.256	6.93
892.688	6.83
893.121	11.83
893.553	8.73
893.985	18.03
894.418	13.43
894.85	11.43
895.282	15.93
895.715	13.43
896.147	12.03
896.579	15.13
897.011	2.93
897.444	12.13
897.876	8.53
898.308	11.33
898.74	13.93
899.172	17.33
899.604	20.13
900.036	16.13
900.468	8.63
900.9	8.43
901.332	12.13
901.764	7.23
902.196	15.13
902.628	12.33
903.06	12.13
903.491	23.03
903.923	19.33
904.355	19.43
904.787	19.93
905.218	19.93
905.65	12.03
906.082	3.03
906.513	3.03
906.945	13.13
907.376	11.83
907.808	14.33
908.239	14.73
908.671	11.73
909.102	19.43
909.534	20.93
909.965	42.63
910.397	75.63
910.828	248.33
911.259	390.43
911.691	175.13
912.122	82.13
912.553	44.13
912.984	21.53
913.415	17.93
913.847	16.83
914.278	14.83
914.709	12.63
915.14	15.23
915.571	13.73
916.002	9.63
916.433	15.53
916.864	14.53
917.295	4.53
917.726	9.43
918.157	6.63
918.587	24.53
919.018	15.83
919.449	14.53
919.88	15.43
920.311	26.23
920.741	30.23
921.172	129.23
921.603	120.83
922.033	59.53
922.464	38.83
922.895	14.83
923.325	21.13
923.756	10.83
924.186	13.63
924.617	24.73
925.047	28.83
925.478	45.13
925.908	35.33
926.338	19.53
926.769	14.23
927.199	21.83
927.629	9.53
928.06	8.03
928.49	8.03
928.92	4.63
929.35	10.13
929.78	12.33
930.21	7.33
930.641	10.73
931.071	8.93
931.501	5.23
931.931	1.13
932.361	8.33
932.791	4.93
933.221	4.03
933.651	3.13
934.08	16.23
934.51	23.43
934.94	11.33
935.37	6.23
935.8	10.03
936.229	-1.27
936.659	4.73
937.089	-0.57
937.519	17.93
937.948	16.33
938.378	13.93
938.807	7.63
939.237	0.73
939.666	8.63
940.096	-11.77
940.525	-0.97
940.955	-0.57
941.384	4.23
941.814	-2.47
942.243	-7.37
942.672	4.23
943.102	-1.57
943.531	-6.17
943.96	2.23
944.39	6.03
944.819	4.63
945.248	-1.17
945.677	0.73
946.106	5.63
946.535	5.43
946.964	-1.37
947.393	4.43
947.822	1.43
948.251	-12.17
948.68	3.33
949.109	5.83
949.538	4.43
949.967	2.13
950.396	2.23
950.825	-0.97
951.254	1.83
951.682	-4.77
952.111	4.53
952.54	6.73
952.969	-2.17
953.397	-7.37
953.826	-0.97
954.254	-4.47
954.683	2.43
955.112	0.13
955.54	2.03
955.969	2.83
956.397	0.83
956.826	0.63
957.254	1.43
957.682	-0.87
958.111	7.53
958.539	-3.17
958.967	-0.17
959.396	-3.47
959.824	2.23
960.252	0.23
960.68	-6.47
961.109	1.23
961.537	-2.57
961.965	0.93
962.393	1.03
962.821	-4.87
963.249	2.03
963.677	2.13
964.105	6.33
964.533	30.93
964.961	36.93
965.389	20.33
965.817	5.73
966.245	5.03
966.672	2.43
967.1	-9.67
967.528	-4.77
967.956	-1.07
968.383	0.43
968.811	4.33
969.239	-5.37
969.666	0.33
970.094	-1.37
970.522	-1.97
970.949	-0.07
971.377	-9.07
971.804	0.33
972.232	-3.27
972.659	0.53
973.087	-2.07
973.514	-4.87
973.941	-0.37
974.369	3.83
974.796	2.93
975.223	-0.57
975.651	-2.17
976.078	4.03
976.505	1.13
976.932	3.43
977.359	7.13
977.786	12.53
978.214	5.23
978.641	-4.97
979.068	-0.67
979.495	-3.87
979.922	-0.77
980.349	-2.67
980.776	2.33
981.202	-6.07
981.629	3.53
982.056	4.53
982.483	-5.17
982.91	3.23
983.337	-11.47
983.763	1.03
984.19	-7.67
984.617	0.73
985.043	-1.57
985.47	-2.07
985.897	-4.37
986.323	-4.67
986.75	5.53
987.176	3.33
987.603	-3.87
988.029	2.93
988.456	-4.57
988.882	5.33
989.308	-3.97
989.735	-3.47
990.161	-0.87
990.587	-1.37
991.014	3.13
991.44	6.03
991.866	0.93
992.292	-2.37
992.719	-6.27
993.145	3.73
993.571	-5.87
993.997	-3.17
994.423	2.03
994.849	-8.67
995.275	-3.27
995.701	1.23
996.127	-1.87
996.553	0.13
996.979	-3.67
997.405	-2.47
997.83	-3.47
998.256	-4.97
998.682	-4.27
999.108	-2.87
999.534	-0.67
999.959	1.03
1000.385	-6.57
1000.811	4.63
1001.236	-8.67
1001.662	-4.27
1002.087	-12.27
1002.513	3.93
1002.938	2.03
1003.364	1.03
1003.789	-1.57
1004.215	0.73
1004.64	-4.07
1005.066	-1.77
1005.491	-1.37
1005.916	-0.77
1006.342	-1.37
1006.767	-6.07
1007.192	1.13
1007.617	-3.07
1008.042	-6.67
1008.468	-5.67
1008.893	-3.07
1009.318	-5.27
1009.743	-2.17
1010.168	2.43
1010.593	0.83
1011.018	-7.47
1011.443	1.23
1011.868	5.73
1012.293	-1.17
1012.718	-4.17
1013.143	3.93
1013.567	-0.27
1013.992	-4.67
1014.417	-11.17
1014.842	3.23
1015.267	-2.47
1015.691	-2.27
1016.116	1.03
1016.541	-0.47
1016.965	-0.27
1017.39	7.63
1017.814	3.83
1018.239	-4.87
1018.663	-4.27
1019.088	-10.97
1019.512	-1.17
1019.937	-5.07
1020.361	0.93
1020.785	-12.37
1021.21	-0.77
1021.634	-4.07
1022.058	-3.67
1022.483	8.23
1022.907	-1.37
1023.331	-1.37
1023.755	-1.87
1024.179	0.83
1024.604	-7.37
1025.028	-5.07
1025.452	-0.87
1025.876	1.93
1026.3	1.43
1026.724	-14.07
1027.148	-2.07
1027.572	-6.27
1027.996	0.83
1028.42	-0.77
1028.843	2.33
1029.267	-7.87
1029.691	1.83
1030.115	-8.77
1030.539	-8.27
1030.962	-4.87
1031.386	-8.77
1031.81	-3.67
1032.233	-4.57
1032.657	-4.47
1033.08	-1.87
1033.504	-5.77
1033.927	-7.27
1034.351	5.43
1034.774	-2.47
1035.198	-0.47
1035.621	-1.77
1036.045	-6.77
1036.468	5.93
1036.891	-8.57
1037.315	-10.67
1037.738	-10.87
1038.161	0.43
1038.584	-5.17
1039.008	-5.07
1039.431	-2.37
1039.854	-0.57
1040.277	-7.87
1040.7	-8.27
1041.123	-0.87
1041.546	-9.17
1041.969	-3.87
1042.392	-4.87
1042.815	-4.67
1043.238	-3.07
1043.661	5.23
1044.084	-4.27
1044.507	-6.47
1044.93	-7.57
1045.352	-8.57
1045.775	-2.47
1046.198	-2.97
1046.621	3.43
1047.043	-7.67
1047.466	8.03
1047.889	-0.07
1048.311	-5.87
1048.734	-2.17
1049.156	1.73
1049.579	1.03
1050.001	-0.07
1050.424	2.43
1050.846	-5.17
1051.269	0.83
1051.691	-8.67
1052.113	-5.87
1052.536	-0.17
1052.958	-3.27
1053.38	-3.27
1053.802	-13.67
1054.225	3.33
1054.647	-4.27
1055.069	-3.37
1055.491	1.73
1055.913	-3.07
1056.335	-0.27
1056.757	-6.27
1057.179	-3.47
1057.601	-5.07
1058.023	1.73
1058.445	0.73
1058.867	-10.27
1059.289	-8.67
1059.711	-4.57
1060.133	-6.37
1060.555	-4.97
1060.976	-6.07
1061.398	-4.47
1061.82	-4.67
1062.241	-3.47
1062.663	-6.77
1063.085	-10.87
1063.506	-1.77
1063.928	-0.57
1064.35	-1.27
1064.771	-7.87
1065.193	-2.77
1065.614	-8.37
1066.035	2.23
1066.457	-2.37
1066.878	1.23
1067.3	-3.87
1067.721	-2.67
1068.142	-0.37
1068.564	0.43
1068.985	-0.27
1069.406	-5.87
1069.827	-4.87
1070.248	-3.37
1070.67	-2.97
1071.091	-1.77
1071.512	-8.47
1071.933	-1.17
1072.354	-4.67
1072.775	-6.47
1073.196	-2.77
1073.617	-1.97
1074.038	-5.77
1074.459	0.63
1074.88	-7.07
1075.3	1.83
1075.721	-4.67
1076.142	0.53
1076.563	0.43
1076.983	-7.07
1077.404	-2.87
1077.825	-9.67
1078.246	-2.37
1078.666	-8.27
1079.087	-5.57
1079.507	-3.17
1079.928	0.03
1080.348	-1.87
1080.769	-8.17
1081.189	-4.07
1081.61	-2.77
1082.03	-3.27
1082.451	-3.77
1082.871	-5.87
1083.291	-9.67
1083.711	-8.07
1084.132	-4.27
1084.552	-4.17
1084.972	-5.37
1085.392	-4.77
1085.813	-5.97
1086.233	-3.67
1086.653	-1.97
1087.073	-5.77
1087.493	-4.27
1087.913	-2.67
1088.333	-2.57
1088.753	-3.47
1089.173	2.53
1089.593	-0.77
1090.013	3.13
1090.433	2.63
1090.852	-3.17
1091.272	-5.77
1091.692	-4.27
1092.112	-1.27
1092.531	-8.47
1092.951	-15.27
1093.371	-3.97
1093.79	-1.47
1094.21	-5.37
1094.63	-8.77
1095.049	-7.07
1095.469	-1.97
1095.888	1.23
1096.308	0.13
1096.727	5.33
1097.146	-5.37
1097.566	-0.07
1097.985	-6.17
1098.405	0.43
1098.824	-4.27
1099.243	-9.27
1099.662	-3.97
1100.082	-5.57
1100.501	4.53
1100.92	-7.27
1101.339	-2.47
1101.758	-3.57
