Data from 20171114-ORNL-Ar_H_NY_Subt18_08-03-56-603.txt Node
Date: Tue Nov 14 08:03:56 EST 2017
User: Ender
Spectrometer: HR+D1039
Trigger mode: 0
Integration Time (sec): 2.730000E-2
Scans to average: 10
Electric dark correction enabled: true
Nonlinearity correction enabled: false
Boxcar width: 0
XAxis mode: Wavelengths
Number of Pixels in Spectrum: 2048
>>>>>Begin Spectral Data<<<<<
187.836	-7.79
188.309	-7.79
188.782	-7.79
189.255	-0.79
189.728	0.41
190.201	8.61
190.674	3.91
191.147	6.31
191.619	-9.29
192.092	-4.29
192.565	0.21
193.038	-3.39
193.511	4.91
193.984	1.71
194.456	-4.19
194.929	-0.39
195.402	3.21
195.874	0.81
196.347	0.61
196.82	-5.29
197.292	6.71
197.765	-0.69
198.237	-7.19
198.71	3.21
199.182	0.21
199.655	4.91
200.127	3.91
200.6	3.31
201.072	1.01
201.544	-4.29
202.017	0.91
202.489	5.41
202.961	-5.49
203.433	-1.19
203.906	-7.59
204.378	-3.19
204.85	-5.39
205.322	-4.99
205.794	-5.39
206.266	4.01
206.739	-6.19
207.211	-1.39
207.683	-4.39
208.155	-4.69
208.627	-9.49
209.099	-2.89
209.57	-4.99
210.042	-11.99
210.514	-0.39
210.986	0.91
211.458	-9.09
211.93	-0.09
212.402	-1.79
212.873	-2.09
213.345	-8.49
213.817	-9.99
214.288	-5.29
214.76	-7.99
215.232	-3.69
215.703	-3.99
216.175	-4.39
216.646	-1.69
217.118	-3.69
217.589	-7.19
218.061	-5.29
218.532	-9.79
219.004	3.31
219.475	-4.49
219.946	-6.79
220.418	-3.29
220.889	2.31
221.36	-3.19
221.832	-0.29
222.303	-5.69
222.774	-4.89
223.245	-13.99
223.717	-8.29
224.188	-7.19
224.659	-3.69
225.13	-7.69
225.601	-1.09
226.072	-3.39
226.543	-1.79
227.014	-1.19
227.485	-0.59
227.956	-11.89
228.427	-0.69
228.898	1.81
229.369	0.41
229.839	-8.59
230.31	-11.69
230.781	1.31
231.252	-7.99
231.722	-6.09
232.193	-4.59
232.664	-2.19
233.135	-1.29
233.605	-6.99
234.076	-9.19
234.546	0.61
235.017	8.51
235.487	-4.29
235.958	-5.19
236.428	-3.79
236.899	-3.39
237.369	2.51
237.84	-6.29
238.31	-4.09
238.78	-2.99
239.251	-2.59
239.721	-0.29
240.191	-1.99
240.662	-8.19
241.132	1.11
241.602	-12.79
242.072	-2.89
242.542	-3.79
243.013	-3.69
243.483	1.11
243.953	1.31
244.423	-4.39
244.893	-3.39
245.363	1.11
245.833	-1.39
246.303	1.21
246.773	10.21
247.243	0.51
247.712	0.81
248.182	3.11
248.652	0.21
249.122	-15.99
249.592	-5.39
250.061	6.01
250.531	7.51
251.001	-3.99
251.471	5.71
251.94	5.71
252.41	-0.39
252.879	-1.79
253.349	4.31
253.818	0.21
254.288	-1.19
254.757	0.61
255.227	-5.09
255.696	3.21
256.166	3.11
256.635	6.31
257.105	1.91
257.574	-2.09
258.043	0.21
258.513	-9.69
258.982	3.51
259.451	-1.09
259.92	3.61
260.389	-5.39
260.859	8.31
261.328	-1.39
261.797	8.11
262.266	5.01
262.735	2.41
263.204	1.71
263.673	-4.59
264.142	7.11
264.611	-5.89
265.08	-5.19
265.549	0.51
266.018	5.91
266.487	1.31
266.955	-4.99
267.424	-0.79
267.893	0.91
268.362	-4.89
268.83	-2.29
269.299	9.21
269.768	0.11
270.236	1.31
270.705	-4.29
271.174	0.51
271.642	0.71
272.111	-1.49
272.579	5.31
273.048	3.11
273.516	0.51
273.985	2.91
274.453	0.91
274.922	8.81
275.39	4.41
275.858	-2.89
276.327	-0.69
276.795	9.31
277.263	1.71
277.731	12.41
278.2	7.81
278.668	-0.79
279.136	6.41
279.604	5.71
280.072	3.51
280.54	0.31
281.008	4.71
281.477	7.41
281.945	12.11
282.413	5.61
282.881	2.71
283.348	-0.89
283.816	5.91
284.284	2.81
284.752	13.51
285.22	10.71
285.688	6.21
286.156	4.41
286.623	13.81
287.091	3.71
287.559	9.71
288.026	12.31
288.494	10.11
288.962	5.81
289.429	6.71
289.897	14.61
290.364	4.41
290.832	5.61
291.3	8.21
291.767	6.11
292.234	13.71
292.702	7.81
293.169	4.81
293.637	11.51
294.104	9.31
294.571	10.71
295.039	8.01
295.506	6.01
295.973	8.51
296.44	11.41
296.908	12.81
297.375	9.41
297.842	10.01
298.309	6.81
298.776	8.21
299.243	16.81
299.71	6.91
300.177	10.51
300.644	16.81
301.111	13.71
301.578	10.11
302.045	2.61
302.512	15.71
302.979	17.91
303.446	18.11
303.913	14.21
304.379	9.41
304.846	14.91
305.313	14.61
305.78	14.31
306.246	13.31
306.713	14.71
307.18	14.01
307.646	18.61
308.113	19.41
308.579	13.91
309.046	18.71
309.512	13.01
309.979	11.01
310.445	19.71
310.912	24.01
311.378	23.71
311.845	19.11
312.311	21.61
312.777	24.01
313.244	23.71
313.71	28.81
314.176	19.81
314.642	20.81
315.109	15.41
315.575	28.81
316.041	34.71
316.507	23.71
316.973	31.01
317.439	27.11
317.905	28.71
318.371	30.51
318.837	20.31
319.303	21.41
319.769	24.61
320.235	23.41
320.701	24.91
321.167	21.41
321.633	22.81
322.099	23.61
322.564	29.31
323.03	27.81
323.496	29.21
323.962	24.41
324.427	23.11
324.893	40.41
325.359	30.41
325.824	29.31
326.29	22.91
326.755	31.21
327.221	29.31
327.686	29.31
328.152	39.11
328.617	35.31
329.083	37.51
329.548	38.81
330.014	41.01
330.479	34.51
330.944	31.61
331.41	35.61
331.875	33.31
332.34	34.01
332.805	31.31
333.271	36.71
333.736	26.81
334.201	39.21
334.666	42.71
335.131	43.71
335.596	39.51
336.061	41.41
336.526	33.41
336.991	37.01
337.456	46.91
337.921	35.51
338.386	31.71
338.851	40.41
339.316	41.21
339.781	34.31
340.246	44.11
340.711	43.21
341.175	40.11
341.64	40.31
342.105	39.21
342.569	53.21
343.034	48.11
343.499	44.91
343.963	48.41
344.428	54.71
344.893	49.51
345.357	55.01
345.822	52.71
346.286	52.81
346.751	57.31
347.215	51.81
347.679	52.21
348.144	67.61
348.608	65.81
349.073	57.41
349.537	56.71
350.001	62.91
350.465	66.41
350.93	75.21
351.394	71.01
351.858	60.71
352.322	74.81
352.786	65.41
353.25	76.21
353.715	81.51
354.179	73.81
354.643	93.61
355.107	93.81
355.571	84.91
356.035	79.91
356.498	91.91
356.962	91.21
357.426	98.31
357.89	90.91
358.354	73.51
358.818	64.21
359.281	72.21
359.745	63.71
360.209	63.71
360.673	63.31
361.136	67.91
361.6	75.71
362.064	73.21
362.527	79.21
362.991	84.21
363.454	72.61
363.918	67.51
364.381	70.21
364.845	75.41
365.308	80.51
365.772	76.81
366.235	83.21
366.698	72.21
367.162	84.31
367.625	73.21
368.088	76.41
368.552	83.31
369.015	80.71
369.478	85.61
369.941	89.11
370.404	75.81
370.867	89.61
371.331	90.21
371.794	89.51
372.257	83.81
372.72	90.81
373.183	85.21
373.646	85.41
374.109	88.81
374.572	90.51
375.035	93.11
375.497	99.41
375.96	101.01
376.423	91.91
376.886	103.01
377.349	102.91
377.811	92.71
378.274	95.91
378.737	93.91
379.199	96.31
379.662	97.81
380.125	99.01
380.587	97.81
381.05	102.41
381.512	110.11
381.975	114.21
382.437	105.71
382.9	103.71
383.362	112.01
383.825	120.31
384.287	119.51
384.75	110.01
385.212	117.61
385.674	114.01
386.136	122.71
386.599	112.81
387.061	111.81
387.523	111.61
387.985	124.81
388.447	120.61
388.91	120.81
389.372	118.91
389.834	119.71
390.296	119.11
390.758	120.51
391.22	121.01
391.682	126.31
392.144	136.21
392.606	130.51
393.068	127.61
393.529	141.11
393.991	133.11
394.453	122.51
394.915	121.21
395.377	128.11
395.838	127.21
396.3	133.31
396.762	132.51
397.224	132.71
397.685	124.91
398.147	122.41
398.608	128.41
399.07	126.41
399.531	129.71
399.993	138.31
400.454	149.61
400.916	137.71
401.377	137.41
401.839	144.51
402.3	140.41
402.762	161.31
403.223	171.61
403.684	167.01
404.145	157.11
404.607	146.61
405.068	152.41
405.529	151.91
405.99	172.01
406.451	157.71
406.913	161.71
407.374	154.71
407.835	157.71
408.296	158.91
408.757	162.71
409.218	172.51
409.679	164.71
410.14	167.71
410.601	170.91
411.062	174.71
411.522	170.51
411.983	172.81
412.444	156.71
412.905	173.21
413.366	177.41
413.826	191.21
414.287	210.71
414.748	256.91
415.208	245.11
415.669	211.71
416.13	204.91
416.59	198.31
417.051	215.11
417.511	222.91
417.972	237.31
418.432	251.21
418.893	292.61
419.353	256.61
419.814	200.01
420.274	178.01
420.734	178.61
421.195	186.01
421.655	180.11
422.115	191.81
422.576	197.41
423.036	188.61
423.496	200.21
423.956	203.91
424.416	226.71
424.876	250.31
425.336	252.01
425.797	256.41
426.257	240.51
426.717	226.81
427.177	216.91
427.637	210.91
428.097	226.81
428.556	227.81
429.016	256.71
429.476	242.31
429.936	246.51
430.396	254.91
430.856	267.61
431.315	285.71
431.775	319.21
432.235	336.51
432.694	327.91
433.154	325.61
433.614	342.31
434.073	302.01
434.533	268.21
434.993	244.31
435.452	255.91
435.912	269.01
436.371	261.31
436.83	246.71
437.29	238.11
437.749	232.01
438.209	223.41
438.668	245.01
439.127	259.21
439.587	241.31
440.046	227.31
440.505	239.41
440.964	248.41
441.424	270.51
441.883	267.81
442.342	235.31
442.801	216.61
443.26	214.31
443.719	215.91
444.178	210.21
444.637	204.51
445.096	211.71
445.555	210.91
446.014	213.61
446.473	222.81
446.932	223.01
447.391	215.81
447.849	231.21
448.308	213.51
448.767	210.61
449.226	227.41
449.685	231.21
450.143	241.41
450.602	226.01
451.061	219.11
451.519	225.81
451.978	224.71
452.436	226.31
452.895	224.81
453.353	237.01
453.812	228.31
454.27	225.51
454.729	223.91
455.187	229.31
455.646	225.61
456.104	232.51
456.562	244.11
457.021	247.61
457.479	242.11
457.937	250.21
458.395	247.41
458.854	232.51
459.312	243.91
459.77	252.91
460.228	238.51
460.686	237.91
461.144	235.51
461.602	238.91
462.06	233.31
462.518	253.91
462.976	245.91
463.434	252.41
463.892	248.51
464.35	255.81
464.808	271.81
465.266	252.91
465.724	262.51
466.181	266.51
466.639	258.91
467.097	272.91
467.555	285.81
468.012	287.61
468.47	290.31
468.928	300.81
469.385	316.01
469.843	317.31
470.3	323.81
470.758	336.81
471.215	338.91
471.673	369.21
472.13	368.51
472.588	372.51
473.045	342.01
473.503	355.11
473.96	369.01
474.417	375.51
474.875	394.41
475.332	429.71
475.789	428.51
476.246	434.01
476.704	454.01
477.161	460.21
477.618	466.31
478.075	503.81
478.532	547.11
478.989	599.51
479.446	678.01
479.903	674.31
480.36	705.51
480.817	753.81
481.274	830.61
481.731	917.51
482.188	985.21
482.645	1100.01
483.102	1170.41
483.558	1285.91
484.015	1325.91
484.472	1310.21
484.929	1276.51
485.385	1231.81
485.842	1215.71
486.299	1163.51
486.755	1095.01
487.212	942.61
487.668	832.91
488.125	771.71
488.582	696.51
489.038	687.11
489.494	650.01
489.951	631.51
490.407	607.31
490.864	591.91
491.32	596.21
491.776	595.21
492.233	591.71
492.689	561.21
493.145	557.21
493.602	547.91
494.058	558.41
494.514	560.51
494.97	575.51
495.426	576.61
495.882	560.31
496.338	558.61
496.794	563.51
497.251	551.01
497.707	562.71
498.163	572.51
498.618	573.71
499.074	579.61
499.53	599.91
499.986	591.31
500.442	579.81
500.898	560.11
501.354	564.21
501.809	561.91
502.265	564.71
502.721	566.91
503.177	580.11
503.632	564.81
504.088	581.61
504.543	593.61
504.999	607.01
505.455	587.61
505.91	570.41
506.366	579.01
506.821	570.01
507.277	568.01
507.732	579.71
508.187	574.61
508.643	583.11
509.098	589.01
509.553	600.21
510.009	600.21
510.464	607.91
510.919	620.21
511.375	626.61
511.83	632.71
512.285	649.71
512.74	680.21
513.195	682.31
513.65	676.61
514.105	683.21
514.56	689.61
515.015	703.11
515.47	711.11
515.925	701.61
516.38	698.71
516.835	703.81
517.29	702.81
517.745	698.91
518.2	685.31
518.655	672.91
519.109	665.81
519.564	662.21
520.019	654.61
520.474	650.91
520.928	644.41
521.383	639.41
521.838	635.91
522.292	631.01
522.747	625.31
523.201	620.61
523.656	623.21
524.11	625.71
524.565	621.91
525.019	606.91
525.474	618.01
525.928	617.11
526.382	610.91
526.837	613.01
527.291	625.31
527.745	604.41
528.2	609.71
528.654	615.91
529.108	601.01
529.562	610.41
530.016	610.41
530.47	596.31
530.925	595.81
531.379	605.51
531.833	615.91
532.287	605.31
532.741	609.21
533.195	607.31
533.649	614.51
534.103	621.41
534.556	610.91
535.01	611.81
535.464	616.91
535.918	624.21
536.372	620.31
536.826	611.71
537.279	601.01
537.733	612.41
538.187	612.81
538.64	603.61
539.094	621.81
539.548	627.21
540.001	622.51
540.455	617.21
540.908	632.21
541.362	630.21
541.815	645.31
542.269	654.11
542.722	651.41
543.175	658.71
543.629	655.51
544.082	676.61
544.536	671.41
544.989	678.91
545.442	688.71
545.895	687.51
546.349	679.61
546.802	675.51
547.255	685.71
547.708	690.11
548.161	695.11
548.614	682.41
549.067	702.91
549.52	702.01
549.973	697.21
550.426	687.71
550.879	671.71
551.332	669.71
551.785	675.91
552.238	676.51
552.691	694.61
553.144	695.91
553.596	715.21
554.049	723.41
554.502	747.91
554.955	762.41
555.407	770.91
555.86	761.31
556.313	745.61
556.765	728.51
557.218	741.11
557.67	720.11
558.123	725.71
558.576	723.01
559.028	736.31
559.48	736.81
559.933	732.11
560.385	706.81
560.838	681.11
561.29	659.41
561.742	656.81
562.195	643.31
562.647	635.41
563.099	650.01
563.551	646.51
564.004	647.61
564.456	638.41
564.908	626.61
565.36	616.81
565.812	603.61
566.264	599.51
566.716	591.41
567.168	578.51
567.62	580.61
568.072	569.91
568.524	561.41
568.976	565.51
569.428	559.31
569.88	563.81
570.332	562.81
570.784	557.71
571.235	559.41
571.687	563.51
572.139	568.11
572.59	573.01
573.042	580.91
573.494	578.81
573.945	579.51
574.397	548.81
574.849	561.51
575.3	556.31
575.752	556.51
576.203	550.41
576.655	562.81
577.106	538.21
577.557	536.21
578.009	538.21
578.46	536.91
578.912	525.31
579.363	532.41
579.814	521.11
580.265	528.81
580.717	529.01
581.168	535.71
581.619	538.61
582.07	543.21
582.521	539.31
582.972	536.81
583.423	540.21
583.875	536.61
584.326	536.01
584.777	552.61
585.227	564.01
585.678	574.01
586.129	593.01
586.58	607.61
587.031	618.61
587.482	645.81
587.933	673.81
588.384	662.21
588.834	627.71
589.285	617.31
589.736	614.81
590.186	610.01
590.637	611.21
591.088	589.21
591.538	570.51
591.989	578.31
592.439	570.11
592.89	563.91
593.34	549.91
593.791	554.11
594.241	547.31
594.692	554.11
595.142	544.81
595.593	543.81
596.043	541.11
596.493	551.41
596.943	546.51
597.394	564.11
597.844	547.31
598.294	559.61
598.744	589.61
599.195	607.11
599.645	630.31
600.095	664.31
600.545	705.01
600.995	742.81
601.445	794.71
601.895	842.61
602.345	878.31
602.795	870.61
603.245	828.21
603.695	786.51
604.145	754.01
604.594	715.31
605.044	680.21
605.494	626.11
605.944	588.31
606.393	566.51
606.843	560.61
607.293	560.21
607.743	559.11
608.192	561.91
608.642	572.91
609.091	573.01
609.541	570.41
609.99	573.91
610.44	569.31
610.889	547.61
611.339	533.41
611.788	520.51
612.238	536.41
612.687	539.61
613.136	530.81
613.586	532.51
614.035	531.91
614.484	535.01
614.933	531.01
615.383	530.21
615.832	531.21
616.281	523.21
616.73	506.61
617.179	496.41
617.628	497.51
618.077	470.91
618.526	472.21
618.975	461.81
619.424	467.51
619.873	454.21
620.322	461.61
620.771	453.81
621.22	455.41
621.669	449.11
622.118	438.51
622.567	427.21
623.015	426.51
623.464	420.41
623.913	418.01
624.361	426.71
624.81	420.01
625.259	411.61
625.707	418.11
626.156	414.31
626.604	431.31
627.053	418.11
627.501	426.41
627.95	420.31
628.398	430.41
628.847	413.31
629.295	420.61
629.744	430.21
630.192	420.81
630.64	416.41
631.089	399.91
631.537	402.41
631.985	390.11
632.433	395.01
632.881	395.71
633.33	397.21
633.778	377.01
634.226	385.91
634.674	406.41
635.122	400.31
635.57	410.71
636.018	410.31
636.466	409.11
636.914	405.81
637.362	415.51
637.81	424.91
638.258	432.41
638.705	423.21
639.153	440.41
639.601	453.01
640.049	469.81
640.497	498.61
640.944	511.91
641.392	475.81
641.84	454.21
642.287	428.51
642.735	406.61
643.182	407.71
643.63	414.01
644.078	414.71
644.525	421.41
644.973	429.71
645.42	429.41
645.867	447.71
646.315	461.21
646.762	473.21
647.21	496.71
647.657	501.41
648.104	528.51
648.551	546.11
648.999	582.21
649.446	630.31
649.893	680.61
650.34	778.61
650.787	926.71
651.234	1123.61
651.682	1434.01
652.129	1922.81
652.576	2716.81
653.023	3958.81
653.47	5524.01
653.917	6926.01
654.363	8150.31
654.81	9231.51
655.257	8775.21
655.704	5802.51
656.151	3453.71
656.598	2261.21
657.044	1618.31
657.491	1251.01
657.938	1009.41
658.385	844.41
658.831	736.31
659.278	668.21
659.724	584.51
660.171	547.91
660.618	508.91
661.064	479.41
661.511	467.01
661.957	448.01
662.404	438.51
662.85	438.41
663.296	425.01
663.743	402.31
664.189	380.61
664.635	381.91
665.082	372.21
665.528	373.81
665.974	370.01
666.42	362.81
666.867	353.91
667.313	337.01
667.759	331.21
668.205	319.01
668.651	321.41
669.097	321.01
669.543	307.11
669.989	318.31
670.435	321.81
670.881	320.11
671.327	317.81
671.773	337.21
672.219	351.91
672.665	395.31
673.11	418.81
673.556	453.81
674.002	494.01
674.448	481.51
674.893	408.31
675.339	342.01
675.785	314.91
676.23	306.21
676.676	287.61
677.122	275.41
677.567	261.81
678.013	266.11
678.458	260.91
678.904	259.61
679.349	244.81
679.794	256.41
680.24	251.11
680.685	247.91
681.131	246.51
681.576	253.21
682.021	258.21
682.466	243.41
682.912	246.91
683.357	253.71
683.802	269.51
684.247	291.81
684.692	328.61
685.137	352.11
685.583	388.61
686.028	415.31
686.473	382.11
686.918	329.71
687.363	297.61
687.807	283.01
688.252	263.51
688.697	258.61
689.142	240.61
689.587	235.31
690.032	230.91
690.477	248.81
690.921	248.11
691.366	272.61
691.811	281.11
692.255	303.91
692.7	335.41
693.145	350.41
693.589	480.41
694.034	783.31
694.478	1105.91
694.923	1287.61
695.367	1702.51
695.812	896.51
696.256	362.51
696.701	261.81
697.145	247.61
697.59	229.51
698.034	222.21
698.478	237.91
698.922	228.01
699.367	232.11
699.811	232.61
700.255	245.21
700.699	268.21
701.143	291.91
701.588	333.81
702.032	364.01
702.476	365.31
702.92	349.31
703.364	348.61
703.808	445.71
704.252	715.01
704.696	1029.41
705.14	1232.21
705.584	1622.41
706.027	783.71
706.471	384.11
706.915	281.21
707.359	257.01
707.803	232.81
708.246	218.51
708.69	226.71
709.134	217.21
709.577	225.21
710.021	231.71
710.465	219.81
710.908	218.91
711.352	212.51
711.795	218.31
712.239	249.41
712.682	260.81
713.126	285.81
713.569	322.21
714.012	255.61
714.456	219.41
714.899	200.61
715.342	191.61
715.786	181.71
716.229	181.21
716.672	187.31
717.115	169.51
717.558	167.01
718.002	178.71
718.445	179.41
718.888	204.71
719.331	202.51
719.774	215.81
720.217	218.61
720.66	208.61
721.103	189.61
721.546	180.31
721.989	177.61
722.432	165.21
722.874	170.01
723.317	160.11
723.76	160.41
724.203	173.81
724.645	214.11
725.088	307.91
725.531	400.71
725.974	468.31
726.416	400.31
726.859	217.91
727.301	179.31
727.744	163.81
728.187	163.61
728.629	164.41
729.071	175.71
729.514	180.71
729.956	185.91
730.399	200.11
730.841	212.11
731.283	193.71
731.726	190.41
732.168	180.11
732.61	189.71
733.053	199.41
733.495	219.21
733.937	244.51
734.379	275.81
734.821	307.11
735.263	376.71
735.705	569.01
736.148	1082.21
736.59	1832.11
737.032	2313.81
737.474	1898.01
737.916	601.81
738.357	304.91
738.799	239.51
739.241	208.21
739.683	202.11
740.125	209.01
740.567	218.31
741.008	228.11
741.45	229.51
741.892	226.31
742.334	254.41
742.775	265.51
743.217	261.61
743.658	194.81
744.1	185.11
744.542	186.21
744.983	223.11
745.425	264.41
745.866	262.51
746.307	205.51
746.749	190.41
747.19	222.31
747.632	312.21
748.073	590.31
748.514	1281.01
748.956	2074.01
749.397	2589.81
749.838	2164.61
750.279	2270.31
750.72	1131.41
751.162	404.81
751.603	230.31
752.044	185.51
752.485	150.81
752.926	146.71
753.367	144.11
753.808	134.71
754.249	132.81
754.69	124.01
755.131	127.81
755.572	122.31
756.013	125.51
756.453	120.91
756.894	125.81
757.335	132.61
757.776	135.91
758.216	140.71
758.657	137.41
759.098	136.71
759.538	159.21
759.979	187.61
760.42	256.81
760.86	483.71
761.301	1262.81
761.741	3178.81
762.182	4994.71
762.622	3562.21
763.063	994.81
763.503	395.81
763.943	238.51
764.384	197.21
764.824	180.91
765.264	163.61
765.705	142.81
766.145	130.11
766.585	121.71
767.025	119.51
767.465	113.01
767.906	124.31
768.346	136.41
768.786	144.91
769.226	149.31
769.666	209.31
770.106	410.21
770.546	1052.71
770.986	1964.51
771.426	1806.01
771.866	586.71
772.306	236.21
772.745	144.11
773.185	114.11
773.625	113.51
774.065	101.51
774.505	113.31
774.944	149.11
775.384	258.01
775.824	461.11
776.263	455.51
776.703	209.01
777.142	113.51
777.582	96.31
778.021	79.61
778.461	85.01
778.9	91.31
779.34	90.01
779.779	78.31
780.219	67.51
780.658	72.51
781.097	73.91
781.537	79.81
781.976	78.11
782.415	78.11
782.855	67.61
783.294	66.81
783.733	73.11
784.172	76.81
784.611	70.61
785.05	73.21
785.489	80.41
785.928	84.11
786.367	85.41
786.806	80.51
787.245	87.21
787.684	93.91
788.123	108.31
788.562	91.01
789.001	89.41
789.44	92.31
789.879	79.01
790.317	84.21
790.756	87.11
791.195	91.71
791.634	102.41
792.072	139.61
792.511	242.91
792.95	688.21
793.388	1557.91
793.827	1489.21
794.265	495.41
794.704	207.71
795.142	133.71
795.581	105.81
796.019	90.11
796.458	87.21
796.896	82.41
797.334	94.91
797.773	115.81
798.211	151.61
798.649	290.61
799.087	722.91
799.526	1152.81
799.964	1476.11
800.402	1552.81
800.84	566.31
801.278	217.91
801.716	134.61
802.154	110.31
802.592	97.51
803.03	100.21
803.468	93.21
803.906	103.11
804.344	101.81
804.782	94.71
805.22	89.11
805.658	94.91
806.096	105.71
806.533	114.91
806.971	122.31
807.409	154.41
807.847	220.71
808.284	455.61
808.722	1328.81
809.16	2485.21
809.597	2296.61
810.035	4082.41
810.472	4641.21
810.91	1655.61
811.347	604.81
811.785	300.91
812.222	190.31
812.66	140.51
813.097	124.41
813.535	96.01
813.972	89.91
814.409	89.01
814.846	78.91
815.284	79.71
815.721	74.31
816.158	70.01
816.595	74.81
817.032	115.11
817.47	139.71
817.907	99.91
818.344	74.01
818.781	65.21
819.218	68.51
819.655	88.21
820.092	140.21
820.529	175.91
820.966	131.81
821.403	93.11
821.839	70.81
822.276	66.21
822.713	88.61
823.15	105.31
823.587	85.21
824.023	105.91
824.46	203.21
824.897	633.81
825.333	1028.71
825.77	441.81
826.206	170.71
826.643	95.51
827.08	75.41
827.516	60.01
827.953	56.61
828.389	56.91
828.825	51.11
829.262	41.81
829.698	45.11
830.135	49.31
830.571	44.21
831.007	44.01
831.443	43.41
831.88	36.91
832.316	46.01
832.752	49.51
833.188	47.61
833.624	42.61
834.06	51.21
834.497	46.31
834.933	51.01
835.369	57.21
835.805	51.71
836.241	53.61
836.677	55.41
837.112	59.61
837.548	70.31
837.984	95.31
838.42	144.11
838.856	343.31
839.292	1105.41
839.727	1796.41
840.163	816.91
840.599	670.91
841.034	1513.01
841.47	1678.31
841.906	598.51
842.341	237.91
842.777	144.21
843.212	154.41
843.648	146.61
844.083	82.91
844.519	59.21
844.954	46.11
845.39	41.61
845.825	40.71
846.261	43.81
846.696	38.51
847.131	36.51
847.566	43.21
848.002	32.41
848.437	37.61
848.872	37.61
849.307	42.01
849.742	58.31
850.177	129.31
850.613	394.91
851.048	663.31
851.483	283.21
851.918	106.21
852.353	54.81
852.788	31.11
853.223	31.71
853.657	37.61
854.092	37.91
854.527	28.91
854.962	29.61
855.397	32.71
855.832	35.91
856.266	32.11
856.701	26.91
857.136	20.21
857.57	25.31
858.005	33.71
858.44	45.71
858.874	34.41
859.309	32.51
859.743	27.11
860.178	31.51
860.612	26.21
861.047	42.91
861.481	49.91
861.915	60.31
862.35	34.71
862.784	18.81
863.218	32.71
863.653	28.21
864.087	30.91
864.521	40.71
864.955	48.51
865.39	104.21
865.824	130.91
866.258	86.11
866.692	132.81
867.126	158.61
867.56	83.81
867.994	36.21
868.428	28.21
868.862	30.91
869.296	44.71
869.73	48.91
870.164	42.11
870.598	39.61
871.031	24.81
871.465	24.41
871.899	22.11
872.333	17.91
872.766	18.41
873.2	9.41
873.634	21.61
874.067	15.41
874.501	19.91
874.935	24.61
875.368	19.21
875.802	17.71
876.235	14.71
876.669	12.31
877.102	21.11
877.535	17.71
877.969	15.41
878.402	20.61
878.836	10.91
879.269	19.21
879.702	16.81
880.135	17.41
880.569	21.71
881.002	14.01
881.435	13.21
881.868	15.11
882.301	16.21
882.734	10.31
883.167	16.51
883.601	11.51
884.034	15.81
884.467	2.91
884.899	11.81
885.332	8.21
885.765	5.01
886.198	7.11
886.631	10.51
887.064	9.31
887.497	12.21
887.929	18.21
888.362	7.51
888.795	9.21
889.228	10.31
889.66	8.31
890.093	14.61
890.526	7.51
890.958	9.11
891.391	10.21
891.823	14.41
892.256	13.71
892.688	8.71
893.121	7.81
893.553	9.61
893.985	22.71
894.418	17.81
894.85	10.41
895.282	12.01
895.715	11.21
896.147	18.81
896.579	15.31
897.011	8.71
897.444	13.01
897.876	5.91
898.308	4.61
898.74	10.61
899.172	11.91
899.604	17.91
900.036	12.91
900.468	4.91
900.9	13.31
901.332	8.11
901.764	7.61
902.196	14.91
902.628	13.41
903.06	12.51
903.491	16.81
903.923	18.41
904.355	13.61
904.787	18.81
905.218	15.61
905.65	12.31
906.082	3.11
906.513	6.91
906.945	9.51
907.376	10.91
907.808	10.91
908.239	9.61
908.671	11.31
909.102	16.91
909.534	16.01
909.965	25.41
910.397	65.01
910.828	233.81
911.259	371.61
911.691	165.81
912.122	75.21
912.553	39.51
912.984	22.41
913.415	15.11
913.847	14.21
914.278	12.31
914.709	7.91
915.14	13.01
915.571	11.91
916.002	3.81
916.433	16.71
916.864	13.21
917.295	8.91
917.726	10.41
918.157	2.11
918.587	18.11
919.018	18.51
919.449	14.91
919.88	21.01
920.311	19.91
920.741	32.11
921.172	126.81
921.603	108.41
922.033	52.31
922.464	37.31
922.895	12.21
923.325	13.91
923.756	8.81
924.186	9.91
924.617	13.71
925.047	16.11
925.478	16.11
925.908	18.41
926.338	4.91
926.769	11.91
927.199	17.51
927.629	3.81
928.06	13.41
928.49	6.21
928.92	10.41
929.35	6.41
929.78	7.11
930.21	7.11
930.641	6.41
931.071	6.21
931.501	-0.89
931.931	7.01
932.361	6.81
932.791	1.11
933.221	-0.49
933.651	2.71
934.08	15.61
934.51	23.41
934.94	5.71
935.37	6.91
935.8	5.31
936.229	5.41
936.659	6.51
937.089	0.51
937.519	13.41
937.948	17.31
938.378	18.01
938.807	0.61
939.237	5.71
939.666	4.51
940.096	-5.19
940.525	-2.79
940.955	0.81
941.384	3.91
941.814	-8.19
942.243	1.51
942.672	-2.69
943.102	-4.09
943.531	-3.09
943.96	5.41
944.39	6.51
944.819	1.61
945.248	-0.09
945.677	1.81
946.106	7.11
946.535	2.11
946.964	-1.39
947.393	3.31
947.822	5.61
948.251	0.51
948.68	-1.09
949.109	9.71
949.538	6.31
949.967	5.51
950.396	-2.69
950.825	3.81
951.254	-2.19
951.682	-8.89
952.111	1.71
952.54	4.71
952.969	-6.49
953.397	-5.19
953.826	-2.39
954.254	-5.09
954.683	3.51
955.112	-0.89
955.54	3.61
955.969	0.71
956.397	-2.89
956.826	-0.29
957.254	3.11
957.682	0.31
958.111	2.21
958.539	-2.69
958.967	-0.19
959.396	-6.39
959.824	-0.29
960.252	1.71
960.68	-5.79
961.109	-11.09
961.537	-2.69
961.965	-6.29
962.393	2.41
962.821	-1.59
963.249	-0.59
963.677	1.21
964.105	-0.39
964.533	34.51
964.961	31.71
965.389	16.01
965.817	0.41
966.245	-2.79
966.672	-3.49
967.1	-6.19
967.528	0.41
967.956	-5.69
968.383	3.01
968.811	-3.69
969.239	1.91
969.666	-2.49
970.094	0.31
970.522	3.31
970.949	3.21
971.377	-2.19
971.804	-1.19
972.232	-1.79
972.659	-9.39
973.087	-6.09
973.514	-7.99
973.941	-6.79
974.369	2.01
974.796	1.91
975.223	1.31
975.651	-1.39
976.078	0.61
976.505	-0.59
976.932	2.31
977.359	12.51
977.786	10.31
978.214	-5.69
978.641	-8.29
979.068	-5.09
979.495	-0.89
979.922	1.11
980.349	-2.29
980.776	-0.69
981.202	-6.19
981.629	1.81
982.056	5.01
982.483	-0.29
982.91	2.61
983.337	-4.89
983.763	3.61
984.19	-2.99
984.617	-2.19
985.043	-10.39
985.47	-0.29
985.897	-4.29
986.323	-6.89
986.75	3.01
987.176	-1.89
987.603	-1.99
988.029	-5.09
988.456	-3.69
988.882	6.61
989.308	-8.89
989.735	-0.49
990.161	-0.19
990.587	-4.89
991.014	0.21
991.44	2.01
991.866	1.21
992.292	-5.09
992.719	-3.89
993.145	1.91
993.571	-3.69
993.997	-6.89
994.423	2.11
994.849	-4.49
995.275	-0.39
995.701	5.71
996.127	-1.99
996.553	3.41
996.979	-2.59
997.405	2.01
997.83	-4.59
998.256	-6.59
998.682	-9.09
999.108	-9.99
999.534	-5.49
999.959	-1.99
1000.385	1.41
1000.811	2.21
1001.236	-10.09
1001.662	-8.69
1002.087	-10.29
1002.513	2.71
1002.938	-4.09
1003.364	4.01
1003.789	-6.49
1004.215	10.41
1004.64	-3.79
1005.066	2.91
1005.491	7.21
1005.916	-3.39
1006.342	-3.89
1006.767	-8.09
1007.192	3.61
1007.617	-4.29
1008.042	-4.19
1008.468	-3.79
1008.893	-0.89
1009.318	2.81
1009.743	1.31
1010.168	-0.59
1010.593	1.91
1011.018	-6.29
1011.443	-2.09
1011.868	5.91
1012.293	-3.99
1012.718	-4.99
1013.143	-3.69
1013.567	0.01
1013.992	-4.19
1014.417	-14.09
1014.842	-3.79
1015.267	-3.59
1015.691	-4.59
1016.116	5.21
1016.541	-6.69
1016.965	0.61
1017.39	1.11
1017.814	0.61
1018.239	-4.49
1018.663	-10.29
1019.088	-13.09
1019.512	-5.49
1019.937	-3.19
1020.361	-4.29
1020.785	-12.99
1021.21	-3.89
1021.634	-3.89
1022.058	-3.69
1022.483	1.41
1022.907	-0.89
1023.331	-3.49
1023.755	-3.69
1024.179	-0.99
1024.604	-10.29
1025.028	-3.79
1025.452	-6.39
1025.876	-3.49
1026.3	-2.29
1026.724	-15.39
1027.148	-4.39
1027.572	-9.49
1027.996	-3.49
1028.42	-0.99
1028.843	-8.59
1029.267	-4.79
1029.691	2.91
1030.115	-5.99
1030.539	-10.59
1030.962	-11.39
1031.386	-10.99
1031.81	-1.99
1032.233	-0.39
1032.657	0.01
1033.08	-3.89
1033.504	-3.19
1033.927	-1.79
1034.351	-0.39
1034.774	-4.89
1035.198	-3.79
1035.621	-6.79
1036.045	-8.89
1036.468	7.31
1036.891	-10.69
1037.315	-10.09
1037.738	-5.39
1038.161	-3.69
1038.584	-2.79
1039.008	-1.29
1039.431	-7.79
1039.854	-5.29
1040.277	-7.79
1040.7	-11.99
1041.123	-0.99
1041.546	-6.39
1041.969	-5.59
1042.392	-6.39
1042.815	-3.39
1043.238	0.61
1043.661	-0.79
1044.084	0.11
1044.507	-5.19
1044.93	-4.59
1045.352	-1.09
1045.775	-0.69
1046.198	-3.59
1046.621	-3.89
1047.043	3.21
1047.466	3.71
1047.889	-5.59
1048.311	-5.99
1048.734	-1.09
1049.156	-5.19
1049.579	2.31
1050.001	1.91
1050.424	-5.39
1050.846	-0.09
1051.269	-3.29
1051.691	-4.29
1052.113	-1.89
1052.536	2.81
1052.958	1.81
1053.38	-2.99
1053.802	-5.59
1054.225	2.51
1054.647	-9.89
1055.069	-6.89
1055.491	0.21
1055.913	-7.29
1056.335	-0.69
1056.757	1.81
1057.179	-5.59
1057.601	-2.19
1058.023	-3.79
1058.445	-7.89
1058.867	-2.39
1059.289	-6.19
1059.711	-8.49
1060.133	-4.59
1060.555	-3.79
1060.976	-5.49
1061.398	-4.99
1061.82	-11.29
1062.241	-4.79
1062.663	-12.09
1063.085	-0.29
1063.506	-3.49
1063.928	0.81
1064.35	-3.59
1064.771	-10.49
1065.193	-7.99
1065.614	-10.19
1066.035	-0.69
1066.457	-4.89
1066.878	9.71
1067.3	-2.99
1067.721	-6.79
1068.142	-2.99
1068.564	-3.29
1068.985	-5.29
1069.406	-6.79
1069.827	-5.89
1070.248	-3.79
1070.67	-3.19
1071.091	-7.59
1071.512	-0.89
1071.933	-4.59
1072.354	-8.89
1072.775	-10.29
1073.196	-3.19
1073.617	-8.99
1074.038	-8.79
1074.459	-1.69
1074.88	-8.19
1075.3	-2.09
1075.721	-5.99
1076.142	-5.29
1076.563	-0.69
1076.983	-11.59
1077.404	-6.69
1077.825	-11.69
1078.246	-2.09
1078.666	-8.19
1079.087	-4.79
1079.507	-2.49
1079.928	2.51
1080.348	0.81
1080.769	0.81
1081.189	-3.19
1081.61	-7.89
1082.03	-1.89
1082.451	-2.79
1082.871	-1.29
1083.291	-11.09
1083.711	-9.09
1084.132	-2.59
1084.552	-1.39
1084.972	1.01
1085.392	-12.89
1085.813	-8.09
1086.233	-8.79
1086.653	-2.89
1087.073	-4.79
1087.493	-9.99
1087.913	-6.19
1088.333	-4.49
1088.753	-3.99
1089.173	5.51
1089.593	-1.79
1090.013	0.21
1090.433	10.11
1090.852	-12.79
1091.272	3.11
1091.692	-4.59
1092.112	0.21
1092.531	-11.69
1092.951	-8.89
1093.371	0.61
1093.79	-0.39
1094.21	3.21
1094.63	-8.29
1095.049	-8.59
1095.469	1.01
1095.888	-0.19
1096.308	0.51
1096.727	5.61
1097.146	-5.59
1097.566	0.61
1097.985	-5.09
1098.405	-5.49
1098.824	-5.09
1099.243	-3.89
1099.662	-2.79
1100.082	-3.69
1100.501	-4.19
1100.92	-7.39
1101.339	0.01
1101.758	-2.29
