Data from 20171114-ORNL-Ar_H_NY_Subt18_08-03-59-605.txt Node
Date: Tue Nov 14 08:03:59 EST 2017
User: Ender
Spectrometer: HR+D1039
Trigger mode: 0
Integration Time (sec): 2.730000E-2
Scans to average: 10
Electric dark correction enabled: true
Nonlinearity correction enabled: false
Boxcar width: 0
XAxis mode: Wavelengths
Number of Pixels in Spectrum: 2048
>>>>>Begin Spectral Data<<<<<
187.836	-2.19
188.309	-2.19
188.782	-2.19
189.255	-1.49
189.728	-0.29
190.201	6.31
190.674	2.11
191.147	7.61
191.619	-12.49
192.092	-2.79
192.565	2.81
193.038	-2.69
193.511	-0.99
193.984	1.31
194.456	-1.89
194.929	0.11
195.402	1.21
195.874	3.41
196.347	-1.49
196.82	-8.79
197.292	2.71
197.765	-0.19
198.237	-3.89
198.71	3.81
199.182	-5.69
199.655	3.21
200.127	3.41
200.6	-2.29
201.072	-1.39
201.544	-3.79
202.017	-1.59
202.489	5.41
202.961	-3.69
203.433	-4.59
203.906	-9.69
204.378	-11.69
204.85	0.31
205.322	-6.69
205.794	0.31
206.266	-5.59
206.739	-12.19
207.211	7.71
207.683	-3.09
208.155	-0.19
208.627	-9.59
209.099	4.41
209.57	-11.49
210.042	-7.59
210.514	-6.49
210.986	-3.99
211.458	-8.89
211.93	-4.69
212.402	0.71
212.873	-5.59
213.345	-7.39
213.817	-11.29
214.288	-2.09
214.76	-10.29
215.232	-0.19
215.703	0.61
216.175	-3.09
216.646	-4.59
217.118	-11.19
217.589	-0.69
218.061	-3.29
218.532	0.61
219.004	0.71
219.475	-4.89
219.946	-3.09
220.418	-9.49
220.889	2.61
221.36	1.41
221.832	-3.09
222.303	-11.29
222.774	-1.39
223.245	-13.09
223.717	-9.09
224.188	-2.29
224.659	-7.59
225.13	-4.69
225.601	-3.49
226.072	1.21
226.543	-3.69
227.014	2.81
227.485	-5.59
227.956	-7.69
228.427	-3.49
228.898	-2.09
229.369	2.61
229.839	-5.49
230.31	-5.49
230.781	-1.69
231.252	0.71
231.722	-4.69
232.193	-7.79
232.664	-5.89
233.135	-4.09
233.605	-2.59
234.076	-7.59
234.546	0.11
235.017	-2.49
235.487	2.01
235.958	-0.69
236.428	-5.49
236.899	-1.79
237.369	-2.49
237.84	-3.49
238.31	2.81
238.78	2.21
239.251	-7.99
239.721	1.11
240.191	-6.29
240.662	-8.69
241.132	3.41
241.602	-3.09
242.072	1.41
242.542	6.61
243.013	-2.39
243.483	-1.19
243.953	-3.39
244.423	-3.49
244.893	-1.59
245.363	2.91
245.833	-2.49
246.303	-2.19
246.773	6.71
247.243	1.21
247.712	-1.19
248.182	1.61
248.652	-1.19
249.122	-6.89
249.592	8.91
250.061	12.61
250.531	19.61
251.001	2.31
251.471	5.31
251.94	9.51
252.41	-2.79
252.879	-4.89
253.349	10.51
253.818	2.11
254.288	-0.29
254.757	1.71
255.227	-11.29
255.696	0.51
256.166	1.11
256.635	6.11
257.105	2.71
257.574	3.91
258.043	5.81
258.513	2.81
258.982	5.71
259.451	-0.09
259.92	7.01
260.389	6.41
260.859	13.61
261.328	5.31
261.797	6.31
262.266	0.11
262.735	6.21
263.204	5.11
263.673	-7.49
264.142	6.11
264.611	-9.69
265.08	2.71
265.549	-4.99
266.018	0.41
266.487	-6.99
266.955	-6.79
267.424	-4.69
267.893	1.41
268.362	-1.09
268.83	1.51
269.299	11.41
269.768	2.71
270.236	4.11
270.705	0.31
271.174	7.81
271.642	13.81
272.111	1.41
272.579	7.81
273.048	3.21
273.516	7.41
273.985	11.61
274.453	7.81
274.922	11.41
275.39	7.11
275.858	-5.29
276.327	5.51
276.795	14.31
277.263	2.21
277.731	17.81
278.2	26.21
278.668	31.31
279.136	20.51
279.604	7.91
280.072	10.91
280.54	3.91
281.008	5.81
281.477	8.51
281.945	1.21
282.413	8.01
282.881	10.31
283.348	0.41
283.816	7.61
284.284	10.81
284.752	17.41
285.22	8.41
285.688	4.11
286.156	9.91
286.623	21.91
287.091	24.11
287.559	12.21
288.026	8.31
288.494	8.21
288.962	2.21
289.429	5.61
289.897	13.61
290.364	14.91
290.832	10.41
291.3	10.61
291.767	14.31
292.234	10.21
292.702	6.51
293.169	14.11
293.637	13.21
294.104	8.41
294.571	2.81
295.039	5.91
295.506	4.21
295.973	10.61
296.44	9.61
296.908	11.81
297.375	6.61
297.842	6.41
298.309	14.51
298.776	6.91
299.243	7.41
299.71	3.81
300.177	10.91
300.644	16.91
301.111	13.51
301.578	15.31
302.045	6.91
302.512	9.51
302.979	17.61
303.446	17.01
303.913	7.51
304.379	8.31
304.846	18.61
305.313	18.01
305.78	8.71
306.246	14.61
306.713	15.11
307.18	15.01
307.646	18.31
308.113	16.11
308.579	17.31
309.046	14.01
309.512	17.91
309.979	7.61
310.445	16.61
310.912	21.01
311.378	22.31
311.845	23.51
312.311	23.31
312.777	19.81
313.244	20.41
313.71	29.01
314.176	24.01
314.642	17.81
315.109	19.31
315.575	26.61
316.041	25.21
316.507	19.11
316.973	20.91
317.439	24.81
317.905	24.01
318.371	27.11
318.837	20.71
319.303	23.11
319.769	23.51
320.235	18.91
320.701	23.61
321.167	22.21
321.633	19.61
322.099	23.81
322.564	35.51
323.03	31.01
323.496	26.11
323.962	28.91
324.427	28.21
324.893	31.91
325.359	32.21
325.824	35.71
326.29	27.41
326.755	28.61
327.221	30.31
327.686	29.41
328.152	33.61
328.617	34.71
329.083	38.31
329.548	39.81
330.014	38.51
330.479	29.01
330.944	36.01
331.41	33.41
331.875	37.61
332.34	33.21
332.805	30.91
333.271	31.51
333.736	32.41
334.201	41.31
334.666	35.21
335.131	42.41
335.596	38.31
336.061	37.01
336.526	30.91
336.991	41.01
337.456	48.81
337.921	34.61
338.386	35.01
338.851	35.51
339.316	39.91
339.781	35.01
340.246	40.11
340.711	37.71
341.175	47.11
341.64	36.71
342.105	39.21
342.569	40.61
343.034	42.11
343.499	44.21
343.963	40.61
344.428	51.21
344.893	40.01
345.357	51.71
345.822	49.41
346.286	45.01
346.751	53.81
347.215	50.51
347.679	56.11
348.144	64.71
348.608	61.91
349.073	50.81
349.537	61.31
350.001	57.01
350.465	64.41
350.93	56.61
351.394	67.21
351.858	55.11
352.322	67.71
352.786	66.21
353.25	68.61
353.715	77.81
354.179	71.41
354.643	89.41
355.107	94.41
355.571	84.81
356.035	86.11
356.498	85.21
356.962	86.91
357.426	94.81
357.89	93.41
358.354	70.81
358.818	71.71
359.281	61.51
359.745	59.91
360.209	59.21
360.673	60.31
361.136	64.01
361.6	72.01
362.064	72.91
362.527	70.71
362.991	78.41
363.454	65.11
363.918	65.31
364.381	66.41
364.845	61.51
365.308	65.71
365.772	76.61
366.235	71.81
366.698	72.41
367.162	73.61
367.625	74.01
368.088	74.51
368.552	75.21
369.015	79.11
369.478	88.31
369.941	83.41
370.404	80.21
370.867	82.41
371.331	88.81
371.794	95.11
372.257	91.41
372.72	99.91
373.183	88.31
373.646	89.41
374.109	90.41
374.572	92.81
375.035	83.91
375.497	84.61
375.96	87.61
376.423	89.21
376.886	95.71
377.349	96.81
377.811	88.81
378.274	89.21
378.737	96.31
379.199	100.21
379.662	97.21
380.125	100.61
380.587	101.01
381.05	93.31
381.512	113.11
381.975	115.11
382.437	118.61
382.9	113.21
383.362	117.61
383.825	117.51
384.287	121.61
384.75	119.71
385.212	119.61
385.674	122.21
386.136	121.11
386.599	109.91
387.061	118.21
387.523	120.71
387.985	118.21
388.447	120.61
388.91	122.11
389.372	134.21
389.834	124.71
390.296	124.31
390.758	128.61
391.22	140.51
391.682	162.91
392.144	220.51
392.606	185.01
393.068	141.01
393.529	145.71
393.991	130.51
394.453	128.21
394.915	132.71
395.377	161.31
395.838	170.31
396.3	132.31
396.762	124.11
397.224	121.61
397.685	121.21
398.147	120.91
398.608	117.41
399.07	119.91
399.531	126.31
399.993	128.91
400.454	135.21
400.916	130.11
401.377	129.81
401.839	133.21
402.3	137.81
402.762	153.21
403.223	166.31
403.684	157.21
404.145	142.81
404.607	149.91
405.068	151.51
405.529	152.41
405.99	158.41
406.451	156.01
406.913	164.01
407.374	153.41
407.835	146.51
408.296	150.61
408.757	159.11
409.218	165.31
409.679	157.31
410.14	154.91
410.601	160.21
411.062	166.91
411.522	170.61
411.983	171.11
412.444	158.51
412.905	168.11
413.366	168.31
413.826	186.41
414.287	198.81
414.748	248.21
415.208	231.91
415.669	201.61
416.13	187.41
416.59	184.21
417.051	198.01
417.511	202.41
417.972	221.31
418.432	228.61
418.893	271.91
419.353	239.31
419.814	185.61
420.274	169.91
420.734	160.01
421.195	180.61
421.655	178.11
422.115	172.01
422.576	175.51
423.036	181.41
423.496	191.21
423.956	198.31
424.416	213.61
424.876	247.91
425.336	243.61
425.797	235.41
426.257	233.51
426.717	214.41
427.177	219.51
427.637	201.61
428.097	211.31
428.556	225.51
429.016	248.01
429.476	237.51
429.936	244.91
430.396	254.11
430.856	263.11
431.315	286.21
431.775	308.61
432.235	347.11
432.694	315.51
433.154	324.21
433.614	341.41
434.073	295.81
434.533	254.31
434.993	239.11
435.452	250.21
435.912	251.01
436.371	246.71
436.83	243.81
437.29	234.61
437.749	221.31
438.209	211.01
438.668	235.71
439.127	245.61
439.587	230.31
440.046	214.81
440.505	218.61
440.964	232.41
441.424	264.61
441.883	256.91
442.342	227.41
442.801	203.41
443.26	203.41
443.719	196.61
444.178	198.61
444.637	193.21
445.096	204.11
445.555	199.61
446.014	206.81
446.473	209.51
446.932	205.31
447.391	201.91
447.849	212.51
448.308	204.91
448.767	205.61
449.226	209.81
449.685	223.01
450.143	226.11
450.602	217.71
451.061	206.61
451.519	207.81
451.978	212.71
452.436	205.11
452.895	212.11
453.353	227.31
453.812	218.61
454.27	220.51
454.729	218.21
455.187	209.81
455.646	213.01
456.104	214.91
456.562	226.71
457.021	233.31
457.479	217.71
457.937	232.21
458.395	230.41
458.854	219.21
459.312	229.71
459.77	230.91
460.228	229.41
460.686	219.11
461.144	230.51
461.602	226.51
462.06	223.61
462.518	231.51
462.976	229.81
463.434	235.51
463.892	239.41
464.35	241.11
464.808	250.41
465.266	239.81
465.724	240.71
466.181	245.21
466.639	246.51
467.097	256.51
467.555	268.41
468.012	262.81
468.47	276.31
468.928	289.71
469.385	303.01
469.843	302.41
470.3	301.51
470.758	317.11
471.215	325.51
471.673	347.71
472.13	339.51
472.588	354.61
473.045	323.71
473.503	335.51
473.96	347.21
474.417	354.71
474.875	383.01
475.332	405.71
475.789	404.81
476.246	418.11
476.704	425.51
477.161	449.61
477.618	458.31
478.075	482.11
478.532	526.61
478.989	584.71
479.446	673.21
479.903	670.11
480.36	717.21
480.817	752.61
481.274	842.01
481.731	934.41
482.188	1014.91
482.645	1129.41
483.102	1222.91
483.558	1334.21
484.015	1389.81
484.472	1391.51
484.929	1337.41
485.385	1291.01
485.842	1240.41
486.299	1193.61
486.755	1117.21
487.212	946.61
487.668	826.41
488.125	759.61
488.582	695.91
489.038	660.51
489.494	619.31
489.951	606.91
490.407	589.61
490.864	567.71
491.32	567.21
491.776	571.21
492.233	564.81
492.689	529.41
493.145	527.01
493.602	523.01
494.058	531.61
494.514	539.41
494.97	551.51
495.426	556.31
495.882	539.21
496.338	532.91
496.794	547.71
497.251	534.01
497.707	546.11
498.163	552.01
498.618	546.01
499.074	557.61
499.53	561.71
499.986	568.61
500.442	559.01
500.898	547.01
501.354	535.21
501.809	536.41
502.265	556.81
502.721	561.81
503.177	559.81
503.632	568.51
504.088	584.81
504.543	587.71
504.999	598.41
505.455	553.71
505.91	546.41
506.366	549.11
506.821	540.91
507.277	544.71
507.732	548.11
508.187	545.31
508.643	558.71
509.098	556.11
509.553	565.71
510.009	575.91
510.464	580.51
510.919	594.51
511.375	601.71
511.83	606.51
512.285	624.21
512.74	648.21
513.195	656.11
513.65	652.81
514.105	655.71
514.56	660.31
515.015	685.11
515.47	684.21
515.925	673.81
516.38	674.91
516.835	684.01
517.29	673.71
517.745	673.61
518.2	649.81
518.655	642.91
519.109	642.11
519.564	630.21
520.019	624.71
520.474	621.91
520.928	621.41
521.383	619.01
521.838	600.01
522.292	605.71
522.747	606.51
523.201	595.01
523.656	590.31
524.11	586.11
524.565	591.41
525.019	587.21
525.474	592.41
525.928	590.81
526.382	592.81
526.837	586.31
527.291	591.41
527.745	591.11
528.2	588.51
528.654	590.01
529.108	580.81
529.562	575.81
530.016	571.71
530.47	577.41
530.925	574.81
531.379	578.41
531.833	582.21
532.287	589.31
532.741	592.51
533.195	595.41
533.649	594.01
534.103	597.81
534.556	582.71
535.01	584.11
535.464	583.71
535.918	602.81
536.372	590.91
536.826	590.11
537.279	584.81
537.733	581.21
538.187	584.61
538.64	593.41
539.094	604.91
539.548	604.51
540.001	592.71
540.455	589.61
540.908	603.31
541.362	610.51
541.815	612.01
542.269	630.61
542.722	625.91
543.175	630.61
543.629	630.61
544.082	648.21
544.536	641.01
544.989	647.01
545.442	646.31
545.895	650.71
546.349	650.81
546.802	647.51
547.255	655.61
547.708	668.11
548.161	672.81
548.614	677.71
549.067	680.11
549.52	662.01
549.973	666.71
550.426	665.01
550.879	659.51
551.332	649.21
551.785	662.51
552.238	647.11
552.691	665.91
553.144	677.11
553.596	689.11
554.049	702.01
554.502	715.91
554.955	733.31
555.407	750.41
555.86	726.91
556.313	728.81
556.765	715.41
557.218	712.51
557.67	702.41
558.123	707.01
558.576	706.71
559.028	703.11
559.48	713.41
559.933	710.91
560.385	684.91
560.838	665.41
561.29	634.71
561.742	633.81
562.195	619.31
562.647	614.11
563.099	625.41
563.551	620.51
564.004	635.71
564.456	617.91
564.908	613.91
565.36	608.91
565.812	589.61
566.264	570.21
566.716	574.11
567.168	558.21
567.62	571.51
568.072	544.51
568.524	547.01
568.976	545.81
569.428	535.11
569.88	530.51
570.332	542.31
570.784	547.81
571.235	533.51
571.687	544.21
572.139	551.71
572.59	562.61
573.042	564.51
573.494	558.31
573.945	552.51
574.397	534.21
574.849	538.21
575.3	540.31
575.752	538.01
576.203	533.31
576.655	540.81
577.106	523.51
577.557	519.31
578.009	524.91
578.46	517.11
578.912	512.91
579.363	509.11
579.814	515.61
580.265	515.21
580.717	514.71
581.168	521.31
581.619	525.81
582.07	528.01
582.521	520.81
582.972	516.91
583.423	530.51
583.875	528.01
584.326	545.41
584.777	566.11
585.227	620.81
585.678	677.71
586.129	732.11
586.58	786.41
587.031	834.31
587.482	967.61
587.933	1092.91
588.384	959.21
588.834	732.71
589.285	614.61
589.736	609.81
590.186	589.31
590.637	596.81
591.088	573.51
591.538	564.01
591.989	558.31
592.439	558.81
592.89	548.01
593.34	531.11
593.791	529.11
594.241	530.71
594.692	541.21
595.142	525.51
595.593	533.71
596.043	543.11
596.493	543.81
596.943	548.51
597.394	548.21
597.844	535.31
598.294	547.71
598.744	564.51
599.195	585.91
599.645	621.81
600.095	651.01
600.545	700.91
600.995	735.11
601.445	774.91
601.895	818.21
602.345	862.71
602.795	850.01
603.245	803.51
603.695	769.61
604.145	720.81
604.594	700.31
605.044	645.11
605.494	601.01
605.944	559.71
606.393	561.51
606.843	549.61
607.293	548.91
607.743	547.11
608.192	542.41
608.642	563.21
609.091	558.71
609.541	570.01
609.99	570.51
610.44	558.01
610.889	536.11
611.339	524.91
611.788	512.51
612.238	513.21
612.687	533.21
613.136	531.71
613.586	539.01
614.035	535.01
614.484	555.41
614.933	552.01
615.383	554.11
615.832	541.01
616.281	536.61
616.73	502.31
617.179	489.71
617.628	478.91
618.077	473.41
618.526	463.61
618.975	458.41
619.424	453.61
619.873	450.31
620.322	459.21
620.771	444.01
621.22	442.11
621.669	437.51
622.118	429.01
622.567	426.31
623.015	407.31
623.464	405.51
623.913	405.81
624.361	407.51
624.81	407.81
625.259	408.71
625.707	408.31
626.156	401.11
626.604	418.21
627.053	408.21
627.501	412.61
627.95	410.61
628.398	422.71
628.847	412.81
629.295	415.61
629.744	419.01
630.192	411.41
630.64	409.81
631.089	406.41
631.537	409.11
631.985	401.91
632.433	415.01
632.881	411.91
633.33	432.61
633.778	428.11
634.226	387.71
634.674	406.21
635.122	406.51
635.57	425.81
636.018	428.61
636.466	418.61
636.914	401.31
637.362	412.01
637.81	420.61
638.258	415.31
638.705	419.51
639.153	441.71
639.601	447.91
640.049	463.31
640.497	484.41
640.944	511.41
641.392	464.21
641.84	441.21
642.287	420.51
642.735	409.91
643.182	401.01
643.63	412.51
644.078	411.91
644.525	432.91
644.973	418.41
645.42	433.51
645.867	444.01
646.315	451.71
646.762	468.71
647.21	490.71
647.657	505.41
648.104	547.81
648.551	549.41
648.999	601.01
649.446	652.51
649.893	700.01
650.34	804.71
650.787	966.41
651.234	1192.61
651.682	1549.31
652.129	2102.41
652.576	2997.21
653.023	4442.31
653.47	6207.71
653.917	7817.31
654.363	9269.61
654.81	10489.51
655.257	9995.91
655.704	6505.21
656.151	3780.51
656.598	2452.11
657.044	1737.71
657.491	1321.91
657.938	1061.01
658.385	889.91
658.831	767.21
659.278	688.11
659.724	606.11
660.171	565.41
660.618	513.11
661.064	481.21
661.511	462.71
661.957	446.51
662.404	430.21
662.85	432.51
663.296	425.71
663.743	396.11
664.189	377.21
664.635	378.51
665.082	379.41
665.528	372.01
665.974	363.51
666.42	363.21
666.867	352.91
667.313	340.81
667.759	345.61
668.205	340.31
668.651	344.91
669.097	343.01
669.543	349.11
669.989	331.61
670.435	323.41
670.881	312.51
671.327	320.11
671.773	332.71
672.219	346.51
672.665	380.61
673.11	413.01
673.556	440.81
674.002	483.71
674.448	470.41
674.893	400.01
675.339	343.91
675.785	314.51
676.23	302.41
676.676	277.01
677.122	276.41
677.567	258.51
678.013	255.31
678.458	257.41
678.904	248.41
679.349	235.31
679.794	250.81
680.24	240.81
680.685	248.11
681.131	245.31
681.576	247.01
682.021	247.51
682.466	244.91
682.912	242.01
683.357	239.21
683.802	272.11
684.247	280.11
684.692	313.21
685.137	338.21
685.583	374.51
686.028	404.11
686.473	367.01
686.918	314.01
687.363	294.31
687.807	283.61
688.252	252.61
688.697	253.01
689.142	236.21
689.587	234.31
690.032	226.01
690.477	236.01
690.921	247.91
691.366	268.81
691.811	274.81
692.255	302.11
692.7	323.71
693.145	356.81
693.589	475.21
694.034	773.81
694.478	1077.01
694.923	1254.51
695.367	1690.11
695.812	869.11
696.256	356.31
696.701	260.71
697.145	235.71
697.59	233.21
698.034	217.71
698.478	232.71
698.922	223.51
699.367	230.71
699.811	231.91
700.255	245.11
700.699	267.01
701.143	292.21
701.588	339.71
702.032	369.11
702.476	357.81
702.92	339.21
703.364	340.61
703.808	424.21
704.252	705.81
704.696	1000.31
705.14	1209.11
705.584	1569.01
706.027	775.81
706.471	376.61
706.915	279.91
707.359	250.01
707.803	231.81
708.246	218.01
708.69	220.01
709.134	221.61
709.577	218.61
710.021	224.31
710.465	211.51
710.908	202.31
711.352	210.71
711.795	215.21
712.239	244.31
712.682	264.11
713.126	290.21
713.569	333.81
714.012	256.81
714.456	222.71
714.899	207.41
715.342	189.21
715.786	178.01
716.229	186.41
716.672	181.41
717.115	174.31
717.558	171.21
718.002	174.91
718.445	182.41
718.888	200.51
719.331	203.61
719.774	210.41
720.217	210.91
720.66	195.91
721.103	185.41
721.546	178.01
721.989	172.41
722.432	159.71
722.874	165.11
723.317	150.11
723.76	161.01
724.203	174.51
724.645	224.11
725.088	300.31
725.531	393.51
725.974	463.31
726.416	395.81
726.859	213.71
727.301	171.21
727.744	164.51
728.187	163.61
728.629	171.41
729.071	170.61
729.514	188.91
729.956	191.51
730.399	198.11
730.841	200.11
731.283	195.61
731.726	185.21
732.168	180.91
732.61	188.71
733.053	185.41
733.495	216.21
733.937	242.81
734.379	279.61
734.821	300.41
735.263	361.71
735.705	560.81
736.148	1061.91
736.59	1816.21
737.032	2266.81
737.474	1846.41
737.916	582.21
738.357	296.81
738.799	224.31
739.241	210.11
739.683	192.41
740.125	206.61
740.567	202.21
741.008	230.51
741.45	224.81
741.892	222.31
742.334	246.61
742.775	254.81
743.217	246.71
743.658	190.71
744.1	174.21
744.542	178.11
744.983	216.01
745.425	254.31
745.866	246.71
746.307	202.51
746.749	195.21
747.19	226.91
747.632	304.51
748.073	580.71
748.514	1257.41
748.956	2036.81
749.397	2524.01
749.838	2111.21
750.279	2205.81
750.72	1108.71
751.162	387.61
751.603	230.51
752.044	179.81
752.485	150.21
752.926	141.41
753.367	139.41
753.808	137.21
754.249	133.51
754.69	130.81
755.131	127.91
755.572	115.81
756.013	116.11
756.453	126.11
756.894	131.81
757.335	126.81
757.776	135.31
758.216	137.21
758.657	135.51
759.098	139.41
759.538	156.91
759.979	186.11
760.42	251.11
760.86	471.31
761.301	1243.91
761.741	3086.31
762.182	4896.81
762.622	3463.41
763.063	965.41
763.503	387.71
763.943	244.91
764.384	230.81
764.824	274.61
765.264	296.51
765.705	204.61
766.145	135.41
766.585	127.21
767.025	116.01
767.465	124.11
767.906	158.01
768.346	215.01
768.786	228.91
769.226	174.71
769.666	225.31
770.106	410.41
770.546	1060.21
770.986	1925.61
771.426	1771.71
771.866	576.21
772.306	237.01
772.745	148.81
773.185	115.31
773.625	119.91
774.065	117.11
774.505	134.41
774.944	194.01
775.384	405.41
775.824	778.91
776.263	782.81
776.703	331.01
777.142	147.31
777.582	109.51
778.021	91.31
778.461	98.11
778.9	89.71
779.34	94.81
779.779	80.21
780.219	73.71
780.658	69.91
781.097	73.51
781.537	78.01
781.976	71.21
782.415	73.91
782.855	69.81
783.294	68.31
783.733	73.51
784.172	72.41
784.611	67.41
785.05	72.41
785.489	72.81
785.928	83.61
786.367	82.81
786.806	79.31
787.245	88.21
787.684	98.21
788.123	105.11
788.562	93.01
789.001	83.91
789.44	81.91
789.879	77.21
790.317	80.21
790.756	85.21
791.195	89.11
791.634	93.31
792.072	142.71
792.511	238.41
792.95	675.41
793.388	1549.61
793.827	1453.51
794.265	493.81
794.704	199.51
795.142	134.61
795.581	103.91
796.019	93.91
796.458	84.91
796.896	82.71
797.334	91.21
797.773	104.01
798.211	149.81
798.649	291.51
799.087	704.91
799.526	1137.31
799.964	1441.01
800.402	1513.81
800.84	553.31
801.278	207.81
801.716	133.31
802.154	106.61
802.592	105.01
803.03	94.91
803.468	82.91
803.906	96.81
804.344	106.41
804.782	93.71
805.22	95.51
805.658	87.51
806.096	102.31
806.533	107.11
806.971	126.01
807.409	152.81
807.847	219.31
808.284	448.31
808.722	1307.61
809.16	2448.81
809.597	2222.81
810.035	4018.91
810.472	4545.11
810.91	1588.81
811.347	589.11
811.785	290.01
812.222	185.21
812.66	135.31
813.097	118.81
813.535	101.51
813.972	92.81
814.409	79.21
814.846	71.71
815.284	74.51
815.721	67.51
816.158	69.31
816.595	82.21
817.032	120.71
817.47	141.11
817.907	117.81
818.344	82.61
818.781	77.31
819.218	71.91
819.655	85.11
820.092	133.91
820.529	162.51
820.966	131.91
821.403	89.31
821.839	79.71
822.276	64.21
822.713	93.41
823.15	90.21
823.587	83.11
824.023	99.61
824.46	200.21
824.897	627.31
825.333	1009.41
825.77	432.21
826.206	160.51
826.643	92.51
827.08	73.71
827.516	55.91
827.953	53.71
828.389	56.91
828.825	51.01
829.262	45.41
829.698	44.81
830.135	47.61
830.571	43.31
831.007	37.01
831.443	39.31
831.88	40.91
832.316	36.81
832.752	40.21
833.188	40.61
833.624	41.71
834.06	47.31
834.497	49.41
834.933	51.81
835.369	54.01
835.805	48.01
836.241	54.81
836.677	57.91
837.112	53.61
837.548	63.51
837.984	87.11
838.42	138.31
838.856	328.51
839.292	1080.41
839.727	1740.41
840.163	801.51
840.599	640.81
841.034	1473.01
841.47	1652.01
841.906	579.31
842.341	244.21
842.777	156.01
843.212	198.41
843.648	213.51
844.083	101.01
844.519	62.31
844.954	56.91
845.39	47.21
845.825	37.61
846.261	38.81
846.696	35.31
847.131	39.21
847.566	43.11
848.002	38.71
848.437	34.21
848.872	45.71
849.307	40.31
849.742	59.81
850.177	123.41
850.613	385.41
851.048	652.91
851.483	274.91
851.918	109.91
852.353	60.81
852.788	44.41
853.223	38.21
853.657	42.01
854.092	36.41
854.527	30.21
854.962	29.01
855.397	26.01
855.832	39.31
856.266	27.61
856.701	27.71
857.136	22.81
857.57	23.61
858.005	35.21
858.44	41.01
858.874	30.31
859.309	42.11
859.743	22.91
860.178	30.61
860.612	28.71
861.047	39.81
861.481	46.01
861.915	51.01
862.35	31.91
862.784	23.21
863.218	25.71
863.653	23.81
864.087	32.81
864.521	41.11
864.955	48.71
865.39	112.41
865.824	117.91
866.258	81.41
866.692	131.51
867.126	137.91
867.56	83.01
867.994	34.01
868.428	29.41
868.862	25.91
869.296	44.01
869.73	43.51
870.164	46.21
870.598	34.61
871.031	23.81
871.465	19.91
871.899	17.01
872.333	15.11
872.766	16.21
873.2	16.61
873.634	21.61
874.067	17.21
874.501	14.41
874.935	25.61
875.368	17.31
875.802	14.71
876.235	19.41
876.669	13.71
877.102	11.61
877.535	19.81
877.969	12.21
878.402	17.51
878.836	8.71
879.269	21.91
879.702	13.91
880.135	12.01
880.569	9.41
881.002	21.61
881.435	15.41
881.868	12.71
882.301	20.21
882.734	11.71
883.167	13.91
883.601	9.11
884.034	11.11
884.467	10.91
884.899	13.61
885.332	8.91
885.765	4.11
886.198	15.51
886.631	8.81
887.064	13.91
887.497	12.51
887.929	18.71
888.362	8.01
888.795	11.21
889.228	11.41
889.66	10.41
890.093	6.11
890.526	11.61
890.958	9.11
891.391	8.11
891.823	15.61
892.256	5.71
892.688	8.11
893.121	13.31
893.553	15.61
893.985	19.91
894.418	12.71
894.85	10.71
895.282	10.21
895.715	14.71
896.147	15.11
896.579	9.51
897.011	6.21
897.444	12.01
897.876	14.01
898.308	12.01
898.74	12.51
899.172	6.31
899.604	22.31
900.036	16.11
900.468	7.61
900.9	8.11
901.332	17.21
901.764	9.51
902.196	11.51
902.628	11.81
903.06	8.41
903.491	23.31
903.923	13.91
904.355	10.91
904.787	19.91
905.218	12.41
905.65	13.51
906.082	9.21
906.513	4.51
906.945	7.91
907.376	7.31
907.808	9.21
908.239	15.11
908.671	16.01
909.102	10.51
909.534	21.11
909.965	35.01
910.397	66.11
910.828	231.01
911.259	366.51
911.691	162.11
912.122	79.31
912.553	34.31
912.984	27.21
913.415	22.31
913.847	14.31
914.278	6.21
914.709	5.01
915.14	14.41
915.571	12.51
916.002	-0.49
916.433	14.31
916.864	9.71
917.295	10.21
917.726	12.41
918.157	11.41
918.587	21.91
919.018	12.31
919.449	10.81
919.88	15.41
920.311	23.71
920.741	35.41
921.172	121.01
921.603	114.11
922.033	47.71
922.464	32.21
922.895	15.31
923.325	14.51
923.756	10.41
924.186	5.31
924.617	19.91
925.047	29.51
925.478	36.61
925.908	31.41
926.338	19.71
926.769	4.71
927.199	8.21
927.629	4.31
928.06	7.71
928.49	11.41
928.92	8.81
929.35	6.51
929.78	5.01
930.21	0.51
930.641	4.51
931.071	7.01
931.501	-1.29
931.931	5.81
932.361	1.31
932.791	-3.89
933.221	3.91
933.651	4.11
934.08	12.51
934.51	21.51
934.94	3.91
935.37	4.21
935.8	7.01
936.229	5.01
936.659	10.01
937.089	3.31
937.519	8.81
937.948	19.81
938.378	13.31
938.807	4.01
939.237	5.21
939.666	4.31
940.096	-3.69
940.525	-1.19
940.955	2.01
941.384	-3.39
941.814	-7.09
942.243	-2.89
942.672	8.31
943.102	-0.79
943.531	-2.89
943.96	6.81
944.39	-0.29
944.819	1.41
945.248	1.11
945.677	3.31
946.106	2.81
946.535	4.21
946.964	1.61
947.393	9.21
947.822	1.51
948.251	-7.39
948.68	5.61
949.109	2.41
949.538	5.21
949.967	0.31
950.396	8.81
950.825	0.01
951.254	-0.19
951.682	-7.69
952.111	-0.09
952.54	3.71
952.969	-6.39
953.397	-1.29
953.826	5.61
954.254	-6.29
954.683	2.81
955.112	-5.29
955.54	2.31
955.969	-3.09
956.397	-1.99
956.826	-6.29
957.254	-0.69
957.682	2.01
958.111	3.51
958.539	-0.59
958.967	2.11
959.396	0.21
959.824	-5.39
960.252	4.71
960.68	-5.09
961.109	-1.69
961.537	-4.99
961.965	1.51
962.393	0.01
962.821	-2.99
963.249	1.21
963.677	1.01
964.105	1.51
964.533	33.31
964.961	31.81
965.389	17.31
965.817	9.91
966.245	2.51
966.672	0.21
967.1	-7.49
967.528	0.01
967.956	-4.49
968.383	2.01
968.811	-5.99
969.239	1.81
969.666	-0.69
970.094	-4.29
970.522	-4.99
970.949	-2.99
971.377	-3.89
971.804	-1.29
972.232	-1.49
972.659	-3.89
973.087	-4.99
973.514	-1.59
973.941	-8.09
974.369	-2.99
974.796	-1.79
975.223	2.81
975.651	-5.49
976.078	0.51
976.505	0.41
976.932	1.91
977.359	10.61
977.786	15.91
978.214	0.51
978.641	-1.99
979.068	-3.19
979.495	-3.19
979.922	-7.39
980.349	5.01
980.776	0.91
981.202	1.21
981.629	-0.19
982.056	9.51
982.483	1.11
982.91	5.71
983.337	-5.09
983.763	8.01
984.19	-3.59
984.617	-4.49
985.043	-10.49
985.47	-4.79
985.897	-2.29
986.323	-4.49
986.75	-3.99
987.176	-0.39
987.603	-6.79
988.029	-1.09
988.456	-2.19
988.882	2.51
989.308	-12.39
989.735	-1.19
990.161	-2.39
990.587	-3.19
991.014	2.41
991.44	0.61
991.866	-7.09
992.292	-5.19
992.719	-6.49
993.145	0.81
993.571	-5.99
993.997	0.51
994.423	-1.79
994.849	-5.99
995.275	-4.39
995.701	-4.99
996.127	-4.69
996.553	-2.89
996.979	-9.39
997.405	3.01
997.83	-2.29
998.256	-2.09
998.682	-5.49
999.108	-6.49
999.534	-4.59
999.959	-6.59
1000.385	-1.49
1000.811	-1.99
1001.236	-9.19
1001.662	-11.19
1002.087	-8.69
1002.513	5.11
1002.938	0.91
1003.364	1.71
1003.789	-4.29
1004.215	3.21
1004.64	-3.19
1005.066	-0.79
1005.491	-3.99
1005.916	2.11
1006.342	-2.79
1006.767	-8.29
1007.192	3.31
1007.617	-3.59
1008.042	-0.59
1008.468	-9.19
1008.893	1.21
1009.318	-1.39
1009.743	-14.39
1010.168	-2.09
1010.593	1.41
1011.018	-9.19
1011.443	-8.79
1011.868	-1.19
1012.293	-3.19
1012.718	-5.49
1013.143	-4.89
1013.567	1.01
1013.992	-3.59
1014.417	-7.79
1014.842	3.81
1015.267	-6.19
1015.691	2.51
1016.116	5.31
1016.541	3.21
1016.965	-6.19
1017.39	1.11
1017.814	-4.59
1018.239	-0.39
1018.663	-6.09
1019.088	-11.69
1019.512	-5.19
1019.937	-4.79
1020.361	-6.59
1020.785	-7.79
1021.21	-3.79
1021.634	-6.09
1022.058	-3.49
1022.483	-0.39
1022.907	-4.79
1023.331	-0.19
1023.755	-6.19
1024.179	-2.69
1024.604	-9.09
1025.028	-4.49
1025.452	-5.09
1025.876	0.81
1026.3	-2.59
1026.724	-11.69
1027.148	0.71
1027.572	-8.99
1027.996	-2.89
1028.42	-2.39
1028.843	-1.79
1029.267	-9.89
1029.691	-5.19
1030.115	-8.89
1030.539	-7.39
1030.962	-6.99
1031.386	-11.39
1031.81	2.31
1032.233	-7.89
1032.657	-4.29
1033.08	-3.89
1033.504	-1.69
1033.927	-6.19
1034.351	3.41
1034.774	-4.69
1035.198	2.21
1035.621	-2.59
1036.045	-6.79
1036.468	-2.49
1036.891	-8.39
1037.315	-7.19
1037.738	-19.09
1038.161	-6.19
1038.584	-2.29
1039.008	-9.19
1039.431	-1.59
1039.854	-3.99
1040.277	-5.79
1040.7	-8.49
1041.123	2.31
1041.546	-7.69
1041.969	-2.99
1042.392	-3.49
1042.815	-0.69
1043.238	-5.99
1043.661	3.91
1044.084	-5.79
1044.507	-4.29
1044.93	-0.19
1045.352	-2.69
1045.775	-3.19
1046.198	-1.29
1046.621	-3.39
1047.043	-7.19
1047.466	7.51
1047.889	-4.79
1048.311	-8.79
1048.734	-2.69
1049.156	-6.69
1049.579	-6.09
1050.001	-3.79
1050.424	-0.79
1050.846	-4.79
1051.269	-4.09
1051.691	-6.99
1052.113	3.31
1052.536	2.61
1052.958	1.51
1053.38	-2.69
1053.802	-14.29
1054.225	-6.39
1054.647	-7.19
1055.069	-1.99
1055.491	3.51
1055.913	-9.09
1056.335	2.11
1056.757	-5.29
1057.179	-7.39
1057.601	-7.69
1058.023	-5.89
1058.445	-5.69
1058.867	-2.79
1059.289	-6.19
1059.711	-8.29
1060.133	4.11
1060.555	-5.79
1060.976	-6.79
1061.398	-2.69
1061.82	-3.79
1062.241	-4.79
1062.663	-10.49
1063.085	-3.79
1063.506	-7.19
1063.928	-1.69
1064.35	-4.99
1064.771	-10.49
1065.193	-4.09
1065.614	-7.49
1066.035	-0.29
1066.457	1.51
1066.878	1.41
1067.3	-9.29
1067.721	-0.99
1068.142	-2.49
1068.564	-4.19
1068.985	-3.59
1069.406	-6.89
1069.827	-6.39
1070.248	-1.49
1070.67	-9.29
1071.091	-3.29
1071.512	0.21
1071.933	-2.79
1072.354	-8.19
1072.775	-7.69
1073.196	-6.09
1073.617	-2.09
1074.038	-11.79
1074.459	-7.69
1074.88	-7.69
1075.3	3.91
1075.721	-8.99
1076.142	1.01
1076.563	-0.79
1076.983	-10.79
1077.404	-3.09
1077.825	-8.69
1078.246	-3.99
1078.666	-9.79
1079.087	-2.29
1079.507	-8.19
1079.928	6.21
1080.348	-9.09
1080.769	-9.99
1081.189	0.51
1081.61	0.11
1082.03	-5.29
1082.451	-2.89
1082.871	-7.09
1083.291	-6.09
1083.711	-10.39
1084.132	-9.99
1084.552	-8.89
1084.972	-2.09
1085.392	-13.79
1085.813	-10.09
1086.233	-9.99
1086.653	-6.29
1087.073	-0.99
1087.493	-6.79
1087.913	-6.59
1088.333	-0.29
1088.753	-9.89
1089.173	-1.19
1089.593	-5.89
1090.013	-1.39
1090.433	0.21
1090.852	-6.89
1091.272	-5.69
1091.692	-4.29
1092.112	-8.29
1092.531	-10.99
1092.951	-12.59
1093.371	-7.39
1093.79	-1.99
1094.21	-6.39
1094.63	1.61
1095.049	-4.79
1095.469	-3.79
1095.888	-1.39
1096.308	-2.79
1096.727	3.61
1097.146	-5.99
1097.566	-4.09
1097.985	-6.39
1098.405	-10.79
1098.824	-7.69
1099.243	-4.09
1099.662	-5.89
1100.082	-4.09
1100.501	-0.59
1100.92	-7.79
1101.339	-6.09
1101.758	1.11
