Data from 20171114-ORNL-Ar_H_NY_Subt18_08-04-11-889.txt Node
Date: Tue Nov 14 08:04:11 EST 2017
User: Ender
Spectrometer: HR+D1039
Trigger mode: 0
Integration Time (sec): 2.730000E-2
Scans to average: 10
Electric dark correction enabled: true
Nonlinearity correction enabled: false
Boxcar width: 0
XAxis mode: Wavelengths
Number of Pixels in Spectrum: 2048
>>>>>Begin Spectral Data<<<<<
187.836	-4.39
188.309	-4.39
188.782	-4.39
189.255	-2.79
189.728	-1.29
190.201	3.01
190.674	1.51
191.147	1.21
191.619	-4.29
192.092	4.81
192.565	1.71
193.038	1.41
193.511	-0.59
193.984	2.11
194.456	1.21
194.929	-1.09
195.402	-3.39
195.874	0.81
196.347	-4.59
196.82	-6.69
197.292	7.91
197.765	-3.29
198.237	-5.59
198.71	5.91
199.182	1.21
199.655	0.41
200.127	5.01
200.6	-2.49
201.072	-3.89
201.544	-4.09
202.017	-0.49
202.489	4.01
202.961	-0.29
203.433	0.01
203.906	-14.49
204.378	-9.99
204.85	-5.29
205.322	-10.99
205.794	-1.69
206.266	-5.19
206.739	-10.29
207.211	-0.49
207.683	-6.19
208.155	-6.89
208.627	-2.69
209.099	-4.69
209.57	-5.99
210.042	-2.99
210.514	-1.39
210.986	0.11
211.458	-8.99
211.93	-2.39
212.402	-0.09
212.873	-3.39
213.345	-4.79
213.817	-14.39
214.288	-4.29
214.76	-14.49
215.232	1.51
215.703	-1.19
216.175	-3.09
216.646	-5.79
217.118	-9.39
217.589	-5.89
218.061	-3.19
218.532	-6.59
219.004	-5.29
219.475	-6.69
219.946	-0.59
220.418	-0.79
220.889	5.81
221.36	-0.39
221.832	-6.09
222.303	-9.19
222.774	0.71
223.245	-12.49
223.717	-9.29
224.188	-3.49
224.659	-6.19
225.13	-8.59
225.601	-3.89
226.072	1.91
226.543	1.81
227.014	0.81
227.485	-5.39
227.956	-3.49
228.427	-2.99
228.898	0.21
229.369	3.61
229.839	-3.39
230.31	-3.89
230.781	4.31
231.252	0.31
231.722	-5.29
232.193	-4.29
232.664	0.51
233.135	-3.49
233.605	2.51
234.076	-8.89
234.546	-2.29
235.017	4.61
235.487	-0.89
235.958	-7.39
236.428	-1.89
236.899	-3.79
237.369	7.31
237.84	1.11
238.31	5.71
238.78	-0.19
239.251	2.01
239.721	3.01
240.191	0.21
240.662	-0.29
241.132	3.41
241.602	-4.59
242.072	3.31
242.542	7.11
243.013	3.21
243.483	8.91
243.953	0.61
244.423	-1.09
244.893	-1.89
245.363	5.91
245.833	3.11
246.303	-5.79
246.773	6.91
247.243	-2.49
247.712	3.31
248.182	7.31
248.652	9.01
249.122	2.51
249.592	9.41
250.061	20.21
250.531	31.81
251.001	17.01
251.471	22.31
251.94	19.51
252.41	5.61
252.879	-1.19
253.349	7.71
253.818	8.11
254.288	5.61
254.757	6.31
255.227	-0.69
255.696	5.01
256.166	5.71
256.635	9.61
257.105	11.11
257.574	4.91
258.043	5.81
258.513	9.71
258.982	12.71
259.451	5.21
259.92	12.71
260.389	9.01
260.859	11.11
261.328	12.41
261.797	15.31
262.266	10.91
262.735	12.21
263.204	0.91
263.673	1.31
264.142	3.91
264.611	-0.59
265.08	2.41
265.549	-0.09
266.018	-0.79
266.487	-0.99
266.955	1.31
267.424	-1.29
267.893	4.41
268.362	-0.59
268.83	4.81
269.299	4.31
269.768	9.21
270.236	7.11
270.705	1.81
271.174	3.81
271.642	10.41
272.111	7.41
272.579	14.31
273.048	21.11
273.516	19.61
273.985	21.61
274.453	17.51
274.922	9.41
275.39	7.41
275.858	-2.99
276.327	12.11
276.795	16.91
277.263	4.51
277.731	27.11
278.2	42.51
278.668	43.91
279.136	44.51
279.604	12.41
280.072	13.31
280.54	7.51
281.008	8.51
281.477	14.41
281.945	8.71
282.413	8.61
282.881	7.61
283.348	6.91
283.816	16.51
284.284	10.31
284.752	15.41
285.22	10.61
285.688	11.61
286.156	6.61
286.623	32.41
287.091	40.11
287.559	22.61
288.026	14.61
288.494	12.21
288.962	7.11
289.429	1.11
289.897	19.91
290.364	16.51
290.832	16.61
291.3	11.81
291.767	19.91
292.234	11.71
292.702	12.71
293.169	14.91
293.637	17.61
294.104	17.41
294.571	5.31
295.039	8.71
295.506	8.51
295.973	13.81
296.44	14.71
296.908	18.11
297.375	13.71
297.842	7.61
298.309	13.41
298.776	7.01
299.243	13.71
299.71	7.51
300.177	24.01
300.644	18.41
301.111	10.71
301.578	20.61
302.045	16.31
302.512	18.61
302.979	18.71
303.446	19.91
303.913	13.61
304.379	15.41
304.846	19.71
305.313	19.11
305.78	10.91
306.246	17.81
306.713	25.71
307.18	15.91
307.646	25.41
308.113	19.91
308.579	14.11
309.046	26.01
309.512	25.01
309.979	11.31
310.445	24.61
310.912	26.11
311.378	23.81
311.845	20.41
312.311	23.51
312.777	25.51
313.244	24.01
313.71	30.51
314.176	25.91
314.642	27.31
315.109	28.11
315.575	31.91
316.041	32.11
316.507	24.31
316.973	34.81
317.439	26.11
317.905	28.11
318.371	34.61
318.837	30.01
319.303	28.91
319.769	24.71
320.235	29.21
320.701	29.01
321.167	32.21
321.633	29.11
322.099	31.71
322.564	39.71
323.03	32.61
323.496	27.01
323.962	28.81
324.427	27.11
324.893	32.91
325.359	25.91
325.824	29.41
326.29	27.11
326.755	36.51
327.221	41.81
327.686	36.01
328.152	35.21
328.617	32.71
329.083	39.01
329.548	44.71
330.014	40.71
330.479	32.21
330.944	33.11
331.41	35.01
331.875	36.41
332.34	33.91
332.805	34.01
333.271	37.01
333.736	35.01
334.201	45.61
334.666	46.61
335.131	42.41
335.596	40.51
336.061	38.31
336.526	33.81
336.991	42.51
337.456	46.31
337.921	39.61
338.386	33.01
338.851	40.61
339.316	38.41
339.781	39.01
340.246	46.11
340.711	38.71
341.175	42.61
341.64	32.01
342.105	44.21
342.569	45.71
343.034	53.81
343.499	48.41
343.963	40.91
344.428	52.41
344.893	50.71
345.357	54.51
345.822	49.51
346.286	57.31
346.751	59.21
347.215	60.51
347.679	58.81
348.144	71.81
348.608	68.11
349.073	54.71
349.537	62.01
350.001	59.91
350.465	78.81
350.93	58.71
351.394	64.91
351.858	57.01
352.322	74.11
352.786	67.71
353.25	79.21
353.715	91.11
354.179	78.01
354.643	105.81
355.107	99.61
355.571	87.81
356.035	84.31
356.498	96.21
356.962	100.51
357.426	105.71
357.89	94.11
358.354	71.51
358.818	69.51
359.281	65.11
359.745	64.41
360.209	60.11
360.673	59.81
361.136	66.71
361.6	74.41
362.064	79.11
362.527	74.11
362.991	77.61
363.454	65.51
363.918	67.41
364.381	63.91
364.845	65.71
365.308	72.11
365.772	71.41
366.235	72.61
366.698	70.91
367.162	72.01
367.625	76.11
368.088	74.41
368.552	77.71
369.015	74.21
369.478	88.51
369.941	87.51
370.404	76.91
370.867	86.71
371.331	91.71
371.794	98.61
372.257	92.41
372.72	99.91
373.183	91.31
373.646	89.81
374.109	92.61
374.572	89.01
375.035	85.71
375.497	93.01
375.96	97.61
376.423	89.81
376.886	95.21
377.349	90.01
377.811	90.71
378.274	93.91
378.737	89.81
379.199	97.91
379.662	101.81
380.125	106.41
380.587	100.61
381.05	99.31
381.512	105.61
381.975	116.11
382.437	114.91
382.9	104.01
383.362	114.91
383.825	119.91
384.287	123.21
384.75	122.01
385.212	123.31
385.674	121.11
386.136	123.01
386.599	108.71
387.061	111.21
387.523	106.21
387.985	117.51
388.447	128.91
388.91	124.31
389.372	141.51
389.834	133.61
390.296	121.51
390.758	139.91
391.22	142.11
391.682	176.91
392.144	245.71
392.606	197.51
393.068	144.91
393.529	145.21
393.991	128.61
394.453	120.81
394.915	140.11
395.377	159.31
395.838	187.91
396.3	140.21
396.762	119.71
397.224	116.61
397.685	114.71
398.147	114.61
398.608	116.21
399.07	115.41
399.531	117.91
399.993	123.41
400.454	134.51
400.916	124.71
401.377	130.31
401.839	136.91
402.3	133.81
402.762	143.81
403.223	158.41
403.684	143.01
404.145	141.41
404.607	140.71
405.068	146.91
405.529	145.51
405.99	161.21
406.451	145.01
406.913	142.31
407.374	145.01
407.835	143.31
408.296	146.01
408.757	148.41
409.218	164.41
409.679	154.11
410.14	152.81
410.601	156.81
411.062	164.11
411.522	172.01
411.983	165.91
412.444	156.21
412.905	161.01
413.366	158.01
413.826	169.21
414.287	191.91
414.748	227.51
415.208	211.81
415.669	184.31
416.13	182.01
416.59	183.01
417.051	181.81
417.511	189.11
417.972	205.31
418.432	225.81
418.893	254.11
419.353	220.91
419.814	174.91
420.274	164.21
420.734	163.71
421.195	173.21
421.655	178.01
422.115	175.51
422.576	168.31
423.036	175.61
423.496	184.31
423.956	191.81
424.416	208.11
424.876	229.81
425.336	217.21
425.797	229.31
426.257	225.41
426.717	200.01
427.177	205.11
427.637	204.01
428.097	207.91
428.556	215.01
429.016	234.91
429.476	228.41
429.936	235.51
430.396	239.21
430.856	252.81
431.315	278.01
431.775	299.01
432.235	318.51
432.694	298.31
433.154	312.91
433.614	327.71
434.073	289.91
434.533	250.81
434.993	233.71
435.452	239.31
435.912	251.91
436.371	246.21
436.83	246.21
437.29	237.81
437.749	211.51
438.209	210.51
438.668	234.21
439.127	235.41
439.587	229.91
440.046	212.51
440.505	220.81
440.964	229.21
441.424	263.11
441.883	259.31
442.342	221.41
442.801	186.71
443.26	198.41
443.719	196.11
444.178	192.51
444.637	186.81
445.096	194.61
445.555	201.01
446.014	193.01
446.473	199.71
446.932	206.01
447.391	197.31
447.849	207.31
448.308	186.31
448.767	198.51
449.226	210.21
449.685	211.81
450.143	222.91
450.602	211.31
451.061	205.61
451.519	202.21
451.978	205.71
452.436	202.81
452.895	204.91
453.353	212.51
453.812	208.41
454.27	206.91
454.729	214.21
455.187	206.61
455.646	220.01
456.104	213.31
456.562	218.11
457.021	224.91
457.479	219.41
457.937	235.71
458.395	234.51
458.854	216.71
459.312	222.71
459.77	227.91
460.228	217.31
460.686	211.41
461.144	221.71
461.602	218.71
462.06	215.81
462.518	219.31
462.976	232.91
463.434	226.81
463.892	234.31
464.35	240.31
464.808	255.51
465.266	230.01
465.724	241.41
466.181	241.61
466.639	242.01
467.097	251.61
467.555	266.51
468.012	269.01
468.47	266.01
468.928	283.51
469.385	299.21
469.843	300.51
470.3	300.51
470.758	310.91
471.215	322.61
471.673	341.31
472.13	349.81
472.588	360.21
473.045	320.41
473.503	328.11
473.96	353.01
474.417	346.71
474.875	384.21
475.332	404.41
475.789	394.11
476.246	409.51
476.704	422.61
477.161	437.21
477.618	449.31
478.075	490.71
478.532	528.41
478.989	593.01
479.446	684.81
479.903	670.91
480.36	711.81
480.817	752.81
481.274	848.71
481.731	934.01
482.188	1022.11
482.645	1136.71
483.102	1237.61
483.558	1347.81
484.015	1398.31
484.472	1399.81
484.929	1345.61
485.385	1300.31
485.842	1256.61
486.299	1203.21
486.755	1126.51
487.212	956.71
487.668	816.61
488.125	757.01
488.582	693.91
489.038	657.11
489.494	627.41
489.951	613.11
490.407	587.01
490.864	574.01
491.32	571.31
491.776	558.31
492.233	563.41
492.689	533.31
493.145	531.01
493.602	525.51
494.058	531.51
494.514	533.41
494.97	545.71
495.426	557.41
495.882	542.11
496.338	524.01
496.794	544.71
497.251	539.71
497.707	546.81
498.163	555.01
498.618	565.21
499.074	562.91
499.53	586.41
499.986	588.01
500.442	567.81
500.898	539.91
501.354	544.41
501.809	552.41
502.265	553.71
502.721	569.01
503.177	577.01
503.632	587.51
504.088	584.21
504.543	616.91
504.999	609.61
505.455	570.31
505.91	544.71
506.366	552.61
506.821	548.71
507.277	540.71
507.732	546.91
508.187	535.41
508.643	548.51
509.098	549.41
509.553	567.01
510.009	573.11
510.464	577.91
510.919	598.01
511.375	601.71
511.83	608.51
512.285	626.41
512.74	658.81
513.195	677.41
513.65	657.71
514.105	672.01
514.56	666.61
515.015	689.81
515.47	695.31
515.925	694.41
516.38	697.41
516.835	691.21
517.29	679.31
517.745	667.41
518.2	661.61
518.655	654.61
519.109	643.21
519.564	648.41
520.019	633.71
520.474	636.61
520.928	624.61
521.383	625.61
521.838	621.61
522.292	617.41
522.747	610.31
523.201	615.11
523.656	600.91
524.11	604.91
524.565	593.51
525.019	604.41
525.474	603.01
525.928	600.31
526.382	600.01
526.837	592.91
527.291	606.31
527.745	600.71
528.2	601.51
528.654	596.11
529.108	588.71
529.562	588.61
530.016	588.41
530.47	602.41
530.925	600.31
531.379	596.41
531.833	603.51
532.287	606.01
532.741	607.61
533.195	606.41
533.649	614.41
534.103	619.41
534.556	611.11
535.01	609.11
535.464	600.71
535.918	608.81
536.372	616.41
536.826	611.91
537.279	601.11
537.733	611.61
538.187	612.71
538.64	610.01
539.094	628.31
539.548	616.71
540.001	610.31
540.455	617.21
540.908	626.21
541.362	630.21
541.815	630.41
542.269	645.31
542.722	647.41
543.175	650.41
543.629	655.61
544.082	662.41
544.536	669.91
544.989	664.51
545.442	675.11
545.895	671.31
546.349	667.21
546.802	680.41
547.255	677.31
547.708	683.11
548.161	699.91
548.614	694.81
549.067	707.31
549.52	693.31
549.973	684.61
550.426	686.51
550.879	673.31
551.332	676.41
551.785	684.51
552.238	696.61
552.691	681.71
553.144	699.01
553.596	719.21
554.049	724.11
554.502	752.51
554.955	770.11
555.407	766.71
555.86	763.01
556.313	746.51
556.765	748.31
557.218	745.11
557.67	740.91
558.123	747.61
558.576	732.91
559.028	736.31
559.48	745.71
559.933	734.51
560.385	701.91
560.838	682.11
561.29	659.01
561.742	657.21
562.195	647.21
562.647	640.71
563.099	650.71
563.551	649.91
564.004	650.11
564.456	648.01
564.908	638.31
565.36	619.81
565.812	614.81
566.264	602.11
566.716	598.81
567.168	597.51
567.62	611.01
568.072	577.81
568.524	580.61
568.976	567.41
569.428	552.51
569.88	560.41
570.332	557.81
570.784	576.11
571.235	571.01
571.687	575.31
572.139	576.61
572.59	587.21
573.042	601.61
573.494	594.21
573.945	587.21
574.397	562.31
574.849	567.41
575.3	575.91
575.752	567.01
576.203	554.21
576.655	565.41
577.106	547.81
577.557	539.61
578.009	553.31
578.46	551.51
578.912	542.11
579.363	539.51
579.814	550.31
580.265	543.01
580.717	547.11
581.168	540.91
581.619	550.71
582.07	564.61
582.521	544.91
582.972	550.41
583.423	552.71
583.875	553.61
584.326	575.21
584.777	614.91
585.227	682.01
585.678	739.21
586.129	827.31
586.58	886.41
587.031	956.51
587.482	1102.41
587.933	1262.71
588.384	1092.41
588.834	803.91
589.285	662.31
589.736	651.91
590.186	632.91
590.637	614.31
591.088	607.91
591.538	612.31
591.989	603.01
592.439	586.41
592.89	580.71
593.34	578.31
593.791	578.11
594.241	568.71
594.692	576.51
595.142	573.61
595.593	567.41
596.043	571.91
596.493	582.71
596.943	577.11
597.394	584.81
597.844	577.31
598.294	590.81
598.744	609.11
599.195	631.11
599.645	660.51
600.095	686.31
600.545	747.01
600.995	780.61
601.445	837.11
601.895	887.81
602.345	915.41
602.795	907.11
603.245	865.41
603.695	811.91
604.145	770.01
604.594	737.71
605.044	696.21
605.494	640.01
605.944	602.21
606.393	593.71
606.843	581.71
607.293	586.61
607.743	590.81
608.192	594.21
608.642	608.21
609.091	614.71
609.541	621.91
609.99	610.91
610.44	609.11
610.889	570.21
611.339	557.61
611.788	557.01
612.238	555.51
612.687	581.91
613.136	572.71
613.586	586.11
614.035	587.41
614.484	601.41
614.933	603.61
615.383	583.71
615.832	589.01
616.281	587.01
616.73	554.01
617.179	533.31
617.628	518.21
618.077	506.71
618.526	497.81
618.975	483.91
619.424	485.41
619.873	482.41
620.322	492.41
620.771	478.21
621.22	477.21
621.669	467.41
622.118	465.91
622.567	448.01
623.015	450.41
623.464	455.81
623.913	451.21
624.361	440.61
624.81	440.41
625.259	448.11
625.707	437.41
626.156	434.71
626.604	451.61
627.053	445.21
627.501	443.21
627.95	445.41
628.398	453.91
628.847	445.81
629.295	446.51
629.744	446.31
630.192	448.91
630.64	447.01
631.089	444.21
631.537	457.01
631.985	461.21
632.433	465.41
632.881	472.51
633.33	520.31
633.778	494.51
634.226	439.71
634.674	440.51
635.122	454.31
635.57	463.21
636.018	495.51
636.466	454.51
636.914	438.41
637.362	445.81
637.81	447.31
638.258	450.31
638.705	449.71
639.153	476.11
639.601	480.41
640.049	497.81
640.497	529.61
640.944	542.61
641.392	503.31
641.84	475.91
642.287	458.11
642.735	448.31
643.182	447.41
643.63	448.91
644.078	450.61
644.525	464.61
644.973	466.61
645.42	468.81
645.867	482.81
646.315	508.41
646.762	518.51
647.21	529.91
647.657	551.91
648.104	589.61
648.551	602.11
648.999	657.91
649.446	705.01
649.893	766.71
650.34	895.81
650.787	1049.71
651.234	1311.41
651.682	1695.51
652.129	2316.01
652.576	3331.61
653.023	4958.11
653.47	6867.41
653.917	8686.11
654.363	10232.21
654.81	11575.91
655.257	11005.21
655.704	7154.81
656.151	4177.91
656.598	2681.81
657.044	1907.01
657.491	1453.71
657.938	1155.61
658.385	971.51
658.831	840.11
659.278	747.91
659.724	665.71
660.171	612.81
660.618	553.41
661.064	524.71
661.511	506.01
661.957	505.21
662.404	485.21
662.85	490.11
663.296	472.81
663.743	429.91
664.189	425.61
664.635	411.31
665.082	407.41
665.528	408.11
665.974	395.11
666.42	394.81
666.867	394.11
667.313	370.21
667.759	368.91
668.205	370.31
668.651	382.21
669.097	377.81
669.543	391.81
669.989	361.91
670.435	351.11
670.881	344.41
671.327	347.61
671.773	362.61
672.219	372.61
672.665	410.91
673.11	443.91
673.556	476.41
674.002	519.61
674.448	501.91
674.893	424.21
675.339	362.01
675.785	339.21
676.23	319.01
676.676	300.41
677.122	292.21
677.567	287.81
678.013	281.11
678.458	277.61
678.904	272.01
679.349	261.81
679.794	274.81
680.24	269.91
680.685	260.01
681.131	259.61
681.576	270.91
682.021	271.41
682.466	264.31
682.912	260.21
683.357	264.11
683.802	276.11
684.247	307.11
684.692	346.51
685.137	372.21
685.583	417.11
686.028	434.31
686.473	395.81
686.918	344.21
687.363	323.51
687.807	308.31
688.252	284.71
688.697	267.71
689.142	259.21
689.587	253.71
690.032	245.41
690.477	253.81
690.921	260.91
691.366	287.41
691.811	296.41
692.255	329.41
692.7	346.51
693.145	379.81
693.589	514.21
694.034	841.71
694.478	1168.81
694.923	1372.11
695.367	1793.61
695.812	935.11
696.256	386.91
696.701	288.71
697.145	262.31
697.59	245.21
698.034	247.01
698.478	247.11
698.922	246.51
699.367	251.31
699.811	255.61
700.255	266.31
700.699	286.81
701.143	325.41
701.588	362.61
702.032	403.61
702.476	400.81
702.92	377.21
703.364	362.71
703.808	469.41
704.252	760.11
704.696	1102.61
705.14	1307.71
705.584	1695.51
706.027	830.91
706.471	403.11
706.915	305.11
707.359	260.71
707.803	240.91
708.246	231.21
708.69	233.61
709.134	243.41
709.577	237.61
710.021	241.01
710.465	238.81
710.908	226.21
711.352	231.91
711.795	239.81
712.239	263.81
712.682	284.81
713.126	317.41
713.569	359.51
714.012	279.51
714.456	245.71
714.899	224.91
715.342	206.91
715.786	201.91
716.229	198.71
716.672	194.31
717.115	191.91
717.558	190.11
718.002	190.11
718.445	201.91
718.888	217.91
719.331	224.41
719.774	236.81
720.217	233.81
720.66	211.81
721.103	201.81
721.546	197.81
721.989	184.01
722.432	169.81
722.874	179.41
723.317	173.01
723.76	180.11
724.203	200.61
724.645	235.21
725.088	323.41
725.531	429.91
725.974	501.91
726.416	424.71
726.859	233.61
727.301	184.21
727.744	186.41
728.187	177.31
728.629	179.71
729.071	181.61
729.514	194.31
729.956	210.21
730.399	215.31
730.841	217.21
731.283	201.51
731.726	196.81
732.168	192.91
732.61	203.61
733.053	215.81
733.495	233.41
733.937	264.11
734.379	292.41
734.821	324.71
735.263	404.11
735.705	617.31
736.148	1158.71
736.59	1946.41
737.032	2411.61
737.474	1972.81
737.916	623.21
738.357	329.51
738.799	253.51
739.241	232.11
739.683	214.01
740.125	223.21
740.567	224.71
741.008	226.91
741.45	242.21
741.892	241.31
742.334	266.61
742.775	277.71
743.217	262.41
743.658	209.71
744.1	198.01
744.542	197.61
744.983	234.61
745.425	270.21
745.866	265.71
746.307	220.51
746.749	215.61
747.19	244.51
747.632	321.51
748.073	623.71
748.514	1368.01
748.956	2193.51
749.397	2761.81
749.838	2278.01
750.279	2351.21
750.72	1188.51
751.162	418.51
751.603	245.41
752.044	189.21
752.485	159.81
752.926	161.51
753.367	154.71
753.808	148.31
754.249	147.01
754.69	136.51
755.131	145.01
755.572	136.41
756.013	134.81
756.453	132.61
756.894	141.31
757.335	147.01
757.776	153.31
758.216	145.41
758.657	153.61
759.098	154.21
759.538	167.11
759.979	194.71
760.42	274.11
760.86	509.41
761.301	1316.51
761.741	3316.01
762.182	5200.31
762.622	3660.41
763.063	1027.81
763.503	422.31
763.943	266.61
764.384	254.51
764.824	315.31
765.264	350.51
765.705	237.91
766.145	158.31
766.585	141.41
767.025	137.61
767.465	134.91
767.906	188.11
768.346	247.81
768.786	263.21
769.226	196.21
769.666	233.41
770.106	449.61
770.546	1146.01
770.986	2067.31
771.426	1893.01
771.866	613.11
772.306	253.51
772.745	159.11
773.185	138.21
773.625	134.71
774.065	123.11
774.505	148.31
774.944	229.31
775.384	500.41
775.824	950.91
776.263	944.91
776.703	384.01
777.142	172.31
777.582	115.31
778.021	105.91
778.461	102.51
778.9	107.51
779.34	100.11
779.779	86.11
780.219	81.11
780.658	77.71
781.097	91.81
781.537	86.41
781.976	84.01
782.415	78.41
782.855	77.11
783.294	78.61
783.733	78.21
784.172	85.71
784.611	76.31
785.05	84.01
785.489	76.41
785.928	92.01
786.367	92.71
786.806	93.51
787.245	95.81
787.684	97.21
788.123	115.31
788.562	106.61
789.001	95.81
789.44	95.11
789.879	93.21
790.317	92.11
790.756	95.21
791.195	97.11
791.634	102.91
792.072	150.91
792.511	259.31
792.95	738.41
793.388	1666.71
793.827	1552.41
794.265	528.21
794.704	214.51
795.142	140.31
795.581	114.41
796.019	103.11
796.458	96.11
796.896	92.61
797.334	93.21
797.773	118.51
798.211	170.01
798.649	307.71
799.087	754.21
799.526	1218.31
799.964	1540.91
800.402	1625.61
800.84	593.91
801.278	232.51
801.716	141.81
802.154	113.81
802.592	110.81
803.03	102.91
803.468	99.81
803.906	109.51
804.344	117.51
804.782	104.61
805.22	101.11
805.658	93.61
806.096	115.11
806.533	120.91
806.971	129.01
807.409	163.11
807.847	229.01
808.284	482.21
808.722	1398.71
809.16	2584.51
809.597	2380.11
810.035	4248.61
810.472	4774.61
810.91	1684.11
811.347	621.41
811.785	311.01
812.222	193.91
812.66	152.31
813.097	117.11
813.535	108.21
813.972	100.31
814.409	89.51
814.846	81.91
815.284	87.31
815.721	75.01
816.158	83.11
816.595	84.51
817.032	140.31
817.47	152.31
817.907	135.01
818.344	111.51
818.781	86.81
819.218	73.11
819.655	96.11
820.092	149.61
820.529	169.11
820.966	137.31
821.403	106.21
821.839	80.41
822.276	75.91
822.713	94.71
823.15	103.81
823.587	85.71
824.023	110.11
824.46	217.91
824.897	674.11
825.333	1094.11
825.77	457.91
826.206	172.11
826.643	104.81
827.08	80.21
827.516	55.61
827.953	54.91
828.389	65.11
828.825	52.51
829.262	48.51
829.698	42.31
830.135	46.71
830.571	47.11
831.007	57.01
831.443	49.91
831.88	44.11
832.316	40.51
832.752	50.11
833.188	46.31
833.624	45.71
834.06	48.11
834.497	51.81
834.933	54.61
835.369	59.51
835.805	50.41
836.241	58.91
836.677	58.31
837.112	64.81
837.548	73.61
837.984	99.11
838.42	144.01
838.856	365.71
839.292	1167.51
839.727	1869.51
840.163	849.21
840.599	694.81
841.034	1590.71
841.47	1733.01
841.906	617.91
842.341	253.31
842.777	173.81
843.212	236.91
843.648	244.31
844.083	113.71
844.519	67.21
844.954	63.11
845.39	43.51
845.825	37.31
846.261	43.81
846.696	43.71
847.131	40.41
847.566	47.91
848.002	37.61
848.437	39.51
848.872	44.31
849.307	43.91
849.742	61.31
850.177	129.11
850.613	414.41
851.048	700.51
851.483	294.51
851.918	116.71
852.353	67.81
852.788	39.01
853.223	43.01
853.657	42.01
854.092	29.61
854.527	28.51
854.962	31.01
855.397	33.51
855.832	35.71
856.266	31.91
856.701	28.61
857.136	26.31
857.57	22.81
858.005	35.31
858.44	44.01
858.874	34.81
859.309	43.41
859.743	25.91
860.178	37.51
860.612	29.81
861.047	38.41
861.481	44.91
861.915	53.31
862.35	38.11
862.784	29.91
863.218	28.01
863.653	22.61
864.087	33.81
864.521	46.21
864.955	50.31
865.39	117.91
865.824	141.21
866.258	92.61
866.692	132.01
867.126	147.41
867.56	80.81
867.994	36.21
868.428	24.71
868.862	24.51
869.296	41.91
869.73	45.51
870.164	44.01
870.598	34.61
871.031	23.81
871.465	20.91
871.899	26.31
872.333	17.11
872.766	19.31
873.2	13.81
873.634	15.81
874.067	14.31
874.501	12.81
874.935	22.71
875.368	21.31
875.802	14.51
876.235	14.21
876.669	16.41
877.102	14.41
877.535	19.31
877.969	13.51
878.402	17.11
878.836	13.31
879.269	12.21
879.702	19.31
880.135	15.81
880.569	17.11
881.002	14.51
881.435	11.81
881.868	12.91
882.301	13.41
882.734	8.61
883.167	13.11
883.601	15.01
884.034	14.41
884.467	12.11
884.899	19.81
885.332	14.01
885.765	10.11
886.198	18.01
886.631	13.11
887.064	13.81
887.497	12.11
887.929	16.41
888.362	12.01
888.795	0.91
889.228	11.01
889.66	13.51
890.093	10.01
890.526	8.51
890.958	8.01
891.391	15.41
891.823	13.81
892.256	10.31
892.688	5.61
893.121	9.41
893.553	8.81
893.985	18.71
894.418	14.21
894.85	5.31
895.282	12.41
895.715	20.21
896.147	10.01
896.579	8.51
897.011	3.81
897.444	13.71
897.876	6.61
898.308	11.51
898.74	8.91
899.172	10.01
899.604	13.11
900.036	14.41
900.468	5.11
900.9	12.41
901.332	20.31
901.764	6.31
902.196	15.31
902.628	9.41
903.06	8.61
903.491	19.81
903.923	15.51
904.355	14.51
904.787	13.91
905.218	13.91
905.65	15.61
906.082	11.01
906.513	7.31
906.945	11.61
907.376	10.91
907.808	13.51
908.239	19.31
908.671	11.71
909.102	14.91
909.534	15.01
909.965	35.71
910.397	67.21
910.828	242.61
911.259	382.21
911.691	177.51
912.122	84.51
912.553	40.11
912.984	22.91
913.415	22.31
913.847	20.31
914.278	15.11
914.709	10.91
915.14	10.81
915.571	11.51
916.002	7.41
916.433	13.11
916.864	10.81
917.295	11.21
917.726	19.51
918.157	7.61
918.587	22.51
919.018	21.61
919.449	25.71
919.88	14.61
920.311	25.31
920.741	34.61
921.172	128.71
921.603	122.21
922.033	57.01
922.464	36.81
922.895	15.21
923.325	15.01
923.756	13.21
924.186	11.01
924.617	14.61
925.047	31.71
925.478	38.21
925.908	32.21
926.338	21.01
926.769	17.31
927.199	22.21
927.629	7.71
928.06	13.41
928.49	9.61
928.92	9.91
929.35	7.01
929.78	8.31
930.21	6.61
930.641	9.51
931.071	6.61
931.501	4.51
931.931	9.71
932.361	7.41
932.791	-1.19
933.221	-1.39
933.651	-0.79
934.08	14.11
934.51	26.31
934.94	9.31
935.37	1.61
935.8	7.01
936.229	8.01
936.659	7.61
937.089	-0.49
937.519	16.01
937.948	13.71
938.378	16.51
938.807	2.31
939.237	-0.39
939.666	8.91
940.096	-8.09
940.525	-1.39
940.955	0.51
941.384	1.51
941.814	-0.89
942.243	-1.19
942.672	0.71
943.102	-1.49
943.531	-4.39
943.96	0.11
944.39	1.31
944.819	-5.79
945.248	-0.59
945.677	4.01
946.106	2.51
946.535	5.61
946.964	-2.49
947.393	1.61
947.822	1.71
948.251	0.11
948.68	-3.59
949.109	1.61
949.538	6.81
949.967	-1.69
950.396	-1.09
950.825	-4.69
951.254	-2.79
951.682	-6.49
952.111	4.21
952.54	2.51
952.969	-4.19
953.397	-7.09
953.826	7.21
954.254	-8.29
954.683	0.71
955.112	-3.09
955.54	-4.59
955.969	-1.09
956.397	-0.99
956.826	-2.79
957.254	1.41
957.682	2.11
958.111	11.01
958.539	4.31
958.967	-0.39
959.396	-10.79
959.824	-2.49
960.252	-2.99
960.68	-3.79
961.109	-5.79
961.537	0.51
961.965	0.21
962.393	-0.09
962.821	-2.09
963.249	2.71
963.677	-1.59
964.105	0.61
964.533	29.31
964.961	31.91
965.389	13.41
965.817	7.21
966.245	-0.59
966.672	3.41
967.1	-1.29
967.528	-1.39
967.956	-4.09
968.383	-0.79
968.811	-5.59
969.239	-1.49
969.666	-5.49
970.094	0.71
970.522	-0.09
970.949	-4.09
971.377	-3.09
971.804	-0.49
972.232	1.21
972.659	-4.99
973.087	2.31
973.514	-1.99
973.941	-6.09
974.369	4.81
974.796	-1.29
975.223	2.31
975.651	-10.49
976.078	-2.79
976.505	-1.29
976.932	1.21
977.359	10.31
977.786	9.81
978.214	-0.79
978.641	-0.69
979.068	-8.59
979.495	-9.09
979.922	-4.69
980.349	-11.99
980.776	1.81
981.202	1.61
981.629	1.71
982.056	4.41
982.483	-2.59
982.91	-1.59
983.337	-10.89
983.763	1.01
984.19	-8.29
984.617	-2.79
985.043	-6.09
985.47	-6.29
985.897	-1.29
986.323	-4.49
986.75	8.61
987.176	-3.89
987.603	-3.89
988.029	-3.19
988.456	-7.79
988.882	1.81
989.308	-2.49
989.735	-4.99
990.161	3.01
990.587	1.31
991.014	-2.39
991.44	6.51
991.866	-5.09
992.292	-7.79
992.719	-3.39
993.145	-0.29
993.571	-10.39
993.997	-4.19
994.423	-6.89
994.849	-1.89
995.275	3.51
995.701	5.21
996.127	-4.09
996.553	-1.09
996.979	1.31
997.405	-0.49
997.83	-5.09
998.256	-7.09
998.682	-9.09
999.108	-8.49
999.534	-3.79
999.959	-2.29
1000.385	-9.19
1000.811	-1.09
1001.236	-5.29
1001.662	-9.59
1002.087	-8.39
1002.513	-4.59
1002.938	4.91
1003.364	-3.59
1003.789	2.41
1004.215	1.61
1004.64	0.01
1005.066	0.41
1005.491	-0.89
1005.916	-1.29
1006.342	-1.39
1006.767	-3.59
1007.192	3.11
1007.617	-2.29
1008.042	-1.59
1008.468	-4.49
1008.893	-3.09
1009.318	-5.39
1009.743	-0.39
1010.168	-0.99
1010.593	-4.09
1011.018	-14.09
1011.443	-0.69
1011.868	1.11
1012.293	1.31
1012.718	-11.39
1013.143	-0.39
1013.567	-0.99
1013.992	-1.99
1014.417	-16.39
1014.842	0.61
1015.267	-4.79
1015.691	-5.39
1016.116	9.31
1016.541	-0.89
1016.965	0.91
1017.39	-1.59
1017.814	2.61
1018.239	-3.99
1018.663	-2.89
1019.088	-18.59
1019.512	-4.59
1019.937	-3.19
1020.361	-11.39
1020.785	-8.99
1021.21	1.31
1021.634	-0.79
1022.058	0.31
1022.483	3.31
1022.907	-6.89
1023.331	-9.09
1023.755	-4.09
1024.179	-8.09
1024.604	-9.19
1025.028	-2.59
1025.452	-12.39
1025.876	-2.39
1026.3	-0.79
1026.724	-9.39
1027.148	-2.49
1027.572	-2.99
1027.996	0.11
1028.42	-8.59
1028.843	-3.19
1029.267	-6.79
1029.691	3.01
1030.115	-8.39
1030.539	-7.69
1030.962	-7.29
1031.386	-12.59
1031.81	-2.29
1032.233	1.81
1032.657	-1.99
1033.08	-0.49
1033.504	-4.69
1033.927	-2.89
1034.351	-5.69
1034.774	-3.69
1035.198	-1.09
1035.621	-12.59
1036.045	-7.89
1036.468	-2.39
1036.891	-9.29
1037.315	-7.69
1037.738	-9.39
1038.161	2.11
1038.584	-5.99
1039.008	-3.59
1039.431	-5.99
1039.854	-1.19
1040.277	-9.89
1040.7	-10.99
1041.123	2.01
1041.546	-5.79
1041.969	-3.19
1042.392	-6.19
1042.815	-3.49
1043.238	3.11
1043.661	1.01
1044.084	-6.49
1044.507	-5.19
1044.93	-5.29
1045.352	-5.79
1045.775	-0.59
1046.198	-2.59
1046.621	-5.39
1047.043	0.31
1047.466	6.61
1047.889	-4.39
1048.311	-2.39
1048.734	-2.99
1049.156	0.81
1049.579	-0.69
1050.001	-2.69
1050.424	-0.19
1050.846	-2.89
1051.269	-0.99
1051.691	-3.79
1052.113	-4.59
1052.536	-1.99
1052.958	-2.19
1053.38	-7.09
1053.802	-7.59
1054.225	2.01
1054.647	-9.69
1055.069	-2.89
1055.491	-1.79
1055.913	-5.59
1056.335	-1.29
1056.757	-3.09
1057.179	1.71
1057.601	-5.89
1058.023	-0.49
1058.445	-4.59
1058.867	1.21
1059.289	-0.39
1059.711	-7.89
1060.133	-9.69
1060.555	-10.19
1060.976	-10.89
1061.398	-5.69
1061.82	-4.19
1062.241	-3.59
1062.663	-6.39
1063.085	-2.29
1063.506	-0.49
1063.928	-1.79
1064.35	-3.89
1064.771	-10.49
1065.193	-1.19
1065.614	-8.59
1066.035	-3.39
1066.457	-0.39
1066.878	-2.29
1067.3	-5.69
1067.721	0.41
1068.142	-7.49
1068.564	-0.69
1068.985	-5.79
1069.406	-5.99
1069.827	-5.69
1070.248	5.01
1070.67	-8.09
1071.091	-6.99
1071.512	-2.99
1071.933	-7.09
1072.354	-3.49
1072.775	-2.89
1073.196	-9.29
1073.617	-1.69
1074.038	-8.29
1074.459	-6.99
1074.88	-9.89
1075.3	2.81
1075.721	-1.09
1076.142	0.01
1076.563	-1.39
1076.983	-9.29
1077.404	-2.39
1077.825	-13.19
1078.246	-7.19
1078.666	-14.59
1079.087	-4.69
1079.507	-1.59
1079.928	-6.29
1080.348	3.81
1080.769	-3.39
1081.189	-3.99
1081.61	-0.79
1082.03	-7.99
1082.451	-8.89
1082.871	-3.09
1083.291	-5.99
1083.711	-8.79
1084.132	-8.09
1084.552	-5.49
1084.972	6.11
1085.392	-5.59
1085.813	-10.29
1086.233	-7.39
1086.653	-7.99
1087.073	-3.69
1087.493	-5.79
1087.913	-7.49
1088.333	-12.49
1088.753	-1.29
1089.173	-0.99
1089.593	-3.79
1090.013	0.51
1090.433	-0.19
1090.852	-1.69
1091.272	-0.19
1091.692	0.41
1092.112	-6.89
1092.531	-7.89
1092.951	-11.49
1093.371	-8.09
1093.79	7.41
1094.21	-6.09
1094.63	-2.89
1095.049	-8.29
1095.469	-0.59
1095.888	1.91
1096.308	-5.99
1096.727	3.61
1097.146	-4.29
1097.566	-5.69
1097.985	-7.19
1098.405	-2.79
1098.824	-2.49
1099.243	-1.29
1099.662	-5.09
1100.082	-1.89
1100.501	-9.09
1100.92	-10.09
1101.339	-5.39
1101.758	-5.29
