Data from 20171114-ORNL-Ar_H_NY_Subt18_08-03-54-419.txt Node
Date: Tue Nov 14 08:03:54 EST 2017
User: Ender
Spectrometer: HR+D1039
Trigger mode: 0
Integration Time (sec): 2.730000E-2
Scans to average: 10
Electric dark correction enabled: true
Nonlinearity correction enabled: false
Boxcar width: 0
XAxis mode: Wavelengths
Number of Pixels in Spectrum: 2048
>>>>>Begin Spectral Data<<<<<
187.836	-0.83
188.309	-0.83
188.782	-0.83
189.255	-1.43
189.728	-3.93
190.201	10.07
190.674	5.47
191.147	3.97
191.619	-6.83
192.092	-0.33
192.565	3.77
193.038	2.97
193.511	2.97
193.984	-0.93
194.456	-5.83
194.929	-2.03
195.402	-4.73
195.874	-2.43
196.347	2.37
196.82	-8.73
197.292	6.17
197.765	-0.53
198.237	-10.33
198.71	1.67
199.182	1.07
199.655	4.07
200.127	3.57
200.6	-0.13
201.072	0.77
201.544	-4.03
202.017	0.87
202.489	5.57
202.961	-2.93
203.433	-4.93
203.906	-7.23
204.378	-2.13
204.85	-3.33
205.322	-9.83
205.794	0.67
206.266	-3.63
206.739	-10.53
207.211	0.27
207.683	-4.93
208.155	-1.53
208.627	-6.13
209.099	-4.03
209.57	-3.23
210.042	0.67
210.514	-0.23
210.986	-2.43
211.458	-11.93
211.93	-4.43
212.402	0.17
212.873	-5.13
213.345	-10.03
213.817	-11.63
214.288	-8.03
214.76	-9.83
215.232	-3.83
215.703	-2.63
216.175	-3.93
216.646	-7.53
217.118	-7.43
217.589	-6.33
218.061	0.77
218.532	-1.03
219.004	0.17
219.475	-7.73
219.946	0.97
220.418	-7.03
220.889	3.97
221.36	2.87
221.832	-7.83
222.303	-3.33
222.774	-0.93
223.245	-8.33
223.717	-4.73
224.188	-5.83
224.659	-6.33
225.13	-4.53
225.601	-1.43
226.072	-3.23
226.543	0.67
227.014	-1.63
227.485	-1.33
227.956	-8.43
228.427	-0.33
228.898	1.77
229.369	3.57
229.839	-1.13
230.31	-11.53
230.781	2.67
231.252	-2.43
231.722	-4.73
232.193	0.17
232.664	2.67
233.135	-0.23
233.605	-0.03
234.076	-6.03
234.546	-2.23
235.017	1.67
235.487	-2.63
235.958	-6.03
236.428	0.47
236.899	-2.93
237.369	-8.73
237.84	-6.33
238.31	1.07
238.78	-2.83
239.251	-6.23
239.721	-2.03
240.191	-4.43
240.662	-8.53
241.132	-2.83
241.602	-4.13
242.072	-1.03
242.542	1.27
243.013	-0.93
243.483	4.07
243.953	-0.33
244.423	3.07
244.893	-3.33
245.363	3.07
245.833	-1.63
246.303	-7.43
246.773	0.77
247.243	-0.53
247.712	-0.23
248.182	2.07
248.652	-1.83
249.122	-7.33
249.592	2.47
250.061	1.97
250.531	7.37
251.001	0.37
251.471	4.87
251.94	4.47
252.41	-1.93
252.879	-2.23
253.349	6.17
253.818	6.77
254.288	-0.53
254.757	-5.23
255.227	-4.13
255.696	-0.23
256.166	9.87
256.635	0.77
257.105	2.57
257.574	4.17
258.043	-1.03
258.513	-1.93
258.982	1.07
259.451	-2.03
259.92	0.37
260.389	5.87
260.859	0.07
261.328	2.77
261.797	2.47
262.266	-7.53
262.735	1.47
263.204	6.97
263.673	-2.73
264.142	6.57
264.611	-6.43
265.08	-8.33
265.549	-0.83
266.018	-0.03
266.487	-1.63
266.955	-3.83
267.424	-5.23
267.893	6.77
268.362	-0.23
268.83	4.37
269.299	3.37
269.768	3.57
270.236	-1.63
270.705	-4.83
271.174	-3.23
271.642	-0.63
272.111	0.77
272.579	8.97
273.048	10.67
273.516	-0.63
273.985	3.67
274.453	1.77
274.922	13.27
275.39	5.47
275.858	1.67
276.327	7.87
276.795	11.47
277.263	-5.73
277.731	10.27
278.2	8.37
278.668	-0.33
279.136	2.47
279.604	2.47
280.072	8.87
280.54	4.47
281.008	1.27
281.477	4.77
281.945	-0.83
282.413	4.37
282.881	4.07
283.348	11.87
283.816	8.77
284.284	7.57
284.752	12.17
285.22	5.47
285.688	11.67
286.156	4.47
286.623	5.07
287.091	4.97
287.559	8.17
288.026	7.47
288.494	11.07
288.962	2.57
289.429	4.87
289.897	15.77
290.364	8.27
290.832	10.47
291.3	8.57
291.767	10.07
292.234	10.07
292.702	4.47
293.169	6.37
293.637	14.17
294.104	6.47
294.571	3.17
295.039	10.27
295.506	-0.03
295.973	7.57
296.44	10.97
296.908	12.87
297.375	13.47
297.842	15.97
298.309	12.77
298.776	4.17
299.243	8.17
299.71	4.77
300.177	15.37
300.644	15.47
301.111	13.57
301.578	12.57
302.045	2.67
302.512	14.97
302.979	16.97
303.446	13.77
303.913	15.27
304.379	9.77
304.846	19.77
305.313	19.47
305.78	16.47
306.246	18.87
306.713	18.67
307.18	18.47
307.646	17.17
308.113	19.27
308.579	17.47
309.046	17.57
309.512	24.47
309.979	8.67
310.445	24.37
310.912	26.47
311.378	25.87
311.845	19.87
312.311	19.87
312.777	26.47
313.244	24.27
313.71	35.97
314.176	21.57
314.642	27.07
315.109	19.77
315.575	24.37
316.041	29.47
316.507	26.57
316.973	29.07
317.439	24.97
317.905	28.37
318.371	29.77
318.837	23.27
319.303	24.87
319.769	24.97
320.235	22.17
320.701	30.47
321.167	25.47
321.633	16.47
322.099	30.37
322.564	30.97
323.03	23.47
323.496	28.97
323.962	29.77
324.427	36.07
324.893	31.57
325.359	28.77
325.824	26.27
326.29	31.87
326.755	27.07
327.221	27.87
327.686	28.37
328.152	31.77
328.617	38.07
329.083	34.67
329.548	40.07
330.014	32.77
330.479	30.27
330.944	34.27
331.41	37.47
331.875	33.07
332.34	38.87
332.805	34.67
333.271	41.87
333.736	27.17
334.201	43.57
334.666	51.97
335.131	43.77
335.596	41.47
336.061	41.47
336.526	34.17
336.991	35.67
337.456	46.77
337.921	43.87
338.386	41.27
338.851	42.97
339.316	39.07
339.781	40.47
340.246	49.77
340.711	39.27
341.175	43.87
341.64	39.57
342.105	41.17
342.569	48.97
343.034	53.27
343.499	46.37
343.963	46.37
344.428	50.37
344.893	49.97
345.357	46.47
345.822	51.67
346.286	55.67
346.751	60.67
347.215	54.87
347.679	61.97
348.144	77.27
348.608	76.37
349.073	62.27
349.537	60.77
350.001	66.77
350.465	72.67
350.93	69.57
351.394	70.67
351.858	55.27
352.322	71.97
352.786	74.47
353.25	80.07
353.715	87.97
354.179	78.37
354.643	99.37
355.107	101.47
355.571	82.47
356.035	81.27
356.498	95.17
356.962	89.57
357.426	98.97
357.89	87.07
358.354	71.27
358.818	74.27
359.281	71.57
359.745	65.67
360.209	68.07
360.673	66.67
361.136	74.47
361.6	77.07
362.064	70.67
362.527	79.57
362.991	85.07
363.454	72.87
363.918	66.67
364.381	71.87
364.845	74.97
365.308	79.67
365.772	79.57
366.235	82.17
366.698	75.67
367.162	83.07
367.625	81.87
368.088	79.67
368.552	87.57
369.015	84.47
369.478	82.47
369.941	95.47
370.404	81.17
370.867	93.77
371.331	94.37
371.794	102.27
372.257	91.57
372.72	98.87
373.183	97.87
373.646	86.37
374.109	96.27
374.572	87.57
375.035	95.07
375.497	92.87
375.96	95.27
376.423	99.07
376.886	111.07
377.349	101.67
377.811	90.37
378.274	95.97
378.737	94.57
379.199	100.37
379.662	104.27
380.125	103.77
380.587	100.07
381.05	98.77
381.512	106.67
381.975	121.27
382.437	116.67
382.9	111.27
383.362	112.47
383.825	117.67
384.287	120.77
384.75	118.47
385.212	112.97
385.674	126.17
386.136	119.77
386.599	111.97
387.061	117.17
387.523	114.27
387.985	124.87
388.447	125.27
388.91	111.97
389.372	128.07
389.834	126.17
390.296	123.77
390.758	116.97
391.22	118.87
391.682	135.67
392.144	132.17
392.606	136.27
393.068	138.77
393.529	141.17
393.991	139.77
394.453	132.27
394.915	128.77
395.377	132.47
395.838	131.17
396.3	127.57
396.762	137.77
397.224	125.07
397.685	127.87
398.147	125.67
398.608	127.17
399.07	125.67
399.531	134.77
399.993	138.77
400.454	144.77
400.916	143.07
401.377	136.57
401.839	145.07
402.3	142.67
402.762	162.67
403.223	167.17
403.684	169.57
404.145	156.07
404.607	154.07
405.068	158.47
405.529	158.87
405.99	166.87
406.451	164.57
406.913	164.97
407.374	153.57
407.835	161.87
408.296	163.17
408.757	165.67
409.218	179.77
409.679	173.97
410.14	170.47
410.601	171.77
411.062	177.57
411.522	179.57
411.983	174.17
412.444	175.47
412.905	168.47
413.366	187.07
413.826	194.27
414.287	222.97
414.748	264.38
415.208	256.87
415.669	209.97
416.13	207.57
416.59	201.17
417.051	214.67
417.511	222.87
417.972	239.77
418.432	254.88
418.893	295.27
419.353	258.67
419.814	204.27
420.274	185.97
420.734	176.77
421.195	197.37
421.655	186.87
422.115	190.47
422.576	196.97
423.036	197.87
423.496	207.57
423.956	211.48
424.416	227.97
424.876	264.27
425.336	258.77
425.797	256.97
426.257	248.47
426.717	238.17
427.177	231.38
427.637	220.67
428.097	230.07
428.556	241.67
429.016	255.17
429.476	253.17
429.936	262.98
430.396	260.67
430.856	280.07
431.315	304.67
431.775	320.77
432.235	352.17
432.694	337.17
433.154	332.97
433.614	356.77
434.073	311.27
434.533	270.67
434.993	255.07
435.452	260.67
435.912	274.27
436.371	260.57
436.83	260.57
437.29	243.27
437.749	232.17
438.209	238.47
438.668	254.47
439.127	265.17
439.587	252.57
440.046	236.97
440.505	241.48
440.964	259.57
441.424	286.37
441.883	285.67
442.342	245.27
442.801	224.38
443.26	213.27
443.719	220.47
444.178	221.17
444.637	212.07
445.096	214.17
445.555	215.57
446.014	221.47
446.473	222.88
446.932	233.77
447.391	229.47
447.849	226.17
448.308	221.17
448.767	216.17
449.226	234.77
449.685	231.57
450.143	245.67
450.602	238.37
451.061	227.37
451.519	231.57
451.978	219.37
452.436	221.97
452.895	231.77
453.353	235.37
453.812	232.57
454.27	231.57
454.729	236.67
455.187	231.47
455.646	240.57
456.104	233.88
456.562	252.17
457.021	252.37
457.479	250.37
457.937	253.77
458.395	248.27
458.854	242.77
459.312	244.07
459.77	257.97
460.228	244.07
460.686	240.47
461.144	245.77
461.602	236.97
462.06	243.37
462.518	253.17
462.976	249.37
463.434	252.77
463.892	252.97
464.35	265.27
464.808	272.77
465.266	259.77
465.724	263.57
466.181	264.17
466.639	256.97
467.097	279.27
467.555	289.67
468.012	291.27
468.47	292.57
468.928	312.47
469.385	321.27
469.843	327.17
470.3	326.57
470.758	342.07
471.215	356.97
471.673	365.37
472.13	371.97
472.588	384.07
473.045	350.77
473.503	364.17
473.96	378.77
474.417	378.07
474.875	416.37
475.332	440.67
475.789	425.47
476.246	434.47
476.704	462.47
477.161	473.88
477.618	483.57
478.075	514.48
478.532	562.67
478.989	619.07
479.446	691.17
479.903	686.17
480.36	719.77
480.817	768.27
481.274	842.97
481.731	925.57
482.188	992.17
482.645	1124.78
483.102	1198.97
483.558	1291.78
484.015	1349.58
484.472	1326.47
484.929	1291.28
485.385	1260.27
485.842	1221.17
486.299	1173.58
486.755	1119.08
487.212	962.97
487.668	834.37
488.125	775.57
488.582	716.87
489.038	696.07
489.494	653.77
489.951	641.77
490.407	617.98
490.864	600.97
491.32	598.07
491.776	592.27
492.233	595.37
492.689	564.88
493.145	565.97
493.602	554.07
494.058	569.27
494.514	567.48
494.97	579.98
495.426	581.17
495.882	569.07
496.338	556.88
496.794	562.57
497.251	554.97
497.707	576.48
498.163	582.17
498.618	584.17
499.074	583.97
499.53	596.27
499.986	605.27
500.442	591.87
500.898	567.37
501.354	565.57
501.809	564.07
502.265	567.47
502.721	574.07
503.177	592.77
503.632	597.27
504.088	589.07
504.543	609.77
504.999	623.67
505.455	593.87
505.91	586.47
506.366	594.27
506.821	590.07
507.277	587.87
507.732	577.67
508.187	586.87
508.643	596.47
509.098	588.57
509.553	609.67
510.009	610.27
510.464	622.87
510.919	629.07
511.375	637.17
511.83	644.97
512.285	649.77
512.74	685.88
513.195	689.67
513.65	689.17
514.105	683.27
514.56	705.17
515.015	710.37
515.47	722.97
515.925	704.67
516.38	706.77
516.835	719.97
517.29	701.17
517.745	712.27
518.2	688.47
518.655	676.77
519.109	654.48
519.564	667.77
520.019	657.67
520.474	653.37
520.928	652.17
521.383	645.37
521.838	639.27
522.292	633.07
522.747	642.07
523.201	638.47
523.656	622.38
524.11	621.17
524.565	623.77
525.019	620.07
525.474	632.47
525.928	619.17
526.382	616.07
526.837	618.57
527.291	631.27
527.745	617.57
528.2	626.27
528.654	616.07
529.108	610.17
529.562	607.27
530.016	608.77
530.47	600.37
530.925	606.07
531.379	613.97
531.833	616.57
532.287	612.67
532.741	610.77
533.195	613.17
533.649	619.57
534.103	624.47
534.556	610.27
535.01	626.27
535.464	605.27
535.918	624.48
536.372	622.27
536.826	625.67
537.279	615.77
537.733	621.97
538.187	625.57
538.64	612.87
539.094	619.47
539.548	626.87
540.001	624.17
540.455	632.37
540.908	635.47
541.362	647.17
541.815	642.77
542.269	661.47
542.722	652.67
543.175	662.37
543.629	667.17
544.082	684.97
544.536	684.27
544.989	680.77
545.442	686.87
545.895	678.97
546.349	694.37
546.802	682.47
547.255	696.57
547.708	686.38
548.161	694.07
548.614	704.27
549.067	707.88
549.52	702.27
549.973	693.77
550.426	696.87
550.879	677.47
551.332	679.67
551.785	694.67
552.238	677.77
552.691	700.98
553.144	705.87
553.596	717.37
554.049	736.57
554.502	758.57
554.955	766.97
555.407	768.57
555.86	765.17
556.313	752.97
556.765	747.97
557.218	745.97
557.67	752.27
558.123	735.27
558.576	730.77
559.028	733.17
559.48	739.37
559.933	738.47
560.385	719.57
560.838	680.37
561.29	663.87
561.742	667.37
562.195	649.07
562.647	647.37
563.099	647.67
563.551	647.27
564.004	654.17
564.456	644.67
564.908	628.77
565.36	636.57
565.812	599.57
566.264	588.98
566.716	594.67
567.168	584.97
567.62	598.27
568.072	585.38
568.524	569.57
568.976	559.67
569.428	548.97
569.88	564.17
570.332	567.67
570.784	559.57
571.235	573.07
571.687	575.47
572.139	577.67
572.59	586.17
573.042	578.17
573.494	591.27
573.945	574.97
574.397	555.77
574.849	557.37
575.3	557.17
575.752	562.27
576.203	548.17
576.655	552.47
577.106	543.97
577.557	541.77
578.009	544.67
578.46	542.17
578.912	537.67
579.363	539.17
579.814	542.27
580.265	530.77
580.717	537.47
581.168	536.37
581.619	541.17
582.07	545.17
582.521	543.07
582.972	532.07
583.423	529.67
583.875	547.38
584.326	542.07
584.777	551.57
585.227	566.07
585.678	577.77
586.129	600.47
586.58	612.87
587.031	623.17
587.482	661.47
587.933	693.07
588.384	667.67
588.834	632.27
589.285	616.87
589.736	623.47
590.186	608.17
590.637	604.37
591.088	597.87
591.538	584.17
591.989	574.57
592.439	579.07
592.89	571.97
593.34	557.47
593.791	556.27
594.241	548.87
594.692	548.77
595.142	539.67
595.593	546.07
596.043	541.37
596.493	554.17
596.943	559.48
597.394	557.88
597.844	560.97
598.294	576.67
598.744	594.07
599.195	602.67
599.645	639.17
600.095	667.07
600.545	711.67
600.995	747.77
601.445	794.97
601.895	850.27
602.345	880.67
602.795	863.37
603.245	840.87
603.695	787.27
604.145	746.97
604.594	717.17
605.044	668.77
605.494	623.27
605.944	587.57
606.393	569.67
606.843	559.47
607.293	568.48
607.743	552.47
608.192	556.67
608.642	571.88
609.091	571.17
609.541	578.77
609.99	575.27
610.44	568.17
610.889	549.48
611.339	530.27
611.788	515.17
612.238	524.17
612.687	537.77
613.136	526.17
613.586	544.77
614.035	531.17
614.484	532.87
614.933	528.87
615.383	538.38
615.832	537.67
616.281	526.27
616.73	509.57
617.179	494.87
617.628	493.77
618.077	480.07
618.526	471.17
618.975	471.77
619.424	467.17
619.873	462.17
620.322	471.77
620.771	459.38
621.22	454.67
621.669	451.07
622.118	440.37
622.567	431.57
623.015	430.77
623.464	425.37
623.913	427.97
624.361	412.87
624.81	414.57
625.259	415.87
625.707	417.17
626.156	420.17
626.604	431.97
627.053	421.47
627.501	419.57
627.95	429.87
628.398	427.77
628.847	426.98
629.295	427.47
629.744	423.97
630.192	419.47
630.64	416.67
631.089	408.37
631.537	406.67
631.985	400.57
632.433	394.38
632.881	394.57
633.33	393.97
633.778	391.17
634.226	388.17
634.674	399.67
635.122	399.07
635.57	407.77
636.018	414.17
636.466	421.07
636.914	415.67
637.362	420.57
637.81	426.57
638.258	440.27
638.705	424.07
639.153	451.87
639.601	449.07
640.049	471.87
640.497	501.17
640.944	526.57
641.392	482.17
641.84	459.57
642.287	427.97
642.735	417.17
643.182	413.48
643.63	407.47
644.078	409.48
644.525	418.67
644.973	429.07
645.42	431.87
645.867	450.17
646.315	464.98
646.762	480.27
647.21	489.77
647.657	500.77
648.104	539.27
648.551	543.38
648.999	592.47
649.446	632.88
649.893	681.47
650.34	779.67
650.787	921.77
651.234	1116.97
651.682	1455.17
652.129	1933.07
652.576	2726.38
653.023	3996.28
653.47	5533.47
653.917	6970.77
654.363	8162.37
654.81	9281.67
655.257	8806.67
655.704	5830.97
656.151	3466.68
656.598	2272.97
657.044	1622.08
657.491	1247.28
657.938	1013.57
658.385	852.98
658.831	747.17
659.278	677.77
659.724	590.27
660.171	554.77
660.618	509.67
661.064	479.67
661.511	452.77
661.957	447.47
662.404	433.77
662.85	446.37
663.296	432.27
663.743	392.87
664.189	388.47
664.635	388.17
665.082	376.97
665.528	376.37
665.974	379.17
666.42	370.17
666.867	356.47
667.313	343.47
667.759	332.47
668.205	327.97
668.651	331.37
669.097	330.67
669.543	316.07
669.989	319.07
670.435	318.48
670.881	317.67
671.327	326.77
671.773	347.47
672.219	356.67
672.665	394.87
673.11	419.17
673.556	458.47
674.002	493.77
674.448	480.97
674.893	412.27
675.339	356.27
675.785	323.57
676.23	298.37
676.676	287.67
677.122	285.07
677.567	270.37
678.013	262.87
678.458	249.67
678.904	262.87
679.349	244.07
679.794	252.88
680.24	252.67
680.685	253.17
681.131	255.07
681.576	257.37
682.021	253.47
682.466	246.27
682.912	246.97
683.357	244.07
683.802	270.98
684.247	292.87
684.692	319.07
685.137	346.97
685.583	382.87
686.028	409.87
686.473	384.07
686.918	322.27
687.363	305.17
687.807	276.07
688.252	263.17
688.697	257.87
689.142	237.27
689.587	238.67
690.032	228.37
690.477	250.27
690.921	251.27
691.366	267.27
691.811	288.57
692.255	311.07
692.7	329.57
693.145	355.37
693.589	472.77
694.034	775.17
694.478	1094.67
694.923	1302.88
695.367	1725.47
695.812	905.77
696.256	365.37
696.701	262.87
697.145	247.17
697.59	235.87
698.034	231.07
698.478	239.77
698.922	232.57
699.367	227.38
699.811	241.67
700.255	251.37
700.699	267.67
701.143	296.17
701.588	328.37
702.032	375.57
702.476	361.57
702.92	362.67
703.364	349.07
703.808	444.37
704.252	711.77
704.696	1031.67
705.14	1235.17
705.584	1623.08
706.027	793.87
706.471	378.27
706.915	289.57
707.359	250.27
707.803	226.87
708.246	221.37
708.69	227.67
709.134	225.67
709.577	223.57
710.021	229.17
710.465	227.27
710.908	216.77
711.352	209.67
711.795	228.37
712.239	252.57
712.682	269.57
713.126	293.57
713.569	330.57
714.012	258.17
714.456	216.77
714.899	206.38
715.342	188.07
715.786	192.07
716.229	181.17
716.672	183.67
717.115	173.37
717.558	178.17
718.002	174.67
718.445	189.57
718.888	204.87
719.331	208.37
719.774	218.07
720.217	214.37
720.66	207.27
721.103	186.17
721.546	189.37
721.989	174.97
722.432	160.07
722.874	166.07
723.317	160.77
723.76	163.57
724.203	185.07
724.645	218.77
725.088	303.97
725.531	409.87
725.974	470.57
726.416	404.67
726.859	215.67
727.301	172.67
727.744	166.57
728.187	162.87
728.629	173.47
729.071	169.37
729.514	178.87
729.956	194.07
730.399	200.57
730.841	209.97
731.283	197.07
731.726	189.77
732.168	183.17
732.61	193.67
733.053	198.98
733.495	217.67
733.937	241.37
734.379	276.27
734.821	306.88
735.263	374.87
735.705	574.07
736.148	1077.88
736.59	1846.58
737.032	2301.77
737.474	1892.87
737.916	599.57
738.357	311.57
738.799	230.87
739.241	210.27
739.683	198.67
740.125	214.77
740.567	214.07
741.008	228.37
741.45	235.38
741.892	226.57
742.334	259.98
742.775	268.57
743.217	259.37
743.658	195.37
744.1	179.47
744.542	188.27
744.983	233.07
745.425	265.77
745.866	265.37
746.307	202.47
746.749	200.57
747.19	227.27
747.632	312.57
748.073	596.27
748.514	1285.58
748.956	2073.07
749.397	2610.78
749.838	2169.88
750.279	2254.97
750.72	1141.67
751.162	408.67
751.603	231.17
752.044	173.77
752.485	153.87
752.926	152.87
753.367	150.77
753.808	136.87
754.249	143.47
754.69	131.57
755.131	129.47
755.572	130.67
756.013	126.27
756.453	131.47
756.894	131.67
757.335	128.17
757.776	126.37
758.216	136.37
758.657	139.27
759.098	142.27
759.538	155.97
759.979	176.57
760.42	261.88
760.86	487.17
761.301	1249.38
761.741	3171.88
762.182	4982.27
762.622	3549.58
763.063	1002.28
763.503	393.97
763.943	244.87
764.384	201.67
764.824	179.77
765.264	173.87
765.705	153.37
766.145	131.87
766.585	123.07
767.025	123.77
767.465	118.57
767.906	132.17
768.346	147.77
768.786	147.47
769.226	147.47
769.666	213.07
770.106	422.07
770.546	1069.57
770.986	1975.67
771.426	1812.27
771.866	592.98
772.306	241.77
772.745	139.17
773.185	125.07
773.625	121.37
774.065	106.17
774.505	113.47
774.944	142.27
775.384	261.87
775.824	465.48
776.263	459.88
776.703	212.87
777.142	108.67
777.582	98.97
778.021	84.77
778.461	90.77
778.9	91.17
779.34	85.37
779.779	83.27
780.219	73.07
780.658	75.17
781.097	82.47
781.537	82.37
781.976	74.97
782.415	72.97
782.855	72.17
783.294	65.77
783.733	71.17
784.172	70.37
784.611	70.37
785.05	77.67
785.489	78.07
785.928	85.97
786.367	88.47
786.806	79.47
787.245	84.07
787.684	98.47
788.123	109.17
788.562	91.07
789.001	88.77
789.44	80.17
789.879	84.67
790.317	80.27
790.756	89.97
791.195	87.77
791.634	107.57
792.072	143.67
792.511	251.48
792.95	682.67
793.388	1556.47
793.827	1475.07
794.265	491.87
794.704	198.97
795.142	133.67
795.581	107.47
796.019	97.37
796.458	91.27
796.896	83.77
797.334	94.87
797.773	109.47
798.211	159.57
798.649	303.37
799.087	719.17
799.526	1155.18
799.964	1475.57
800.402	1562.28
800.84	575.07
801.278	226.38
801.716	137.07
802.154	102.47
802.592	108.97
803.03	101.07
803.468	97.47
803.906	99.27
804.344	109.97
804.782	98.67
805.22	88.77
805.658	93.37
806.096	102.67
806.533	113.87
806.971	119.87
807.409	159.17
807.847	222.17
808.284	458.77
808.722	1313.17
809.16	2484.47
809.597	2294.07
810.035	4069.07
810.472	4643.97
810.91	1648.08
811.347	617.17
811.785	307.57
812.222	190.47
812.66	146.67
813.097	123.97
813.535	106.17
813.972	94.67
814.409	86.77
814.846	76.87
815.284	83.37
815.721	71.17
816.158	72.77
816.595	80.37
817.032	117.27
817.47	143.77
817.907	108.77
818.344	72.27
818.781	71.87
819.218	65.17
819.655	84.17
820.092	142.07
820.529	175.57
820.966	127.57
821.403	96.87
821.839	72.67
822.276	69.77
822.713	84.37
823.15	98.17
823.587	76.07
824.023	102.37
824.46	196.27
824.897	630.07
825.333	1030.88
825.77	447.67
826.206	165.77
826.643	97.77
827.08	79.57
827.516	55.17
827.953	52.87
828.389	57.97
828.825	56.37
829.262	52.37
829.698	49.57
830.135	46.67
830.571	43.87
831.007	45.87
831.443	44.27
831.88	43.77
832.316	41.77
832.752	50.57
833.188	40.27
833.624	46.87
834.06	48.17
834.497	51.57
834.933	51.97
835.369	51.17
835.805	55.07
836.241	53.07
836.677	57.67
837.112	60.37
837.548	73.17
837.984	96.97
838.42	136.87
838.856	350.67
839.292	1114.78
839.727	1801.38
840.163	817.57
840.599	666.47
841.034	1513.28
841.47	1678.68
841.906	601.67
842.341	240.77
842.777	145.27
843.212	145.87
843.648	147.97
844.083	84.17
844.519	58.77
844.954	51.17
845.39	43.27
845.825	36.07
846.261	35.17
846.696	36.57
847.131	32.07
847.566	43.17
848.002	32.17
848.437	33.67
848.872	38.97
849.307	43.87
849.742	61.57
850.177	121.97
850.613	396.17
851.048	662.47
851.483	285.97
851.918	108.07
852.353	60.47
852.788	34.07
853.223	34.47
853.657	33.07
854.092	34.17
854.527	30.67
854.962	26.17
855.397	32.67
855.832	35.87
856.266	27.17
856.701	34.27
857.136	27.17
857.57	24.67
858.005	41.67
858.44	46.27
858.874	34.37
859.309	43.87
859.743	28.67
860.178	34.47
860.612	22.17
861.047	41.47
861.481	51.17
861.915	62.67
862.35	39.77
862.784	20.97
863.218	29.07
863.653	24.47
864.087	37.37
864.521	40.47
864.955	45.57
865.39	111.17
865.824	134.87
866.258	88.67
866.692	139.27
867.126	160.87
867.56	90.67
867.994	43.27
868.428	28.07
868.862	40.97
869.296	40.57
869.73	45.97
870.164	40.77
870.598	36.47
871.031	28.37
871.465	17.37
871.899	29.57
872.333	13.87
872.766	16.37
873.2	14.87
873.634	18.37
874.067	16.67
874.501	20.47
874.935	24.77
875.368	20.37
875.802	17.77
876.235	12.07
876.669	19.47
877.102	15.87
877.535	28.07
877.969	18.77
878.402	20.17
878.836	11.27
879.269	14.67
879.702	21.67
880.135	12.37
880.569	16.57
881.002	15.97
881.435	16.17
881.868	8.47
882.301	18.97
882.734	6.27
883.167	16.87
883.601	13.87
884.034	17.97
884.467	9.77
884.899	10.77
885.332	13.77
885.765	6.17
886.198	12.37
886.631	15.67
887.064	10.27
887.497	15.57
887.929	12.17
888.362	11.97
888.795	6.57
889.228	16.07
889.66	13.77
890.093	13.87
890.526	6.37
890.958	5.07
891.391	13.67
891.823	14.97
892.256	10.57
892.688	3.47
893.121	12.07
893.553	10.37
893.985	13.57
894.418	13.77
894.85	12.17
895.282	11.97
895.715	13.07
896.147	14.07
896.579	14.27
897.011	11.97
897.444	16.37
897.876	5.07
898.308	11.77
898.74	8.87
899.172	11.57
899.604	18.67
900.036	10.67
900.468	8.87
900.9	13.47
901.332	12.97
901.764	7.17
902.196	11.97
902.628	14.37
903.06	9.77
903.491	20.37
903.923	8.17
904.355	18.87
904.787	21.67
905.218	19.17
905.65	16.37
906.082	7.67
906.513	8.87
906.945	9.67
907.376	10.77
907.808	8.87
908.239	8.87
908.671	13.17
909.102	19.87
909.534	17.17
909.965	30.27
910.397	66.87
910.828	234.27
911.259	374.07
911.691	172.47
912.122	79.97
912.553	43.27
912.984	24.97
913.415	19.77
913.847	21.37
914.278	13.67
914.709	10.77
915.14	17.47
915.571	14.67
916.002	3.77
916.433	14.77
916.864	12.07
917.295	14.07
917.726	14.27
918.157	11.67
918.587	23.67
919.018	9.17
919.449	16.07
919.88	17.07
920.311	18.07
920.741	34.17
921.172	124.77
921.603	118.47
922.033	55.37
922.464	35.87
922.895	13.57
923.325	16.67
923.756	8.67
924.186	7.57
924.617	13.47
925.047	14.87
925.478	17.17
925.908	19.67
926.338	7.27
926.769	10.17
927.199	16.97
927.629	-2.83
928.06	14.87
928.49	8.57
928.92	7.17
929.35	4.97
929.78	10.47
930.21	-0.93
930.641	8.57
931.071	7.87
931.501	4.17
931.931	3.87
932.361	1.07
932.791	2.47
933.221	0.87
933.651	1.67
934.08	10.47
934.51	21.77
934.94	6.47
935.37	11.77
935.8	10.57
936.229	0.07
936.659	10.87
937.089	1.67
937.519	17.07
937.948	24.37
938.378	12.77
938.807	4.17
939.237	1.47
939.666	4.77
940.096	-9.53
940.525	-1.53
940.955	2.17
941.384	3.77
941.814	-9.13
942.243	-4.03
942.672	3.47
943.102	-0.23
943.531	-0.53
943.96	8.37
944.39	9.57
944.819	4.07
945.248	3.37
945.677	2.77
946.106	5.87
946.535	4.07
946.964	2.07
947.393	3.67
947.822	0.77
948.251	-0.83
948.68	2.57
949.109	3.87
949.538	-0.83
949.967	4.37
950.396	-1.23
950.825	2.67
951.254	1.17
951.682	-3.53
952.111	2.47
952.54	4.67
952.969	-1.13
953.397	-7.53
953.826	1.07
954.254	-4.23
954.683	-6.13
955.112	-6.23
955.54	1.57
955.969	-2.03
956.397	-0.83
956.826	-5.33
957.254	0.67
957.682	-1.93
958.111	1.27
958.539	-2.33
958.967	2.47
959.396	0.87
959.824	1.27
960.252	2.37
960.68	-4.43
961.109	-3.13
961.537	-4.63
961.965	-3.63
962.393	-2.13
962.821	-7.63
963.249	-1.23
963.677	6.07
964.105	-0.03
964.533	38.47
964.961	29.87
965.389	13.27
965.817	5.57
966.245	1.97
966.672	-5.03
967.1	-3.63
967.528	3.07
967.956	-7.53
968.383	-0.03
968.811	-4.13
969.239	1.87
969.666	-0.83
970.094	3.47
970.522	-6.23
970.949	-1.93
971.377	-5.43
971.804	0.67
972.232	-2.33
972.659	-6.23
973.087	3.97
973.514	-1.03
973.941	-5.83
974.369	7.17
974.796	7.27
975.223	1.77
975.651	-1.93
976.078	1.37
976.505	-3.43
976.932	3.87
977.359	6.47
977.786	5.87
978.214	-4.83
978.641	-3.73
979.068	-4.03
979.495	-8.03
979.922	-0.13
980.349	-2.43
980.776	4.67
981.202	-3.13
981.629	2.17
982.056	3.87
982.483	1.07
982.91	-4.83
983.337	-2.83
983.763	-0.03
984.19	-4.73
984.617	-2.13
985.043	-5.43
985.47	-4.93
985.897	-3.13
986.323	-1.73
986.75	5.77
987.176	-2.93
987.603	-0.33
988.029	-0.63
988.456	-2.83
988.882	3.07
989.308	-2.73
989.735	-2.23
990.161	3.17
990.587	-6.03
991.014	-0.73
991.44	1.17
991.866	-1.53
992.292	2.67
992.719	0.77
993.145	4.47
993.571	-13.33
993.997	-2.83
994.423	-0.33
994.849	1.77
995.275	1.27
995.701	3.17
996.127	-3.43
996.553	-3.13
996.979	-2.73
997.405	-1.43
997.83	-1.73
998.256	-4.73
998.682	2.17
999.108	-10.03
999.534	-3.43
999.959	2.37
1000.385	-1.43
1000.811	-1.43
1001.236	-3.43
1001.662	-7.63
1002.087	-9.03
1002.513	6.07
1002.938	-3.33
1003.364	-4.23
1003.789	4.07
1004.215	1.37
1004.64	1.17
1005.066	5.47
1005.491	0.27
1005.916	-1.73
1006.342	-0.63
1006.767	-1.83
1007.192	3.07
1007.617	-4.13
1008.042	-5.93
1008.468	-6.63
1008.893	-8.73
1009.318	-3.03
1009.743	-2.83
1010.168	1.47
1010.593	-1.73
1011.018	-7.23
1011.443	-5.43
1011.868	1.97
1012.293	-2.13
1012.718	-5.93
1013.143	0.87
1013.567	-0.73
1013.992	0.27
1014.417	-9.53
1014.842	0.47
1015.267	-5.53
1015.691	-0.03
1016.116	6.17
1016.541	0.57
1016.965	8.17
1017.39	3.07
1017.814	-1.33
1018.239	-0.13
1018.663	-10.83
1019.088	-8.03
1019.512	-1.53
1019.937	-6.93
1020.361	-6.23
1020.785	-7.83
1021.21	1.97
1021.634	0.57
1022.058	-1.23
1022.483	1.77
1022.907	-1.13
1023.331	1.97
1023.755	-2.83
1024.179	-4.13
1024.604	-6.73
1025.028	-8.03
1025.452	-4.53
1025.876	-4.53
1026.3	1.37
1026.724	-14.73
1027.148	-2.63
1027.572	-8.43
1027.996	-1.53
1028.42	4.17
1028.843	-10.03
1029.267	1.27
1029.691	-0.13
1030.115	-4.33
1030.539	-6.43
1030.962	-3.43
1031.386	-10.83
1031.81	-4.43
1032.233	-1.23
1032.657	-4.43
1033.08	0.17
1033.504	-1.83
1033.927	-1.63
1034.351	3.67
1034.774	-7.73
1035.198	-0.33
1035.621	-2.43
1036.045	-4.93
1036.468	1.17
1036.891	-11.83
1037.315	-11.93
1037.738	-4.43
1038.161	-0.63
1038.584	-1.23
1039.008	-3.73
1039.431	-2.43
1039.854	-7.43
1040.277	-7.33
1040.7	-6.03
1041.123	2.37
1041.546	-8.43
1041.969	-8.43
1042.392	-2.03
1042.815	-7.93
1043.238	2.77
1043.661	2.97
1044.084	-6.23
1044.507	-4.43
1044.93	-8.13
1045.352	-3.93
1045.775	1.87
1046.198	-0.63
1046.621	2.87
1047.043	1.67
1047.466	6.77
1047.889	-0.93
1048.311	-3.03
1048.734	-1.63
1049.156	-2.63
1049.579	-6.23
1050.001	1.17
1050.424	-0.93
1050.846	-2.93
1051.269	-1.33
1051.691	-5.03
1052.113	-5.23
1052.536	-0.33
1052.958	-1.13
1053.38	-3.13
1053.802	-8.13
1054.225	-4.13
1054.647	-7.83
1055.069	-2.73
1055.491	5.67
1055.913	-9.33
1056.335	-1.93
1056.757	1.47
1057.179	-8.43
1057.601	-5.33
1058.023	-0.33
1058.445	-2.53
1058.867	-3.23
1059.289	-0.23
1059.711	-5.33
1060.133	-1.23
1060.555	-5.23
1060.976	-7.33
1061.398	-1.03
1061.82	-10.13
1062.241	-5.23
1062.663	-12.53
1063.085	-1.23
1063.506	0.57
1063.928	-0.53
1064.35	-1.93
1064.771	-11.73
1065.193	-0.43
1065.614	-8.93
1066.035	2.37
1066.457	-6.53
1066.878	2.57
1067.3	-3.23
1067.721	-6.23
1068.142	-7.93
1068.564	-7.33
1068.985	-2.03
1069.406	-7.43
1069.827	-4.93
1070.248	-10.43
1070.67	-0.83
1071.091	-5.43
1071.512	-2.33
1071.933	-3.03
1072.354	-4.93
1072.775	-0.53
1073.196	-13.93
1073.617	4.47
1074.038	-4.03
1074.459	-0.33
1074.88	-6.23
1075.3	3.77
1075.721	-9.23
1076.142	-3.63
1076.563	0.67
1076.983	-12.93
1077.404	0.37
1077.825	-10.43
1078.246	-2.73
1078.666	-9.03
1079.087	-7.43
1079.507	-8.13
1079.928	6.57
1080.348	-3.33
1080.769	-8.33
1081.189	1.17
1081.61	0.17
1082.03	-2.33
1082.451	-8.63
1082.871	-7.73
1083.291	-8.03
1083.711	-2.63
1084.132	-4.23
1084.552	1.77
1084.972	-4.53
1085.392	-11.83
1085.813	-0.63
1086.233	-5.33
1086.653	1.37
1087.073	3.47
1087.493	-5.83
1087.913	-2.93
1088.333	-6.13
1088.753	-0.23
1089.173	5.67
1089.593	-0.53
1090.013	2.07
1090.433	0.97
1090.852	-2.13
1091.272	3.37
1091.692	-2.83
1092.112	-6.83
1092.531	-8.03
1092.951	-17.43
1093.371	2.47
1093.79	1.07
1094.21	2.87
1094.63	-8.83
1095.049	-3.63
1095.469	-5.53
1095.888	-2.13
1096.308	-1.13
1096.727	-1.43
1097.146	-1.83
1097.566	-1.23
1097.985	-4.53
1098.405	2.07
1098.824	-2.63
1099.243	-6.03
1099.662	-5.23
1100.082	-8.03
1100.501	-1.13
1100.92	-7.73
1101.339	-6.13
1101.758	-5.73
