Data from 20171114-ORNL-Ar_H_NY_Subt18_08-03-34-492.txt Node
Date: Tue Nov 14 08:03:34 EST 2017
User: Ender
Spectrometer: HR+D1039
Trigger mode: 0
Integration Time (sec): 2.730000E-2
Scans to average: 10
Electric dark correction enabled: true
Nonlinearity correction enabled: false
Boxcar width: 0
XAxis mode: Wavelengths
Number of Pixels in Spectrum: 2048
>>>>>Begin Spectral Data<<<<<
187.836	-1.97
188.309	-1.97
188.782	-1.97
189.255	0.13
189.728	-3.97
190.201	1.53
190.674	1.53
191.147	-0.37
191.619	-0.87
192.092	-0.67
192.565	7.73
193.038	-0.57
193.511	1.43
193.984	-0.17
194.456	-5.37
194.929	0.83
195.402	-0.87
195.874	1.63
196.347	-3.57
196.82	-10.77
197.292	4.63
197.765	-0.47
198.237	-6.87
198.71	1.03
199.182	-1.77
199.655	6.63
200.127	1.43
200.6	3.43
201.072	-2.37
201.544	-3.87
202.017	-4.27
202.489	5.53
202.961	-0.57
203.433	-0.17
203.906	-4.07
204.378	-1.07
204.85	-7.87
205.322	-8.87
205.794	-2.27
206.266	0.03
206.739	-4.47
207.211	3.23
207.683	-3.87
208.155	-10.07
208.627	-6.07
209.099	-0.47
209.57	-6.17
210.042	-3.67
210.514	-7.57
210.986	1.63
211.458	-9.27
211.93	-0.07
212.402	-2.97
212.873	-7.07
213.345	-5.37
213.817	-13.07
214.288	-5.07
214.76	-14.97
215.232	-6.07
215.703	-5.67
216.175	0.63
216.646	-3.97
217.118	-6.37
217.589	-5.17
218.061	-0.57
218.532	-1.77
219.004	0.53
219.475	-3.07
219.946	-0.37
220.418	-6.17
220.889	1.83
221.36	2.03
221.832	0.63
222.303	-9.77
222.774	-1.17
223.245	-13.67
223.717	-5.77
224.188	-8.27
224.659	-5.17
225.13	-3.57
225.601	-4.17
226.072	-0.87
226.543	-1.77
227.014	-1.27
227.485	-5.67
227.956	-6.07
228.427	-1.37
228.898	1.53
229.369	6.13
229.839	-5.97
230.31	-10.07
230.781	-0.87
231.252	-3.57
231.722	-7.37
232.193	-1.47
232.664	3.73
233.135	-1.37
233.605	-0.77
234.076	-1.87
234.546	-1.27
235.017	1.73
235.487	-4.37
235.958	-2.97
236.428	-7.47
236.899	-1.97
237.369	1.53
237.84	-3.47
238.31	-1.07
238.78	-5.37
239.251	-3.97
239.721	-5.17
240.191	-8.67
240.662	-5.17
241.132	-2.57
241.602	-4.87
242.072	-10.37
242.542	2.23
243.013	-4.47
243.483	0.53
243.953	-4.97
244.423	-0.67
244.893	-4.87
245.363	0.33
245.833	-2.07
246.303	-9.87
246.773	8.83
247.243	-5.67
247.712	-6.37
248.182	-1.67
248.652	7.33
249.122	-10.27
249.592	-0.87
250.061	5.43
250.531	7.03
251.001	1.83
251.471	0.43
251.94	2.03
252.41	-1.27
252.879	-6.97
253.349	3.53
253.818	1.13
254.288	-7.37
254.757	-4.67
255.227	-6.97
255.696	-6.77
256.166	1.63
256.635	2.33
257.105	5.13
257.574	-5.77
258.043	-4.37
258.513	-1.47
258.982	-7.67
259.451	-8.77
259.92	-1.07
260.389	-8.07
260.859	3.83
261.328	-4.17
261.797	0.93
262.266	0.43
262.735	4.83
263.204	-0.27
263.673	-1.27
264.142	-5.97
264.611	-14.67
265.08	-7.37
265.549	-7.37
266.018	1.33
266.487	-7.57
266.955	-5.57
267.424	-2.47
267.893	-2.67
268.362	-4.77
268.83	0.83
269.299	1.23
269.768	1.33
270.236	-4.47
270.705	1.13
271.174	-4.17
271.642	-3.77
272.111	-5.87
272.579	-6.07
273.048	-3.67
273.516	-5.37
273.985	0.33
274.453	0.43
274.922	1.73
275.39	-5.57
275.858	-9.97
276.327	0.23
276.795	3.43
277.263	-4.87
277.731	4.83
278.2	-1.27
278.668	-1.27
279.136	0.83
279.604	-6.77
280.072	0.93
280.54	2.63
281.008	-3.87
281.477	4.43
281.945	3.33
282.413	-0.27
282.881	11.03
283.348	-5.97
283.816	-0.97
284.284	-0.77
284.752	-0.07
285.22	-2.87
285.688	-2.17
286.156	-2.57
286.623	5.63
287.091	-6.37
287.559	4.73
288.026	4.43
288.494	4.33
288.962	-12.77
289.429	-3.87
289.897	2.73
290.364	-4.57
290.832	5.93
291.3	-4.37
291.767	-3.87
292.234	4.13
292.702	-3.17
293.169	-0.07
293.637	11.23
294.104	7.93
294.571	-5.77
295.039	-5.27
295.506	0.93
295.973	-0.37
296.44	-2.17
296.908	-2.67
297.375	2.93
297.842	1.13
298.309	3.53
298.776	-2.67
299.243	2.43
299.71	-8.07
300.177	6.13
300.644	9.53
301.111	-2.37
301.578	-0.87
302.045	-3.87
302.512	4.03
302.979	5.73
303.446	1.43
303.913	2.53
304.379	-3.57
304.846	3.63
305.313	0.83
305.78	1.43
306.246	3.13
306.713	4.13
307.18	3.53
307.646	1.63
308.113	2.23
308.579	1.93
309.046	4.63
309.512	4.73
309.979	-8.17
310.445	3.23
310.912	7.33
311.378	8.23
311.845	6.03
312.311	8.53
312.777	9.63
313.244	1.53
313.71	15.63
314.176	1.53
314.642	5.83
315.109	-1.67
315.575	5.63
316.041	10.33
316.507	0.13
316.973	8.33
317.439	1.73
317.905	11.93
318.371	4.93
318.837	10.63
319.303	1.93
319.769	4.63
320.235	7.83
320.701	7.63
321.167	6.33
321.633	5.73
322.099	6.23
322.564	9.93
323.03	5.63
323.496	3.93
323.962	8.53
324.427	9.63
324.893	14.83
325.359	5.03
325.824	7.73
326.29	5.43
326.755	8.73
327.221	6.53
327.686	2.83
328.152	16.93
328.617	8.83
329.083	13.73
329.548	15.33
330.014	13.93
330.479	6.93
330.944	4.53
331.41	9.83
331.875	14.13
332.34	11.23
332.805	5.23
333.271	9.73
333.736	4.93
334.201	16.43
334.666	9.43
335.131	12.23
335.596	14.93
336.061	15.63
336.526	1.43
336.991	7.83
337.456	15.83
337.921	15.03
338.386	6.63
338.851	6.53
339.316	13.63
339.781	11.43
340.246	10.13
340.711	10.63
341.175	13.53
341.64	5.23
342.105	10.93
342.569	10.73
343.034	12.33
343.499	11.23
343.963	7.33
344.428	22.33
344.893	20.43
345.357	15.53
345.822	14.33
346.286	23.13
346.751	15.53
347.215	23.53
347.679	14.53
348.144	24.63
348.608	22.03
349.073	15.33
349.537	17.53
350.001	18.63
350.465	29.93
350.93	16.23
351.394	30.93
351.858	18.53
352.322	22.73
352.786	18.13
353.25	21.53
353.715	32.73
354.179	23.33
354.643	33.83
355.107	28.23
355.571	25.33
356.035	27.13
356.498	30.83
356.962	29.33
357.426	33.63
357.89	31.93
358.354	22.63
358.818	29.63
359.281	28.63
359.745	22.13
360.209	21.93
360.673	16.23
361.136	20.53
361.6	29.33
362.064	23.23
362.527	20.53
362.991	23.03
363.454	24.43
363.918	16.83
364.381	22.13
364.845	25.73
365.308	27.83
365.772	26.43
366.235	25.13
366.698	25.63
367.162	20.13
367.625	23.53
368.088	27.83
368.552	23.83
369.015	22.73
369.478	32.23
369.941	34.83
370.404	25.53
370.867	27.73
371.331	28.43
371.794	30.13
372.257	26.63
372.72	37.93
373.183	35.93
373.646	22.23
374.109	23.03
374.572	29.63
375.035	21.13
375.497	29.03
375.96	30.23
376.423	32.53
376.886	34.13
377.349	35.73
377.811	26.33
378.274	32.53
378.737	23.63
379.199	35.83
379.662	30.23
380.125	34.33
380.587	28.03
381.05	38.13
381.512	37.63
381.975	40.83
382.437	34.13
382.9	32.83
383.362	37.83
383.825	36.63
384.287	38.13
384.75	37.23
385.212	37.83
385.674	39.83
386.136	45.73
386.599	37.53
387.061	35.63
387.523	33.93
387.985	40.53
388.447	45.43
388.91	40.93
389.372	43.33
389.834	42.53
390.296	36.33
390.758	40.53
391.22	47.03
391.682	45.73
392.144	48.23
392.606	46.43
393.068	47.73
393.529	46.03
393.991	45.73
394.453	44.83
394.915	53.13
395.377	38.83
395.838	43.03
396.3	45.83
396.762	54.43
397.224	42.93
397.685	38.53
398.147	46.43
398.608	44.13
399.07	46.43
399.531	44.23
399.993	45.43
400.454	53.03
400.916	50.23
401.377	47.13
401.839	45.43
402.3	50.93
402.762	54.63
403.223	58.13
403.684	55.23
404.145	50.03
404.607	52.73
405.068	55.43
405.529	52.63
405.99	55.13
406.451	53.53
406.913	60.53
407.374	53.33
407.835	54.63
408.296	53.13
408.757	55.03
409.218	62.53
409.679	48.83
410.14	58.33
410.601	52.03
411.062	65.93
411.522	66.33
411.983	57.53
412.444	56.83
412.905	66.63
413.366	60.53
413.826	72.03
414.287	83.73
414.748	114.73
415.208	96.13
415.669	80.83
416.13	86.63
416.59	75.13
417.051	89.93
417.511	94.23
417.972	97.73
418.432	98.13
418.893	134.13
419.353	107.83
419.814	79.53
420.274	72.13
420.734	68.93
421.195	71.63
421.655	72.43
422.115	78.53
422.576	72.63
423.036	72.73
423.496	77.03
423.956	88.53
424.416	89.83
424.876	101.23
425.336	92.53
425.797	95.93
426.257	97.93
426.717	76.83
427.177	81.03
427.637	75.33
428.097	76.13
428.556	72.13
429.016	85.83
429.476	74.93
429.936	75.03
430.396	71.63
430.856	81.33
431.315	84.53
431.775	97.03
432.235	108.93
432.694	95.33
433.154	104.03
433.614	111.43
434.073	93.33
434.533	80.03
434.993	77.83
435.452	84.33
435.912	87.43
436.371	81.53
436.83	87.13
437.29	92.93
437.749	83.73
438.209	80.73
438.668	84.73
439.127	95.13
439.587	86.03
440.046	80.23
440.505	81.53
440.964	95.43
441.424	94.73
441.883	99.93
442.342	101.53
442.801	83.63
443.26	77.53
443.719	87.33
444.178	82.93
444.637	65.83
445.096	78.83
445.555	78.43
446.014	81.23
446.473	88.83
446.932	87.73
447.391	85.93
447.849	81.53
448.308	77.13
448.767	79.33
449.226	87.23
449.685	91.13
450.143	96.53
450.602	92.13
451.061	84.73
451.519	87.23
451.978	81.33
452.436	79.43
452.895	80.43
453.353	91.73
453.812	87.23
454.27	95.13
454.729	91.73
455.187	82.03
455.646	90.73
456.104	94.83
456.562	90.23
457.021	91.33
457.479	94.03
457.937	100.63
458.395	93.53
458.854	89.73
459.312	86.13
459.77	95.43
460.228	87.13
460.686	93.63
461.144	97.93
461.602	89.33
462.06	89.93
462.518	96.73
462.976	88.43
463.434	93.93
463.892	91.83
464.35	92.03
464.808	102.83
465.266	92.93
465.724	95.43
466.181	103.63
466.639	95.53
467.097	106.13
467.555	104.93
468.012	104.43
468.47	105.63
468.928	113.63
469.385	122.63
469.843	114.63
470.3	120.03
470.758	119.43
471.215	123.23
471.673	129.03
472.13	129.03
472.588	139.13
473.045	128.53
473.503	133.23
473.96	128.13
474.417	133.73
474.875	134.53
475.332	145.93
475.789	142.73
476.246	149.33
476.704	146.93
477.161	155.53
477.618	145.33
478.075	155.73
478.532	168.43
478.989	169.03
479.446	185.13
479.903	177.73
480.36	170.23
480.817	154.93
481.274	171.93
481.731	166.33
482.188	166.33
482.645	186.13
483.102	180.33
483.558	188.93
484.015	192.43
484.472	194.93
484.929	191.33
485.385	188.13
485.842	193.93
486.299	202.73
486.755	215.73
487.212	205.93
487.668	178.03
488.125	189.43
488.582	182.93
489.038	187.33
489.494	177.23
489.951	180.53
490.407	189.13
490.864	176.33
491.32	186.93
491.776	189.13
492.233	193.43
492.689	182.93
493.145	185.63
493.602	189.43
494.058	193.33
494.514	186.43
494.97	201.03
495.426	195.63
495.882	186.83
496.338	191.83
496.794	201.33
497.251	188.83
497.707	193.03
498.163	197.63
498.618	199.53
499.074	202.93
499.53	208.33
499.986	201.73
500.442	200.53
500.898	199.93
501.354	200.83
501.809	195.43
502.265	204.43
502.721	211.63
503.177	209.63
503.632	210.63
504.088	213.73
504.543	217.43
504.999	215.73
505.455	206.53
505.91	205.13
506.366	209.73
506.821	198.43
507.277	202.73
507.732	200.13
508.187	201.13
508.643	209.83
509.098	206.13
509.553	217.63
510.009	218.53
510.464	210.83
510.919	222.23
511.375	219.33
511.83	229.13
512.285	227.53
512.74	240.53
513.195	245.83
513.65	237.53
514.105	245.93
514.56	247.33
515.015	254.63
515.47	256.93
515.925	258.33
516.38	243.53
516.835	256.63
517.29	250.63
517.745	255.43
518.2	238.73
518.655	234.43
519.109	235.73
519.564	229.83
520.019	226.43
520.474	223.43
520.928	224.13
521.383	227.33
521.838	222.03
522.292	221.13
522.747	225.83
523.201	233.93
523.656	222.43
524.11	220.63
524.565	216.53
525.019	213.93
525.474	213.33
525.928	213.83
526.382	207.13
526.837	211.33
527.291	215.63
527.745	208.93
528.2	213.33
528.654	212.33
529.108	203.43
529.562	202.83
530.016	207.63
530.47	208.23
530.925	205.23
531.379	203.13
531.833	212.33
532.287	204.23
532.741	201.93
533.195	203.33
533.649	199.83
534.103	208.63
534.556	199.53
535.01	208.73
535.464	198.43
535.918	211.73
536.372	210.13
536.826	210.03
537.279	204.83
537.733	203.23
538.187	208.93
538.64	206.13
539.094	210.93
539.548	202.53
540.001	203.93
540.455	209.03
540.908	213.83
541.362	213.93
541.815	221.23
542.269	224.23
542.722	216.43
543.175	225.33
543.629	228.73
544.082	232.23
544.536	231.03
544.989	230.23
545.442	239.13
545.895	241.73
546.349	234.53
546.802	237.63
547.255	244.53
547.708	233.13
548.161	248.93
548.614	246.33
549.067	245.73
549.52	242.43
549.973	242.93
550.426	237.03
550.879	221.73
551.332	229.33
551.785	236.23
552.238	234.63
552.691	235.83
553.144	241.43
553.596	236.83
554.049	250.33
554.502	268.93
554.955	273.73
555.407	267.53
555.86	266.23
556.313	262.53
556.765	248.93
557.218	248.53
557.67	249.53
558.123	251.23
558.576	251.73
559.028	248.23
559.48	261.33
559.933	256.43
560.385	231.13
560.838	224.63
561.29	215.33
561.742	220.03
562.195	223.33
562.647	216.33
563.099	225.03
563.551	220.33
564.004	223.73
564.456	222.43
564.908	210.13
565.36	206.63
565.812	197.03
566.264	200.13
566.716	198.83
567.168	183.53
567.62	194.83
568.072	190.43
568.524	182.33
568.976	185.73
569.428	179.43
569.88	179.43
570.332	176.13
570.784	180.43
571.235	182.23
571.687	188.83
572.139	189.83
572.59	201.33
573.042	194.33
573.494	194.33
573.945	196.03
574.397	179.33
574.849	185.23
575.3	183.03
575.752	182.43
576.203	181.93
576.655	188.23
577.106	163.73
577.557	177.43
578.009	180.33
578.46	171.53
578.912	167.13
579.363	168.43
579.814	170.43
580.265	169.63
580.717	170.43
581.168	160.93
581.619	177.13
582.07	170.43
582.521	174.33
582.972	165.73
583.423	165.23
583.875	168.23
584.326	175.53
584.777	178.83
585.227	183.73
585.678	185.53
586.129	188.73
586.58	192.73
587.031	204.43
587.482	214.83
587.933	211.53
588.384	202.33
588.834	204.03
589.285	208.53
589.736	208.33
590.186	200.43
590.637	200.93
591.088	192.83
591.538	191.43
591.989	194.43
592.439	191.43
592.89	184.63
593.34	174.83
593.791	175.23
594.241	175.93
594.692	177.73
595.142	176.53
595.593	169.23
596.043	182.43
596.493	175.93
596.943	175.93
597.394	179.83
597.844	180.63
598.294	183.53
598.744	200.83
599.195	202.43
599.645	209.93
600.095	225.03
600.545	253.23
600.995	276.93
601.445	290.13
601.895	312.63
602.345	337.63
602.795	318.43
603.245	284.83
603.695	275.13
604.145	239.93
604.594	233.63
605.044	215.83
605.494	190.93
605.944	177.73
606.393	181.73
606.843	175.23
607.293	180.53
607.743	182.43
608.192	178.13
608.642	184.23
609.091	192.73
609.541	190.33
609.99	191.03
610.44	184.03
610.889	180.03
611.339	164.93
611.788	165.63
612.238	161.33
612.687	174.83
613.136	178.73
613.586	178.33
614.035	165.23
614.484	169.73
614.933	164.53
615.383	176.23
615.832	168.43
616.281	181.43
616.73	172.73
617.179	160.53
617.628	154.43
618.077	155.63
618.526	149.83
618.975	151.73
619.424	146.73
619.873	147.63
620.322	153.73
620.771	141.13
621.22	149.83
621.669	146.13
622.118	139.23
622.567	134.93
623.015	122.43
623.464	137.73
623.913	129.03
624.361	119.23
624.81	121.73
625.259	124.13
625.707	127.33
626.156	129.13
626.604	142.73
627.053	132.13
627.501	128.33
627.95	135.03
628.398	137.13
628.847	134.63
629.295	129.73
629.744	134.93
630.192	135.43
630.64	124.13
631.089	123.13
631.537	123.83
631.985	116.13
632.433	117.33
632.881	115.33
633.33	118.73
633.778	114.93
634.226	114.73
634.674	115.03
635.122	119.93
635.57	125.83
636.018	127.43
636.466	134.13
636.914	120.33
637.362	130.63
637.81	137.43
638.258	131.43
638.705	127.93
639.153	134.63
639.601	136.13
640.049	142.23
640.497	155.83
640.944	168.43
641.392	140.03
641.84	128.83
642.287	121.83
642.735	100.53
643.182	106.33
643.63	102.83
644.078	110.53
644.525	110.93
644.973	111.03
645.42	106.03
645.867	114.43
646.315	112.73
646.762	111.23
647.21	113.63
647.657	103.73
648.104	116.53
648.551	107.63
648.999	102.43
649.446	105.53
649.893	105.23
650.34	97.43
650.787	102.23
651.234	107.23
651.682	102.93
652.129	108.23
652.576	105.83
653.023	125.63
653.47	134.43
653.917	131.23
654.363	145.43
654.81	151.93
655.257	146.83
655.704	127.73
656.151	107.93
656.598	102.73
657.044	98.33
657.491	108.53
657.938	96.23
658.385	105.53
658.831	111.03
659.278	111.53
659.724	102.83
660.171	108.23
660.618	94.63
661.064	110.43
661.511	95.63
661.957	103.03
662.404	96.03
662.85	111.53
663.296	110.13
663.743	103.53
664.189	102.73
664.635	101.63
665.082	96.73
665.528	101.43
665.974	103.13
666.42	96.03
666.867	101.83
667.313	87.13
667.759	94.63
668.205	94.63
668.651	90.83
669.097	89.33
669.543	89.13
669.989	97.13
670.435	97.53
670.881	92.23
671.327	88.13
671.773	101.53
672.219	104.93
672.665	119.93
673.11	130.33
673.556	150.23
674.002	174.03
674.448	156.93
674.893	125.03
675.339	102.73
675.785	97.83
676.23	92.43
676.676	80.33
677.122	80.43
677.567	75.43
678.013	87.43
678.458	79.03
678.904	77.03
679.349	63.13
679.794	67.93
680.24	71.23
680.685	73.33
681.131	73.03
681.576	81.13
682.021	80.23
682.466	73.13
682.912	71.33
683.357	68.13
683.802	82.23
684.247	91.23
684.692	101.73
685.137	115.73
685.583	133.83
686.028	143.53
686.473	120.03
686.918	104.83
687.363	98.33
687.807	90.53
688.252	74.03
688.697	75.53
689.142	70.93
689.587	68.53
690.032	60.23
690.477	70.83
690.921	73.43
691.366	88.73
691.811	92.43
692.255	97.43
692.7	115.13
693.145	118.43
693.589	167.03
694.034	294.53
694.478	417.43
694.923	504.13
695.367	676.53
695.812	328.93
696.256	111.83
696.701	81.63
697.145	74.13
697.59	68.43
698.034	70.43
698.478	73.13
698.922	72.13
699.367	65.23
699.811	71.53
700.255	81.33
700.699	94.53
701.143	103.73
701.588	120.83
702.032	141.63
702.476	125.33
702.92	121.53
703.364	114.13
703.808	145.33
704.252	268.53
704.696	398.63
705.14	481.53
705.584	642.23
706.027	298.23
706.471	121.03
706.915	88.03
707.359	71.83
707.803	72.53
708.246	59.43
708.69	70.53
709.134	76.43
709.577	75.13
710.021	78.93
710.465	68.43
710.908	62.03
711.352	67.43
711.795	68.53
712.239	86.13
712.682	84.63
713.126	97.43
713.569	112.73
714.012	89.33
714.456	68.83
714.899	67.23
715.342	55.53
715.786	51.13
716.229	54.23
716.672	56.43
717.115	52.03
717.558	52.03
718.002	48.93
718.445	52.93
718.888	65.93
719.331	61.23
719.774	69.73
720.217	62.33
720.66	57.63
721.103	53.03
721.546	50.93
721.989	50.93
722.432	40.43
722.874	51.23
723.317	40.53
723.76	45.03
724.203	54.43
724.645	72.93
725.088	110.23
725.531	139.93
725.974	176.93
726.416	145.23
726.859	73.23
727.301	49.63
727.744	53.33
728.187	45.23
728.629	51.83
729.071	50.43
729.514	62.13
729.956	61.73
730.399	69.63
730.841	68.53
731.283	63.23
731.726	64.83
732.168	55.33
732.61	59.43
733.053	60.23
733.495	73.73
733.937	80.83
734.379	97.23
734.821	98.73
735.263	130.13
735.705	210.03
736.148	426.53
736.59	717.13
737.032	899.83
737.474	738.63
737.916	211.53
738.357	105.63
738.799	72.83
739.241	68.33
739.683	58.33
740.125	63.93
740.567	66.63
741.008	76.93
741.45	74.53
741.892	74.53
742.334	82.13
742.775	81.73
743.217	76.33
743.658	59.43
744.1	51.93
744.542	52.93
744.983	66.23
745.425	78.63
745.866	80.13
746.307	61.83
746.749	58.83
747.19	76.03
747.632	106.53
748.073	213.73
748.514	513.63
748.956	824.03
749.397	998.43
749.838	836.83
750.279	882.83
750.72	423.73
751.162	138.73
751.603	74.13
752.044	55.03
752.485	45.53
752.926	52.33
753.367	45.03
753.808	38.23
754.249	43.53
754.69	37.33
755.131	39.03
755.572	36.73
756.013	30.43
756.453	41.73
756.894	40.63
757.335	36.93
757.776	37.93
758.216	40.63
758.657	41.73
759.098	33.03
759.538	43.23
759.979	53.43
760.42	77.53
760.86	170.73
761.301	476.83
761.741	1210.53
762.182	1897.03
762.622	1326.23
763.063	356.23
763.503	132.13
763.943	75.93
764.384	62.03
764.824	47.53
765.264	45.43
765.705	38.83
766.145	38.33
766.585	34.43
767.025	30.43
767.465	29.13
767.906	36.83
768.346	39.73
768.786	36.13
769.226	45.63
769.666	72.23
770.106	147.43
770.546	416.73
770.986	776.13
771.426	711.73
771.866	220.53
772.306	76.63
772.745	49.03
773.185	34.23
773.625	39.33
774.065	29.13
774.505	26.23
774.944	36.13
775.384	73.83
775.824	132.43
776.263	136.33
776.703	51.13
777.142	29.73
777.582	27.03
778.021	22.53
778.461	22.13
778.9	19.83
779.34	28.43
779.779	25.43
780.219	14.73
780.658	12.23
781.097	18.63
781.537	26.63
781.976	19.23
782.415	20.33
782.855	19.73
783.294	16.43
783.733	22.33
784.172	20.33
784.611	12.03
785.05	16.53
785.489	20.03
785.928	25.23
786.367	25.23
786.806	26.23
787.245	31.53
787.684	30.63
788.123	35.43
788.562	27.23
789.001	29.03
789.44	25.03
789.879	15.73
790.317	21.93
790.756	26.13
791.195	16.73
791.634	29.03
792.072	49.43
792.511	82.63
792.95	266.23
793.388	612.93
793.827	576.13
794.265	179.73
794.704	65.33
795.142	42.93
795.581	41.63
796.019	36.63
796.458	22.63
796.896	22.43
797.334	24.43
797.773	37.23
798.211	57.73
798.649	115.03
799.087	279.93
799.526	451.43
799.964	574.73
800.402	620.83
800.84	214.33
801.278	71.93
801.716	40.03
802.154	29.03
802.592	33.53
803.03	34.73
803.468	24.73
803.906	23.33
804.344	37.93
804.782	35.23
805.22	30.53
805.658	23.13
806.096	34.13
806.533	41.03
806.971	40.93
807.409	49.53
807.847	76.03
808.284	165.43
808.722	510.43
809.16	973.13
809.597	851.33
810.035	1535.23
810.472	1769.43
810.91	608.63
811.347	212.93
811.785	98.43
812.222	65.23
812.66	44.03
813.097	37.23
813.535	32.03
813.972	28.43
814.409	27.93
814.846	28.03
815.284	31.43
815.721	24.13
816.158	21.43
816.595	16.23
817.032	33.93
817.47	37.63
817.907	36.63
818.344	17.93
818.781	16.33
819.218	14.43
819.655	22.03
820.092	27.63
820.529	37.93
820.966	34.93
821.403	31.13
821.839	21.83
822.276	23.83
822.713	25.93
823.15	33.73
823.587	23.33
824.023	34.13
824.46	72.93
824.897	248.33
825.333	405.23
825.77	171.33
826.206	59.53
826.643	33.23
827.08	22.03
827.516	15.43
827.953	9.73
828.389	18.93
828.825	14.13
829.262	17.53
829.698	11.23
830.135	8.43
830.571	10.53
831.007	14.83
831.443	9.23
831.88	11.53
832.316	12.53
832.752	6.23
833.188	13.63
833.624	10.43
834.06	13.13
834.497	12.23
834.933	18.83
835.369	19.03
835.805	12.93
836.241	17.23
836.677	17.53
837.112	14.23
837.548	14.03
837.984	31.03
838.42	42.33
838.856	121.93
839.292	423.43
839.727	709.93
840.163	301.43
840.599	241.43
841.034	597.53
841.47	651.33
841.906	219.73
842.341	86.73
842.777	44.43
843.212	42.73
843.648	51.13
844.083	25.53
844.519	17.73
844.954	16.33
845.39	7.93
845.825	9.43
846.261	6.43
846.696	5.73
847.131	7.33
847.566	12.73
848.002	5.53
848.437	11.23
848.872	14.73
849.307	9.63
849.742	16.13
850.177	41.03
850.613	161.73
851.048	258.23
851.483	102.43
851.918	36.13
852.353	18.13
852.788	5.83
853.223	8.63
853.657	11.93
854.092	9.23
854.527	7.13
854.962	-0.57
855.397	6.53
855.832	8.23
856.266	9.03
856.701	9.33
857.136	5.83
857.57	3.63
858.005	7.33
858.44	12.93
858.874	6.13
859.309	10.03
859.743	1.83
860.178	10.13
860.612	6.93
861.047	13.73
861.481	10.53
861.915	15.03
862.35	13.63
862.784	-0.27
863.218	11.03
863.653	2.93
864.087	6.63
864.521	14.93
864.955	13.63
865.39	33.03
865.824	42.93
866.258	27.43
866.692	39.13
867.126	40.83
867.56	15.63
867.994	10.03
868.428	8.73
868.862	9.33
869.296	12.03
869.73	12.43
870.164	5.63
870.598	6.63
871.031	1.83
871.465	5.23
871.899	9.23
872.333	-5.67
872.766	1.23
873.2	-6.07
873.634	9.63
874.067	2.33
874.501	4.73
874.935	5.43
875.368	2.63
875.802	2.43
876.235	0.73
876.669	2.43
877.102	0.33
877.535	2.93
877.969	3.33
878.402	0.63
878.836	0.53
879.269	4.53
879.702	0.43
880.135	1.03
880.569	4.63
881.002	7.83
881.435	0.03
881.868	0.93
882.301	-1.67
882.734	-1.47
883.167	1.93
883.601	1.43
884.034	0.83
884.467	-0.07
884.899	3.03
885.332	-4.17
885.765	-1.57
886.198	-2.97
886.631	4.83
887.064	7.23
887.497	9.33
887.929	5.43
888.362	1.83
888.795	-4.47
889.228	2.13
889.66	1.63
890.093	1.33
890.526	2.53
890.958	1.03
891.391	6.23
891.823	2.53
892.256	2.83
892.688	-6.67
893.121	0.83
893.553	-1.97
893.985	7.43
894.418	7.53
894.85	-4.87
895.282	-0.27
895.715	-2.37
896.147	-1.67
896.579	-0.77
897.011	0.83
897.444	-1.47
897.876	4.53
898.308	2.03
898.74	-5.37
899.172	-4.47
899.604	5.33
900.036	7.33
900.468	1.13
900.9	-5.27
901.332	1.33
901.764	-6.07
902.196	-4.67
902.628	-3.47
903.06	-2.07
903.491	7.73
903.923	3.73
904.355	3.23
904.787	5.33
905.218	-7.57
905.65	1.03
906.082	-4.77
906.513	-5.27
906.945	-1.07
907.376	-2.77
907.808	0.33
908.239	2.23
908.671	-1.17
909.102	1.63
909.534	1.63
909.965	8.43
910.397	23.93
910.828	92.73
911.259	147.63
911.691	68.23
912.122	29.13
912.553	16.13
912.984	12.03
913.415	7.33
913.847	6.53
914.278	0.03
914.709	4.33
915.14	2.33
915.571	1.83
916.002	-3.27
916.433	11.13
916.864	1.13
917.295	-0.27
917.726	3.43
918.157	2.83
918.587	3.73
919.018	1.73
919.449	0.43
919.88	1.53
920.311	8.93
920.741	6.13
921.172	45.63
921.603	37.63
922.033	10.53
922.464	6.73
922.895	2.83
923.325	3.03
923.756	-1.67
924.186	-1.67
924.617	-2.07
925.047	-1.77
925.478	-3.07
925.908	-4.57
926.338	-5.37
926.769	-1.67
927.199	8.13
927.629	-3.17
928.06	1.53
928.49	-1.87
928.92	0.53
929.35	-2.97
929.78	2.43
930.21	0.63
930.641	-2.77
931.071	3.33
931.501	-9.17
931.931	1.53
932.361	-2.07
932.791	-3.27
933.221	-5.97
933.651	-2.57
934.08	-4.07
934.51	12.83
934.94	0.03
935.37	1.63
935.8	3.13
936.229	0.63
936.659	2.83
937.089	-0.57
937.519	1.63
937.948	6.03
938.378	3.93
938.807	-1.87
939.237	-5.67
939.666	1.03
940.096	-12.27
940.525	-5.67
940.955	-0.87
941.384	-2.27
941.814	-4.47
942.243	-2.57
942.672	-0.77
943.102	-5.37
943.531	-4.27
943.96	-1.87
944.39	2.23
944.819	-8.77
945.248	2.63
945.677	-1.97
946.106	-4.17
946.535	1.33
946.964	0.13
947.393	1.33
947.822	-2.87
948.251	-7.57
948.68	4.83
949.109	0.93
949.538	0.03
949.967	-0.27
950.396	-3.57
950.825	0.03
951.254	-3.27
951.682	-5.27
952.111	3.43
952.54	5.53
952.969	-5.47
953.397	-9.87
953.826	0.43
954.254	-7.77
954.683	4.53
955.112	-2.57
955.54	-0.47
955.969	-1.77
956.397	-4.97
956.826	-5.27
957.254	2.43
957.682	1.63
958.111	3.63
958.539	-6.27
958.967	-1.07
959.396	2.23
959.824	-0.87
960.252	2.93
960.68	-8.27
961.109	-8.47
961.537	-9.77
961.965	-5.37
962.393	0.63
962.821	-0.17
963.249	-3.17
963.677	2.43
964.105	-6.97
964.533	6.73
964.961	9.93
965.389	10.13
965.817	-0.07
966.245	-2.37
966.672	-8.17
967.1	-5.57
967.528	-2.27
967.956	0.03
968.383	-8.37
968.811	-0.67
969.239	-0.77
969.666	-3.37
970.094	4.53
970.522	-1.27
970.949	-2.07
971.377	-6.07
971.804	-7.17
972.232	-3.17
972.659	-2.67
973.087	-6.07
973.514	-4.57
973.941	-3.27
974.369	2.43
974.796	-0.97
975.223	-4.87
975.651	-8.17
976.078	7.93
976.505	-3.77
976.932	-1.37
977.359	-1.67
977.786	6.03
978.214	-3.07
978.641	-5.77
979.068	-8.17
979.495	-5.97
979.922	-1.97
980.349	-9.57
980.776	1.43
981.202	-2.37
981.629	0.13
982.056	-1.57
982.483	-3.67
982.91	0.53
983.337	-4.27
983.763	5.33
984.19	-1.17
984.617	-2.87
985.043	-11.77
985.47	-0.27
985.897	-8.27
986.323	-5.77
986.75	-2.87
987.176	-0.07
987.603	-1.57
988.029	-4.27
988.456	-7.47
988.882	4.73
989.308	-3.87
989.735	-3.07
990.161	-1.97
990.587	-4.87
991.014	-2.17
991.44	6.33
991.866	0.93
992.292	-4.57
992.719	-3.07
993.145	5.43
993.571	-10.47
993.997	-6.17
994.423	-2.77
994.849	-6.37
995.275	1.03
995.701	-1.97
996.127	-6.17
996.553	4.53
996.979	-0.87
997.405	-3.17
997.83	-2.07
998.256	-9.57
998.682	-1.87
999.108	-8.57
999.534	1.73
999.959	-2.17
1000.385	-6.97
1000.811	-2.57
1001.236	-8.57
1001.662	-6.37
1002.087	-6.17
1002.513	3.93
1002.938	6.23
1003.364	-3.17
1003.789	-2.47
1004.215	5.13
1004.64	-0.77
1005.066	1.33
1005.491	1.93
1005.916	-0.67
1006.342	-8.37
1006.767	-10.87
1007.192	3.53
1007.617	-6.77
1008.042	-3.17
1008.468	-10.27
1008.893	-5.57
1009.318	-6.87
1009.743	-6.47
1010.168	5.23
1010.593	-7.37
1011.018	-9.27
1011.443	-2.47
1011.868	0.83
1012.293	-5.67
1012.718	-5.87
1013.143	1.53
1013.567	0.53
1013.992	-1.47
1014.417	-13.97
1014.842	5.83
1015.267	-6.07
1015.691	-9.27
1016.116	0.33
1016.541	0.33
1016.965	0.73
1017.39	3.13
1017.814	5.13
1018.239	-3.67
1018.663	-10.27
1019.088	-8.87
1019.512	-6.57
1019.937	3.43
1020.361	-6.47
1020.785	-13.47
1021.21	-5.17
1021.634	-4.77
1022.058	-2.67
1022.483	8.33
1022.907	-4.77
1023.331	-7.07
1023.755	-6.97
1024.179	-3.77
1024.604	-3.87
1025.028	-9.57
1025.452	-2.27
1025.876	-3.37
1026.3	2.23
1026.724	-9.77
1027.148	-4.47
1027.572	-10.97
1027.996	-2.67
1028.42	3.13
1028.843	1.83
1029.267	-2.87
1029.691	-2.97
1030.115	-4.17
1030.539	-8.07
1030.962	-3.27
1031.386	-10.87
1031.81	1.73
1032.233	1.93
1032.657	-2.47
1033.08	-4.37
1033.504	-1.47
1033.927	2.03
1034.351	-3.57
1034.774	-2.47
1035.198	-2.57
1035.621	-4.57
1036.045	-5.77
1036.468	-3.37
1036.891	-12.17
1037.315	-10.87
1037.738	-9.17
1038.161	-4.17
1038.584	-0.67
1039.008	-6.17
1039.431	-0.17
1039.854	-4.87
1040.277	-9.77
1040.7	-7.97
1041.123	-0.07
1041.546	-7.47
1041.969	-3.67
1042.392	-4.07
1042.815	-6.57
1043.238	-0.97
1043.661	2.43
1044.084	-7.97
1044.507	-3.67
1044.93	-7.87
1045.352	-1.17
1045.775	-0.87
1046.198	-6.07
1046.621	-5.87
1047.043	-2.77
1047.466	4.33
1047.889	-1.27
1048.311	-5.77
1048.734	-7.57
1049.156	-0.07
1049.579	0.23
1050.001	-5.27
1050.424	0.93
1050.846	-3.87
1051.269	-6.97
1051.691	-7.77
1052.113	-2.47
1052.536	0.93
1052.958	-0.77
1053.38	-4.17
1053.802	-9.17
1054.225	0.73
1054.647	-7.07
1055.069	-3.67
1055.491	-0.67
1055.913	-2.97
1056.335	-8.07
1056.757	-0.47
1057.179	-3.37
1057.601	-5.37
1058.023	-0.87
1058.445	-4.17
1058.867	-9.67
1059.289	-6.37
1059.711	-5.97
1060.133	-5.97
1060.555	-3.87
1060.976	-5.47
1061.398	-5.27
1061.82	-9.27
1062.241	-4.47
1062.663	-1.47
1063.085	-1.27
1063.506	-1.07
1063.928	-3.47
1064.35	0.13
1064.771	-12.77
1065.193	-0.07
1065.614	-8.77
1066.035	7.13
1066.457	-2.77
1066.878	1.73
1067.3	-3.37
1067.721	-3.47
1068.142	-5.27
1068.564	-5.27
1068.985	-3.87
1069.406	-4.77
1069.827	0.83
1070.248	0.73
1070.67	-3.47
1071.091	-9.47
1071.512	0.13
1071.933	-7.57
1072.354	-6.87
1072.775	-0.37
1073.196	-4.27
1073.617	-0.77
1074.038	-8.97
1074.459	-3.17
1074.88	-11.07
1075.3	-1.47
1075.721	-4.17
1076.142	4.13
1076.563	3.03
1076.983	-9.27
1077.404	-7.37
1077.825	-11.17
1078.246	-3.67
1078.666	-12.57
1079.087	-3.07
1079.507	-2.07
1079.928	-0.07
1080.348	-2.87
1080.769	-3.97
1081.189	0.13
1081.61	-6.17
1082.03	-7.27
1082.451	-8.37
1082.871	0.93
1083.291	-8.07
1083.711	-12.67
1084.132	-6.67
1084.552	-0.67
1084.972	-2.97
1085.392	-6.57
1085.813	-8.87
1086.233	-2.47
1086.653	-6.47
1087.073	2.73
1087.493	-4.57
1087.913	-3.57
1088.333	-3.57
1088.753	-6.67
1089.173	0.53
1089.593	0.83
1090.013	0.93
1090.433	8.33
1090.852	-2.87
1091.272	-1.87
1091.692	2.53
1092.112	-2.87
1092.531	-7.87
1092.951	-19.17
1093.371	-0.47
1093.79	5.63
1094.21	-5.87
1094.63	-9.17
1095.049	-2.37
1095.469	2.03
1095.888	-2.97
1096.308	5.73
1096.727	4.13
1097.146	-5.97
1097.566	-7.47
1097.985	-7.37
1098.405	-5.97
1098.824	-3.67
1099.243	-9.17
1099.662	-3.77
1100.082	-3.77
1100.501	-2.07
1100.92	-5.97
1101.339	-7.87
1101.758	-1.87
