Data from 20171114-ORNL-Ar_H_NY_Subt18_08-03-47-049.txt Node
Date: Tue Nov 14 08:03:47 EST 2017
User: Ender
Spectrometer: HR+D1039
Trigger mode: 0
Integration Time (sec): 2.730000E-2
Scans to average: 10
Electric dark correction enabled: true
Nonlinearity correction enabled: false
Boxcar width: 0
XAxis mode: Wavelengths
Number of Pixels in Spectrum: 2048
>>>>>Begin Spectral Data<<<<<
187.836	-7.07
188.309	-7.07
188.782	-7.07
189.255	1.63
189.728	-3.27
190.201	-2.17
190.674	0.03
191.147	-1.47
191.619	-4.47
192.092	-1.07
192.565	2.83
193.038	6.33
193.511	2.03
193.984	5.23
194.456	2.03
194.929	-0.57
195.402	0.73
195.874	-0.77
196.347	0.43
196.82	-5.07
197.292	4.53
197.765	-4.97
198.237	-2.27
198.71	3.63
199.182	2.43
199.655	0.63
200.127	-1.47
200.6	-7.97
201.072	-2.87
201.544	-3.77
202.017	-8.67
202.489	0.93
202.961	-1.17
203.433	0.63
203.906	-7.77
204.378	-2.87
204.85	0.83
205.322	-12.77
205.794	-3.97
206.266	-11.77
206.739	-12.47
207.211	-1.87
207.683	-7.57
208.155	-7.67
208.627	-3.87
209.099	-7.87
209.57	-11.77
210.042	-3.17
210.514	-4.57
210.986	-3.37
211.458	-7.27
211.93	-0.67
212.402	2.13
212.873	-3.67
213.345	-5.87
213.817	-9.37
214.288	-4.07
214.76	-9.57
215.232	0.23
215.703	-0.27
216.175	-2.07
216.646	-4.57
217.118	-9.47
217.589	-7.37
218.061	0.53
218.532	-7.57
219.004	1.23
219.475	-0.37
219.946	-5.47
220.418	-4.27
220.889	5.83
221.36	1.43
221.832	-7.27
222.303	-11.57
222.774	0.13
223.245	-13.97
223.717	-7.67
224.188	-6.07
224.659	-4.17
225.13	-2.87
225.601	-0.17
226.072	-0.57
226.543	-5.47
227.014	-0.97
227.485	-4.97
227.956	-1.47
228.427	-5.77
228.898	1.73
229.369	4.73
229.839	-5.97
230.31	-9.57
230.781	3.53
231.252	-3.77
231.722	-14.27
232.193	-5.17
232.664	-1.97
233.135	-3.17
233.605	-8.57
234.076	-11.77
234.546	3.43
235.017	2.53
235.487	0.33
235.958	0.53
236.428	-7.67
236.899	-4.97
237.369	0.63
237.84	-6.87
238.31	-0.37
238.78	-2.37
239.251	-0.37
239.721	-1.87
240.191	-0.97
240.662	-1.17
241.132	-4.17
241.602	-2.57
242.072	-4.87
242.542	-2.97
243.013	-8.57
243.483	1.83
243.953	1.73
244.423	-5.47
244.893	-4.77
245.363	-0.37
245.833	0.53
246.303	-0.97
246.773	6.73
247.243	0.03
247.712	-0.17
248.182	-2.27
248.652	-1.07
249.122	-5.67
249.592	-5.57
250.061	2.03
250.531	9.73
251.001	-4.07
251.471	5.63
251.94	11.63
252.41	-2.07
252.879	-5.77
253.349	10.43
253.818	2.03
254.288	1.83
254.757	-3.57
255.227	-6.17
255.696	1.33
256.166	0.53
256.635	3.73
257.105	6.93
257.574	5.03
258.043	0.43
258.513	-4.17
258.982	-0.17
259.451	0.43
259.92	2.43
260.389	0.53
260.859	11.53
261.328	-2.37
261.797	4.13
262.266	-0.57
262.735	9.33
263.204	2.23
263.673	-5.47
264.142	3.33
264.611	-5.37
265.08	-5.07
265.549	-2.87
266.018	2.73
266.487	-9.57
266.955	-2.27
267.424	-2.67
267.893	4.03
268.362	-5.67
268.83	3.53
269.299	2.33
269.768	4.13
270.236	-1.17
270.705	-0.87
271.174	-1.17
271.642	-3.97
272.111	4.93
272.579	2.43
273.048	0.53
273.516	-0.87
273.985	0.43
274.453	5.63
274.922	7.63
275.39	3.03
275.858	-5.57
276.327	1.63
276.795	7.13
277.263	-1.37
277.731	6.83
278.2	6.33
278.668	2.83
279.136	8.53
279.604	-3.57
280.072	11.03
280.54	4.43
281.008	1.23
281.477	4.93
281.945	8.73
282.413	10.13
282.881	5.43
283.348	3.43
283.816	7.43
284.284	6.83
284.752	12.33
285.22	6.83
285.688	5.73
286.156	5.23
286.623	15.13
287.091	3.23
287.559	11.13
288.026	6.63
288.494	6.03
288.962	4.93
289.429	-2.37
289.897	10.53
290.364	11.53
290.832	15.03
291.3	6.13
291.767	13.03
292.234	9.13
292.702	6.13
293.169	7.93
293.637	10.03
294.104	15.73
294.571	0.13
295.039	8.23
295.506	4.53
295.973	14.23
296.44	10.43
296.908	9.93
297.375	9.03
297.842	8.63
298.309	6.73
298.776	10.83
299.243	10.03
299.71	5.03
300.177	11.43
300.644	17.63
301.111	13.13
301.578	13.03
302.045	11.83
302.512	15.03
302.979	21.63
303.446	15.33
303.913	11.03
304.379	8.53
304.846	20.83
305.313	15.63
305.78	14.33
306.246	17.13
306.713	18.93
307.18	17.53
307.646	20.83
308.113	15.43
308.579	17.13
309.046	16.53
309.512	18.13
309.979	11.83
310.445	19.03
310.912	17.83
311.378	20.43
311.845	24.63
312.311	22.93
312.777	31.53
313.244	21.33
313.71	34.33
314.176	18.93
314.642	14.63
315.109	15.83
315.575	26.73
316.041	26.83
316.507	21.33
316.973	23.03
317.439	26.43
317.905	27.83
318.371	22.63
318.837	28.43
319.303	18.83
319.769	24.73
320.235	24.83
320.701	23.93
321.167	23.83
321.633	24.83
322.099	31.03
322.564	33.43
323.03	30.53
323.496	29.83
323.962	27.93
324.427	28.43
324.893	32.83
325.359	32.93
325.824	32.53
326.29	30.33
326.755	31.33
327.221	32.23
327.686	33.23
328.152	36.43
328.617	27.43
329.083	40.73
329.548	45.93
330.014	37.53
330.479	29.93
330.944	25.13
331.41	34.73
331.875	39.23
332.34	40.23
332.805	34.73
333.271	36.63
333.736	30.63
334.201	44.73
334.666	40.13
335.131	48.33
335.596	44.13
336.061	42.43
336.526	31.03
336.991	38.63
337.456	44.93
337.921	42.83
338.386	38.13
338.851	40.73
339.316	39.33
339.781	41.13
340.246	47.43
340.711	40.53
341.175	43.73
341.64	41.63
342.105	46.33
342.569	52.03
343.034	56.53
343.499	50.13
343.963	49.03
344.428	53.53
344.893	57.63
345.357	53.93
345.822	58.83
346.286	66.73
346.751	56.83
347.215	60.53
347.679	57.43
348.144	79.93
348.608	73.73
349.073	64.43
349.537	69.53
350.001	69.03
350.465	75.13
350.93	69.53
351.394	76.43
351.858	58.73
352.322	73.73
352.786	72.23
353.25	86.43
353.715	90.83
354.179	89.03
354.643	94.13
355.107	104.23
355.571	94.63
356.035	90.13
356.498	98.83
356.962	93.23
357.426	108.93
357.89	96.53
358.354	77.53
358.818	84.53
359.281	77.83
359.745	77.13
360.209	76.03
360.673	68.13
361.136	79.03
361.6	76.93
362.064	81.13
362.527	81.13
362.991	90.53
363.454	83.13
363.918	72.83
364.381	75.53
364.845	83.23
365.308	82.53
365.772	88.23
366.235	88.03
366.698	81.63
367.162	84.73
367.625	83.03
368.088	90.63
368.552	90.13
369.015	82.93
369.478	89.73
369.941	103.53
370.404	88.93
370.867	99.53
371.331	103.33
371.794	106.83
372.257	97.23
372.72	102.63
373.183	104.33
373.646	91.23
374.109	100.23
374.572	96.23
375.035	104.83
375.497	109.73
375.96	108.73
376.423	106.73
376.886	105.93
377.349	108.63
377.811	103.63
378.274	101.43
378.737	108.03
379.199	112.13
379.662	104.33
380.125	111.03
380.587	108.53
381.05	112.03
381.512	114.53
381.975	122.63
382.437	121.83
382.9	118.13
383.362	123.33
383.825	136.53
384.287	132.43
384.75	126.23
385.212	130.53
385.674	138.83
386.136	130.83
386.599	127.33
387.061	128.23
387.523	128.53
387.985	124.63
388.447	138.63
388.91	127.63
389.372	132.33
389.834	125.73
390.296	129.63
390.758	135.43
391.22	138.43
391.682	144.63
392.144	149.83
392.606	144.33
393.068	144.73
393.529	156.53
393.991	146.43
394.453	145.53
394.915	138.33
395.377	137.43
395.838	144.13
396.3	139.13
396.762	149.83
397.224	139.03
397.685	140.43
398.147	144.13
398.608	141.23
399.07	141.43
399.531	143.53
399.993	155.73
400.454	163.83
400.916	155.83
401.377	150.33
401.839	159.83
402.3	156.33
402.762	176.43
403.223	189.13
403.684	186.73
404.145	179.63
404.607	172.03
405.068	171.63
405.529	180.13
405.99	188.73
406.451	185.13
406.913	184.03
407.374	176.73
407.835	172.53
408.296	177.53
408.757	183.03
409.218	190.93
409.679	183.93
410.14	182.53
410.601	185.03
411.062	193.53
411.522	187.73
411.983	185.73
412.444	188.03
412.905	198.53
413.366	195.13
413.826	206.53
414.287	239.33
414.748	286.33
415.208	275.73
415.669	228.93
416.13	221.33
416.59	222.23
417.051	232.63
417.511	241.03
417.972	266.93
418.432	272.53
418.893	313.93
419.353	276.13
419.814	214.83
420.274	203.43
420.734	197.93
421.195	210.83
421.655	198.23
422.115	205.33
422.576	213.53
423.036	206.73
423.496	227.83
423.956	231.83
424.416	248.63
424.876	290.23
425.336	267.73
425.797	273.63
426.257	275.03
426.717	254.73
427.177	245.03
427.637	240.53
428.097	248.13
428.556	254.93
429.016	273.03
429.476	265.23
429.936	287.03
430.396	273.73
430.856	292.13
431.315	320.53
431.775	359.33
432.235	385.43
432.694	361.33
433.154	362.33
433.614	374.13
434.073	337.93
434.533	285.23
434.993	274.43
435.452	282.43
435.912	291.23
436.371	282.03
436.83	277.13
437.29	261.23
437.749	261.23
438.209	255.83
438.668	273.33
439.127	286.13
439.587	264.13
440.046	243.13
440.505	259.03
440.964	270.83
441.424	310.83
441.883	301.43
442.342	257.63
442.801	232.03
443.26	232.33
443.719	239.23
444.178	236.13
444.637	224.73
445.096	234.23
445.555	236.23
446.014	239.83
446.473	241.73
446.932	241.33
447.391	245.73
447.849	241.13
448.308	231.43
448.767	237.13
449.226	252.83
449.685	256.83
450.143	266.13
450.602	254.33
451.061	239.73
451.519	249.83
451.978	246.03
452.436	236.33
452.895	248.43
453.353	258.13
453.812	256.23
454.27	245.03
454.729	247.83
455.187	248.93
455.646	252.43
456.104	251.43
456.562	270.13
457.021	269.03
457.479	259.13
457.937	267.83
458.395	268.63
458.854	262.73
459.312	258.23
459.77	273.23
460.228	260.33
460.686	265.43
461.144	262.23
461.602	260.03
462.06	257.63
462.518	263.63
462.976	268.73
463.434	267.93
463.892	273.63
464.35	279.63
464.808	284.73
465.266	276.23
465.724	280.53
466.181	284.33
466.639	280.73
467.097	294.33
467.555	310.73
468.012	306.33
468.47	310.03
468.928	330.63
469.385	343.33
469.843	346.73
470.3	348.73
470.758	353.43
471.215	375.43
471.673	395.63
472.13	389.43
472.588	402.33
473.045	369.73
473.503	382.63
473.96	399.83
474.417	399.23
474.875	431.23
475.332	460.03
475.789	460.03
476.246	462.83
476.704	470.53
477.161	497.83
477.618	507.93
478.075	538.13
478.532	584.33
478.989	642.73
479.446	722.13
479.903	716.73
480.36	755.63
480.817	789.33
481.274	879.73
481.731	963.63
482.188	1046.23
482.645	1158.23
483.102	1254.93
483.558	1354.13
484.015	1414.43
484.472	1389.73
484.929	1359.33
485.385	1308.63
485.842	1290.33
486.299	1247.03
486.755	1176.63
487.212	1018.13
487.668	884.03
488.125	827.23
488.582	752.43
489.038	724.83
489.494	682.13
489.951	669.03
490.407	648.33
490.864	620.93
491.32	616.63
491.776	612.53
492.233	623.73
492.689	587.53
493.145	599.03
493.602	586.63
494.058	591.93
494.514	587.43
494.97	600.03
495.426	610.83
495.882	590.73
496.338	583.03
496.794	595.03
497.251	571.83
497.707	595.43
498.163	600.73
498.618	591.93
499.074	600.73
499.53	625.13
499.986	624.53
500.442	608.73
500.898	594.13
501.354	586.23
501.809	597.03
502.265	593.73
502.721	607.33
503.177	599.23
503.632	612.93
504.088	608.33
504.543	619.63
504.999	632.63
505.455	619.63
505.91	606.73
506.366	608.23
506.821	602.63
507.277	593.53
507.732	605.53
508.187	601.13
508.643	606.33
509.098	610.53
509.553	627.13
510.009	631.73
510.464	625.63
510.919	655.73
511.375	641.53
511.83	667.53
512.285	671.73
512.74	694.43
513.195	699.83
513.65	697.13
514.105	710.03
514.56	712.93
515.015	726.83
515.47	741.03
515.925	722.33
516.38	731.83
516.835	731.43
517.29	726.93
517.745	717.03
518.2	711.43
518.655	687.53
519.109	689.43
519.564	680.93
520.019	659.63
520.474	665.03
520.928	678.83
521.383	664.23
521.838	646.93
522.292	660.13
522.747	657.23
523.201	648.23
523.656	642.33
524.11	651.63
524.565	643.93
525.019	639.73
525.474	638.73
525.928	639.23
526.382	632.63
526.837	634.53
527.291	637.53
527.745	641.43
528.2	638.13
528.654	631.33
529.108	632.73
529.562	624.83
530.016	629.93
530.47	621.53
530.925	631.53
531.379	621.73
531.833	630.63
532.287	626.23
532.741	628.23
533.195	626.03
533.649	627.83
534.103	637.03
534.556	623.73
535.01	620.63
535.464	620.83
535.918	630.33
536.372	628.63
536.826	630.13
537.279	622.83
537.733	627.43
538.187	624.23
538.64	626.53
539.094	634.03
539.548	646.73
540.001	638.23
540.455	637.93
540.908	647.63
541.362	645.93
541.815	657.23
542.269	674.73
542.722	654.33
543.175	671.03
543.629	676.03
544.082	674.83
544.536	686.63
544.989	691.43
545.442	697.43
545.895	704.83
546.349	696.23
546.802	695.43
547.255	691.53
547.708	697.13
548.161	711.43
548.614	722.73
549.067	713.23
549.52	712.53
549.973	704.33
550.426	692.13
550.879	683.33
551.332	691.63
551.785	701.83
552.238	693.03
552.691	710.33
553.144	715.83
553.596	723.93
554.049	734.93
554.502	761.73
554.955	770.73
555.407	769.33
555.86	761.53
556.313	749.53
556.765	734.23
557.218	747.43
557.67	749.13
558.123	736.13
558.576	747.23
559.028	752.63
559.48	754.83
559.933	752.53
560.385	717.93
560.838	687.03
561.29	671.13
561.742	669.53
562.195	652.33
562.647	650.03
563.099	654.83
563.551	650.33
564.004	661.43
564.456	653.53
564.908	638.83
565.36	629.23
565.812	613.93
566.264	596.13
566.716	597.13
567.168	590.13
567.62	587.23
568.072	582.93
568.524	581.13
568.976	575.33
569.428	564.63
569.88	567.33
570.332	571.33
570.784	567.93
571.235	562.93
571.687	577.13
572.139	580.63
572.59	593.13
573.042	582.53
573.494	583.13
573.945	571.43
574.397	563.73
574.849	564.23
575.3	567.53
575.752	565.03
576.203	552.43
576.655	565.53
577.106	547.53
577.557	540.33
578.009	549.53
578.46	546.53
578.912	537.03
579.363	541.93
579.814	539.23
580.265	536.43
580.717	542.13
581.168	530.73
581.619	542.03
582.07	550.33
582.521	542.83
582.972	538.53
583.423	542.53
583.875	535.93
584.326	544.73
584.777	565.93
585.227	586.93
585.678	593.53
586.129	613.23
586.58	635.03
587.031	668.03
587.482	694.33
587.933	744.23
588.384	710.83
588.834	652.13
589.285	629.13
589.736	626.83
590.186	612.43
590.637	615.13
591.088	590.43
591.538	591.03
591.989	583.03
592.439	574.73
592.89	569.93
593.34	553.03
593.791	550.93
594.241	546.03
594.692	546.83
595.142	544.93
595.593	549.03
596.043	562.93
596.493	555.03
596.943	557.13
597.394	573.63
597.844	556.93
598.294	567.23
598.744	596.43
599.195	604.23
599.645	639.33
600.095	674.43
600.545	703.93
600.995	742.23
601.445	787.63
601.895	827.63
602.345	876.43
602.795	876.43
603.245	828.23
603.695	794.43
604.145	747.53
604.594	719.53
605.044	673.53
605.494	628.33
605.944	580.73
606.393	565.13
606.843	559.33
607.293	560.03
607.743	550.33
608.192	561.23
608.642	582.43
609.091	570.73
609.541	569.73
609.99	582.63
610.44	569.43
610.889	546.03
611.339	522.83
611.788	523.33
612.238	526.63
612.687	543.43
613.136	537.23
613.586	547.33
614.035	535.23
614.484	547.23
614.933	542.53
615.383	539.13
615.832	538.83
616.281	527.13
616.73	513.13
617.179	504.63
617.628	488.03
618.077	483.33
618.526	466.83
618.975	466.13
619.424	463.93
619.873	470.93
620.322	471.73
620.771	445.13
621.22	452.63
621.669	455.33
622.118	443.53
622.567	427.43
623.015	425.53
623.464	425.93
623.913	415.03
624.361	416.83
624.81	407.03
625.259	414.13
625.707	421.93
626.156	421.53
626.604	433.53
627.053	424.53
627.501	426.73
627.95	427.73
628.398	437.23
628.847	422.43
629.295	421.03
629.744	423.13
630.192	432.53
630.64	423.93
631.089	403.03
631.537	394.23
631.985	395.53
632.433	392.03
632.881	386.43
633.33	387.43
633.778	385.83
634.226	389.63
634.674	388.43
635.122	403.93
635.57	409.03
636.018	408.63
636.466	414.33
636.914	409.23
637.362	420.53
637.81	431.33
638.258	434.23
638.705	433.43
639.153	450.23
639.601	454.33
640.049	479.13
640.497	493.93
640.944	520.03
641.392	481.33
641.84	466.43
642.287	433.63
642.735	409.53
643.182	408.43
643.63	418.63
644.078	412.53
644.525	421.53
644.973	422.03
645.42	426.33
645.867	440.33
646.315	460.23
646.762	475.33
647.21	499.43
647.657	491.53
648.104	540.83
648.551	541.13
648.999	589.43
649.446	624.33
649.893	689.23
650.34	789.63
650.787	927.63
651.234	1127.73
651.682	1436.23
652.129	1946.13
652.576	2729.33
653.023	4002.63
653.47	5512.33
653.917	6998.33
654.363	8168.13
654.81	9271.43
655.257	8821.03
655.704	5837.13
656.151	3460.13
656.598	2270.13
657.044	1610.63
657.491	1248.83
657.938	1007.73
658.385	849.03
658.831	744.93
659.278	675.23
659.724	588.33
660.171	548.73
660.618	491.53
661.064	471.73
661.511	461.73
661.957	446.53
662.404	434.23
662.85	449.03
663.296	422.63
663.743	392.73
664.189	386.73
664.635	379.93
665.082	376.33
665.528	373.23
665.974	369.33
666.42	355.93
666.867	363.53
667.313	341.53
667.759	331.53
668.205	325.63
668.651	317.43
669.097	318.13
669.543	325.93
669.989	322.53
670.435	320.03
670.881	315.33
671.327	318.63
671.773	335.23
672.219	352.63
672.665	393.33
673.11	418.83
673.556	447.33
674.002	490.33
674.448	475.93
674.893	400.93
675.339	345.53
675.785	319.53
676.23	305.03
676.676	283.83
677.122	272.23
677.567	269.53
678.013	267.93
678.458	260.93
678.904	261.13
679.349	244.43
679.794	250.13
680.24	248.93
680.685	248.93
681.131	242.63
681.576	245.93
682.021	249.03
682.466	245.73
682.912	249.33
683.357	248.73
683.802	269.73
684.247	291.43
684.692	322.63
685.137	354.73
685.583	382.03
686.028	405.43
686.473	376.03
686.918	322.23
687.363	296.53
687.807	286.13
688.252	259.73
688.697	254.93
689.142	241.33
689.587	231.53
690.032	226.43
690.477	241.83
690.921	240.33
691.366	267.63
691.811	274.33
692.255	301.63
692.7	327.13
693.145	353.53
693.589	472.83
694.034	778.03
694.478	1075.23
694.923	1261.43
695.367	1700.53
695.812	876.13
696.256	356.93
696.701	270.83
697.145	247.53
697.59	229.43
698.034	230.03
698.478	234.83
698.922	227.93
699.367	224.43
699.811	239.03
700.255	245.43
700.699	272.43
701.143	290.23
701.588	330.83
702.032	371.23
702.476	366.43
702.92	347.63
703.364	349.53
703.808	437.63
704.252	712.73
704.696	1017.53
705.14	1222.73
705.584	1591.53
706.027	774.43
706.471	377.43
706.915	282.63
707.359	255.33
707.803	222.53
708.246	221.03
708.69	218.93
709.134	224.03
709.577	219.63
710.021	232.63
710.465	215.83
710.908	208.93
711.352	202.03
711.795	219.83
712.239	240.03
712.682	260.33
713.126	291.13
713.569	328.63
714.012	259.13
714.456	217.73
714.899	204.43
715.342	188.03
715.786	179.63
716.229	189.73
716.672	178.23
717.115	175.73
717.558	175.53
718.002	174.53
718.445	183.03
718.888	206.73
719.331	196.03
719.774	214.03
720.217	213.63
720.66	199.33
721.103	188.03
721.546	178.73
721.989	181.53
722.432	162.23
722.874	165.53
723.317	159.83
723.76	163.93
724.203	175.63
724.645	217.23
725.088	305.13
725.531	400.03
725.974	465.83
726.416	397.03
726.859	216.83
727.301	170.03
727.744	165.63
728.187	162.33
728.629	173.63
729.071	164.33
729.514	182.33
729.956	187.63
730.399	197.83
730.841	205.73
731.283	195.43
731.726	189.63
732.168	180.53
732.61	190.33
733.053	195.03
733.495	221.13
733.937	238.33
734.379	271.33
734.821	302.93
735.263	377.63
735.705	559.53
736.148	1080.03
736.59	1807.43
737.032	2274.23
737.474	1871.63
737.916	588.63
738.357	305.43
738.799	230.03
739.241	209.23
739.683	203.63
740.125	207.93
740.567	216.93
741.008	232.23
741.45	229.13
741.892	231.93
742.334	251.23
742.775	270.23
743.217	253.33
743.658	194.33
744.1	180.93
744.542	182.93
744.983	230.93
745.425	274.23
745.866	257.83
746.307	202.23
746.749	190.13
747.19	218.33
747.632	306.43
748.073	586.03
748.514	1258.43
748.956	2031.83
749.397	2559.83
749.838	2130.13
750.279	2230.03
750.72	1111.73
751.162	402.43
751.603	237.63
752.044	181.43
752.485	151.03
752.926	147.63
753.367	145.63
753.808	134.33
754.249	129.73
754.69	126.53
755.131	123.13
755.572	129.23
756.013	130.13
756.453	132.43
756.894	132.03
757.335	126.13
757.776	135.23
758.216	138.63
758.657	139.73
759.098	140.93
759.538	161.23
759.979	186.53
760.42	258.23
760.86	473.73
761.301	1241.83
761.741	3135.93
762.182	4927.23
762.622	3516.73
763.063	976.73
763.503	394.43
763.943	235.83
764.384	207.63
764.824	192.93
765.264	187.83
765.705	161.23
766.145	133.53
766.585	118.03
767.025	119.63
767.465	112.93
767.906	123.53
768.346	157.13
768.786	161.73
769.226	149.93
769.666	203.73
770.106	399.23
770.546	1034.63
770.986	1937.13
771.426	1807.53
771.866	579.83
772.306	228.93
772.745	143.53
773.185	118.43
773.625	111.23
774.065	103.73
774.505	119.03
774.944	149.33
775.384	262.53
775.824	477.93
776.263	478.43
776.703	220.43
777.142	113.33
777.582	96.03
778.021	84.13
778.461	88.63
778.9	90.53
779.34	86.13
779.779	76.63
780.219	74.53
780.658	74.23
781.097	80.33
781.537	79.43
781.976	79.43
782.415	74.83
782.855	73.33
783.294	69.53
783.733	68.93
784.172	78.13
784.611	71.13
785.05	72.93
785.489	79.23
785.928	82.93
786.367	92.43
786.806	79.63
787.245	88.43
787.684	90.83
788.123	102.63
788.562	91.93
789.001	90.23
789.44	88.53
789.879	77.63
790.317	82.63
790.756	88.93
791.195	88.43
791.634	98.53
792.072	136.83
792.511	239.93
792.95	666.43
793.388	1534.33
793.827	1465.83
794.265	486.43
794.704	201.83
795.142	126.43
795.581	107.83
796.019	103.03
796.458	94.43
796.896	85.03
797.334	87.63
797.773	107.13
798.211	149.03
798.649	289.73
799.087	709.63
799.526	1141.13
799.964	1445.03
800.402	1535.33
800.84	569.03
801.278	205.83
801.716	127.73
802.154	103.63
802.592	105.83
803.03	98.33
803.468	93.93
803.906	101.93
804.344	106.13
804.782	96.83
805.22	92.33
805.658	96.53
806.096	106.13
806.533	108.13
806.971	120.33
807.409	157.03
807.847	215.03
808.284	457.53
808.722	1301.63
809.16	2464.33
809.597	2256.33
810.035	4022.43
810.472	4596.03
810.91	1628.73
811.347	597.03
811.785	291.83
812.222	187.33
812.66	142.23
813.097	113.23
813.535	103.83
813.972	95.33
814.409	86.43
814.846	74.93
815.284	76.43
815.721	74.53
816.158	78.93
816.595	76.23
817.032	118.13
817.47	148.03
817.907	111.73
818.344	75.83
818.781	68.63
819.218	69.03
819.655	87.13
820.092	152.33
820.529	180.93
820.966	137.03
821.403	99.83
821.839	68.63
822.276	71.33
822.713	88.73
823.15	108.63
823.587	84.63
824.023	101.13
824.46	198.93
824.897	616.83
825.333	1021.03
825.77	434.93
826.206	166.63
826.643	99.23
827.08	75.63
827.516	58.13
827.953	56.43
828.389	59.43
828.825	50.33
829.262	49.43
829.698	42.83
830.135	46.43
830.571	44.83
831.007	45.33
831.443	40.73
831.88	45.93
832.316	43.03
832.752	47.03
833.188	40.03
833.624	38.73
834.06	47.73
834.497	43.63
834.933	48.33
835.369	51.13
835.805	45.03
836.241	51.53
836.677	48.23
837.112	63.23
837.548	68.13
837.984	93.33
838.42	138.53
838.856	336.63
839.292	1083.73
839.727	1767.83
840.163	797.43
840.599	652.53
841.034	1478.93
841.47	1663.13
841.906	595.33
842.341	244.13
842.777	143.13
843.212	150.23
843.648	149.33
844.083	86.53
844.519	54.53
844.954	49.93
845.39	34.63
845.825	38.43
846.261	37.63
846.696	35.73
847.131	43.43
847.566	42.63
848.002	32.63
848.437	40.33
848.872	34.23
849.307	40.03
849.742	51.33
850.177	115.03
850.613	387.13
851.048	649.03
851.483	284.03
851.918	105.53
852.353	64.03
852.788	30.23
853.223	39.73
853.657	37.23
854.092	34.43
854.527	26.13
854.962	24.13
855.397	30.23
855.832	38.63
856.266	30.03
856.701	28.33
857.136	32.33
857.57	26.83
858.005	27.13
858.44	42.23
858.874	23.13
859.309	39.23
859.743	22.63
860.178	29.73
860.612	25.03
861.047	36.23
861.481	49.53
861.915	57.03
862.35	32.43
862.784	23.23
863.218	29.83
863.653	23.93
864.087	28.73
864.521	39.93
864.955	45.83
865.39	111.03
865.824	129.63
866.258	89.43
866.692	134.23
867.126	152.93
867.56	88.33
867.994	44.03
868.428	27.03
868.862	36.43
869.296	43.13
869.73	46.33
870.164	40.93
870.598	41.33
871.031	29.53
871.465	20.13
871.899	19.73
872.333	20.83
872.766	18.03
873.2	10.23
873.634	25.13
874.067	17.03
874.501	13.03
874.935	30.83
875.368	21.63
875.802	17.43
876.235	12.63
876.669	19.93
877.102	13.63
877.535	21.73
877.969	19.43
878.402	19.83
878.836	9.33
879.269	15.23
879.702	16.73
880.135	14.93
880.569	13.33
881.002	12.03
881.435	14.53
881.868	7.73
882.301	12.03
882.734	8.73
883.167	12.83
883.601	13.83
884.034	15.33
884.467	10.63
884.899	19.63
885.332	17.43
885.765	6.63
886.198	8.43
886.631	13.53
887.064	18.03
887.497	16.93
887.929	19.13
888.362	8.53
888.795	3.03
889.228	15.63
889.66	19.63
890.093	10.53
890.526	2.53
890.958	11.13
891.391	14.33
891.823	20.33
892.256	12.53
892.688	4.93
893.121	11.93
893.553	7.33
893.985	19.73
894.418	17.63
894.85	10.33
895.282	17.53
895.715	13.33
896.147	16.43
896.579	8.13
897.011	7.33
897.444	12.33
897.876	8.73
898.308	7.73
898.74	9.03
899.172	4.93
899.604	14.33
900.036	16.13
900.468	8.63
900.9	14.13
901.332	12.03
901.764	12.13
902.196	10.23
902.628	15.33
903.06	12.43
903.491	24.83
903.923	21.13
904.355	13.03
904.787	24.13
905.218	17.53
905.65	15.23
906.082	-0.27
906.513	2.23
906.945	12.93
907.376	10.03
907.808	11.33
908.239	13.43
908.671	12.83
909.102	10.43
909.534	15.13
909.965	29.93
910.397	74.73
910.828	227.03
911.259	368.53
911.691	168.73
912.122	77.43
912.553	41.23
912.984	26.13
913.415	18.73
913.847	17.73
914.278	11.43
914.709	12.43
915.14	11.03
915.571	10.23
916.002	7.63
916.433	12.73
916.864	13.83
917.295	10.13
917.726	19.53
918.157	9.23
918.587	20.13
919.018	11.43
919.449	15.83
919.88	15.73
920.311	25.83
920.741	25.33
921.172	119.83
921.603	106.33
922.033	47.13
922.464	32.73
922.895	7.73
923.325	10.53
923.756	8.23
924.186	9.73
924.617	19.23
925.047	18.93
925.478	14.93
925.908	17.23
926.338	10.83
926.769	11.03
927.199	16.23
927.629	4.23
928.06	7.93
928.49	7.73
928.92	8.33
929.35	9.73
929.78	7.93
930.21	7.23
930.641	7.83
931.071	1.03
931.501	2.83
931.931	8.93
932.361	4.33
932.791	2.83
933.221	4.13
933.651	0.03
934.08	9.03
934.51	26.43
934.94	8.43
935.37	6.13
935.8	12.33
936.229	10.73
936.659	10.83
937.089	1.43
937.519	15.73
937.948	24.13
938.378	14.93
938.807	2.23
939.237	2.43
939.666	4.63
940.096	-9.87
940.525	3.33
940.955	-5.37
941.384	1.53
941.814	-9.07
942.243	2.33
942.672	1.83
943.102	0.43
943.531	-3.37
943.96	3.13
944.39	5.03
944.819	0.33
945.248	-0.77
945.677	0.43
946.106	10.93
946.535	7.43
946.964	-0.57
947.393	9.43
947.822	-1.17
948.251	-6.97
948.68	-0.17
949.109	-0.77
949.538	6.63
949.967	0.13
950.396	1.73
950.825	-0.07
951.254	0.23
951.682	-9.57
952.111	2.03
952.54	1.73
952.969	-6.97
953.397	-5.27
953.826	4.53
954.254	-10.47
954.683	-0.07
955.112	-0.47
955.54	1.93
955.969	-2.77
956.397	3.33
956.826	-1.77
957.254	-5.47
957.682	8.33
958.111	5.53
958.539	3.73
958.967	-0.97
959.396	-4.37
959.824	7.43
960.252	1.03
960.68	-2.67
961.109	-4.87
961.537	-2.87
961.965	-1.27
962.393	1.53
962.821	-7.67
963.249	-2.27
963.677	-0.17
964.105	1.13
964.533	34.73
964.961	26.13
965.389	16.63
965.817	4.93
966.245	2.13
966.672	0.63
967.1	-5.77
967.528	-4.27
967.956	-2.57
968.383	2.43
968.811	-4.97
969.239	-3.37
969.666	-2.07
970.094	1.53
970.522	-0.97
970.949	0.33
971.377	-0.27
971.804	-0.17
972.232	-3.77
972.659	1.03
973.087	0.03
973.514	-7.27
973.941	-6.07
974.369	6.23
974.796	3.43
975.223	2.03
975.651	-1.67
976.078	0.73
976.505	-3.37
976.932	1.23
977.359	9.93
977.786	15.33
978.214	-8.27
978.641	-6.37
979.068	0.93
979.495	-9.07
979.922	-0.67
980.349	-7.67
980.776	2.53
981.202	-0.47
981.629	8.33
982.056	6.03
982.483	5.93
982.91	8.03
983.337	-0.27
983.763	4.63
984.19	-4.17
984.617	-4.57
985.043	-6.77
985.47	-0.47
985.897	6.73
986.323	-6.87
986.75	4.63
987.176	-1.07
987.603	1.93
988.029	0.93
988.456	2.23
988.882	1.53
989.308	0.63
989.735	-11.77
990.161	3.13
990.587	-1.07
991.014	3.43
991.44	6.23
991.866	-5.67
992.292	-9.17
992.719	-7.17
993.145	10.93
993.571	-5.97
993.997	-4.87
994.423	-2.27
994.849	-3.37
995.275	4.43
995.701	-3.87
996.127	0.83
996.553	-2.37
996.979	-9.07
997.405	0.83
997.83	-5.57
998.256	-3.57
998.682	-3.87
999.108	-11.37
999.534	-2.87
999.959	0.33
1000.385	-7.27
1000.811	1.93
1001.236	-5.07
1001.662	-8.47
1002.087	-8.77
1002.513	0.73
1002.938	0.43
1003.364	1.53
1003.789	2.03
1004.215	0.63
1004.64	-2.27
1005.066	3.13
1005.491	1.93
1005.916	1.63
1006.342	-2.77
1006.767	-3.27
1007.192	4.03
1007.617	-3.07
1008.042	-6.17
1008.468	-6.67
1008.893	-4.37
1009.318	0.43
1009.743	-6.77
1010.168	6.03
1010.593	2.13
1011.018	-9.97
1011.443	-1.37
1011.868	-6.07
1012.293	-6.07
1012.718	-5.47
1013.143	3.03
1013.567	-4.87
1013.992	-6.57
1014.417	-16.37
1014.842	2.63
1015.267	-6.17
1015.691	-6.27
1016.116	2.63
1016.541	-2.47
1016.965	2.13
1017.39	-1.47
1017.814	-3.77
1018.239	-4.67
1018.663	-7.07
1019.088	-13.57
1019.512	-2.37
1019.937	3.53
1020.361	-7.47
1020.785	-10.27
1021.21	-3.27
1021.634	-6.67
1022.058	-2.07
1022.483	5.63
1022.907	-2.87
1023.331	-2.97
1023.755	-3.77
1024.179	-1.67
1024.604	-6.47
1025.028	-6.97
1025.452	2.93
1025.876	-2.47
1026.3	-0.07
1026.724	-6.77
1027.148	-1.67
1027.572	-9.27
1027.996	-5.87
1028.42	1.03
1028.843	-7.97
1029.267	-4.17
1029.691	-4.57
1030.115	-6.37
1030.539	-10.37
1030.962	-6.07
1031.386	-10.97
1031.81	7.23
1032.233	5.33
1032.657	0.23
1033.08	0.33
1033.504	-4.97
1033.927	-2.97
1034.351	-3.17
1034.774	-6.47
1035.198	-3.87
1035.621	-4.47
1036.045	-2.17
1036.468	0.33
1036.891	-9.97
1037.315	-11.77
1037.738	-4.57
1038.161	2.13
1038.584	-7.47
1039.008	-4.57
1039.431	0.53
1039.854	1.03
1040.277	-10.17
1040.7	-9.77
1041.123	-0.87
1041.546	-7.77
1041.969	-9.77
1042.392	-3.47
1042.815	1.03
1043.238	3.33
1043.661	2.63
1044.084	-2.57
1044.507	-2.57
1044.93	-4.27
1045.352	-3.07
1045.775	-1.57
1046.198	4.63
1046.621	-1.47
1047.043	2.53
1047.466	6.43
1047.889	-4.17
1048.311	-4.37
1048.734	0.03
1049.156	0.93
1049.579	-6.17
1050.001	-2.27
1050.424	0.13
1050.846	0.13
1051.269	-0.37
1051.691	-11.37
1052.113	-1.47
1052.536	-2.77
1052.958	0.53
1053.38	-5.07
1053.802	-6.47
1054.225	4.53
1054.647	-4.57
1055.069	-5.77
1055.491	5.73
1055.913	-6.37
1056.335	-4.27
1056.757	-0.47
1057.179	-8.87
1057.601	-3.67
1058.023	-7.47
1058.445	-0.57
1058.867	-1.97
1059.289	-5.07
1059.711	-6.97
1060.133	-2.77
1060.555	-2.57
1060.976	-8.17
1061.398	-7.17
1061.82	-10.17
1062.241	-5.67
1062.663	-3.87
1063.085	-2.57
1063.506	3.43
1063.928	-4.77
1064.35	1.83
1064.771	-8.77
1065.193	-0.37
1065.614	-9.17
1066.035	2.83
1066.457	-5.07
1066.878	0.93
1067.3	-2.47
1067.721	-3.97
1068.142	-4.77
1068.564	-5.97
1068.985	-3.37
1069.406	-6.77
1069.827	-1.97
1070.248	0.13
1070.67	0.73
1071.091	-1.97
1071.512	-2.97
1071.933	-8.07
1072.354	-9.77
1072.775	-4.17
1073.196	-2.47
1073.617	0.53
1074.038	-5.47
1074.459	-1.37
1074.88	-8.27
1075.3	2.33
1075.721	-3.27
1076.142	-2.47
1076.563	4.13
1076.983	-15.27
1077.404	-11.47
1077.825	-9.07
1078.246	-3.27
1078.666	-7.17
1079.087	-2.47
1079.507	-1.47
1079.928	1.53
1080.348	0.03
1080.769	-3.47
1081.189	-0.27
1081.61	-3.57
1082.03	-3.37
1082.451	-6.27
1082.871	-2.37
1083.291	-3.77
1083.711	-7.67
1084.132	-4.97
1084.552	-5.07
1084.972	-1.17
1085.392	-5.77
1085.813	-4.87
1086.233	-9.97
1086.653	-3.37
1087.073	0.63
1087.493	-7.37
1087.913	-3.17
1088.333	-2.97
1088.753	1.53
1089.173	5.73
1089.593	0.63
1090.013	10.83
1090.433	-0.17
1090.852	-1.17
1091.272	-2.27
1091.692	-7.37
1092.112	-1.87
1092.531	-10.27
1092.951	-14.57
1093.371	-4.57
1093.79	3.13
1094.21	-6.57
1094.63	-6.67
1095.049	-6.07
1095.469	0.23
1095.888	-2.87
1096.308	4.13
1096.727	1.53
1097.146	-3.87
1097.566	-2.27
1097.985	-2.87
1098.405	-2.67
1098.824	-5.67
1099.243	-0.27
1099.662	-9.37
1100.082	-5.67
1100.501	-4.47
1100.92	-9.37
1101.339	-7.47
1101.758	-5.07
