Data from 20171114-ORNL-Ar_H_NY_Subt18_08-04-17-622.txt Node
Date: Tue Nov 14 08:04:17 EST 2017
User: Ender
Spectrometer: HR+D1039
Trigger mode: 0
Integration Time (sec): 2.730000E-2
Scans to average: 10
Electric dark correction enabled: true
Nonlinearity correction enabled: false
Boxcar width: 0
XAxis mode: Wavelengths
Number of Pixels in Spectrum: 2048
>>>>>Begin Spectral Data<<<<<
187.836	-1.39
188.309	-1.39
188.782	-1.39
189.255	-5.69
189.728	-2.39
190.201	4.31
190.674	5.21
191.147	0.31
191.619	-8.39
192.092	0.01
192.565	3.41
193.038	1.81
193.511	1.11
193.984	0.71
194.456	-0.29
194.929	3.51
195.402	-2.59
195.874	0.31
196.347	0.81
196.82	-5.19
197.292	7.01
197.765	0.11
198.237	-7.59
198.71	-0.69
199.182	-2.49
199.655	-0.69
200.127	0.51
200.6	-4.79
201.072	-3.19
201.544	-2.69
202.017	-2.79
202.489	1.61
202.961	-3.09
203.433	-1.39
203.906	-9.19
204.378	-4.29
204.85	-3.29
205.322	-10.69
205.794	1.91
206.266	2.11
206.739	-9.49
207.211	-0.79
207.683	-5.09
208.155	-0.69
208.627	-2.89
209.099	1.01
209.57	-9.99
210.042	-6.89
210.514	-3.49
210.986	1.51
211.458	-11.19
211.93	-6.59
212.402	-1.09
212.873	-9.19
213.345	-9.79
213.817	-12.69
214.288	-7.49
214.76	-8.39
215.232	0.41
215.703	-5.09
216.175	-2.69
216.646	0.01
217.118	-5.89
217.589	-3.19
218.061	-7.59
218.532	-1.19
219.004	1.21
219.475	-2.09
219.946	-8.99
220.418	-4.79
220.889	2.81
221.36	2.41
221.832	-9.69
222.303	-9.79
222.774	-0.19
223.245	-8.19
223.717	-3.79
224.188	-5.59
224.659	-4.59
225.13	-6.69
225.601	0.31
226.072	-1.29
226.543	-0.09
227.014	-4.19
227.485	3.61
227.956	-5.19
228.427	-1.09
228.898	-3.39
229.369	3.61
229.839	-4.39
230.31	-1.89
230.781	5.41
231.252	0.31
231.722	-1.69
232.193	2.41
232.664	3.01
233.135	1.11
233.605	-0.89
234.076	-3.99
234.546	3.01
235.017	10.91
235.487	0.41
235.958	-0.89
236.428	3.91
236.899	3.51
237.369	8.91
237.84	-0.59
238.31	2.51
238.78	3.11
239.251	-0.59
239.721	6.41
240.191	3.11
240.662	-0.39
241.132	6.41
241.602	-1.29
242.072	0.91
242.542	3.41
243.013	0.61
243.483	6.01
243.953	2.81
244.423	3.01
244.893	-0.69
245.363	1.51
245.833	2.61
246.303	-0.49
246.773	12.31
247.243	1.91
247.712	8.11
248.182	13.21
248.652	9.51
249.122	0.51
249.592	7.71
250.061	22.71
250.531	34.51
251.001	17.01
251.471	23.61
251.94	21.91
252.41	9.21
252.879	-5.29
253.349	12.51
253.818	8.81
254.288	9.31
254.757	3.01
255.227	5.11
255.696	4.31
256.166	3.61
256.635	7.71
257.105	9.41
257.574	11.31
258.043	8.31
258.513	8.91
258.982	19.81
259.451	14.41
259.92	8.41
260.389	7.91
260.859	11.81
261.328	14.91
261.797	22.71
262.266	8.71
262.735	14.51
263.204	7.51
263.673	-0.09
264.142	8.91
264.611	-4.19
265.08	-2.49
265.549	2.51
266.018	4.81
266.487	0.31
266.955	-0.49
267.424	6.71
267.893	8.81
268.362	2.81
268.83	0.61
269.299	10.71
269.768	0.81
270.236	13.71
270.705	6.41
271.174	4.41
271.642	2.01
272.111	10.11
272.579	13.31
273.048	27.61
273.516	23.61
273.985	28.91
274.453	24.01
274.922	18.41
275.39	18.81
275.858	4.11
276.327	21.11
276.795	18.31
277.263	12.71
277.731	30.71
278.2	52.21
278.668	56.31
279.136	43.41
279.604	18.11
280.072	17.71
280.54	14.81
281.008	13.61
281.477	13.41
281.945	12.41
282.413	10.71
282.881	13.41
283.348	14.21
283.816	11.21
284.284	13.81
284.752	22.41
285.22	14.81
285.688	17.21
286.156	20.21
286.623	40.11
287.091	43.91
287.559	30.41
288.026	24.01
288.494	17.11
288.962	6.51
289.429	6.71
289.897	18.51
290.364	14.41
290.832	16.61
291.3	10.61
291.767	20.91
292.234	17.61
292.702	13.21
293.169	19.91
293.637	19.01
294.104	25.01
294.571	10.91
295.039	15.21
295.506	17.31
295.973	13.81
296.44	8.61
296.908	15.21
297.375	16.21
297.842	24.11
298.309	16.71
298.776	8.71
299.243	16.91
299.71	7.41
300.177	21.91
300.644	19.01
301.111	16.81
301.578	20.11
302.045	17.01
302.512	24.81
302.979	20.21
303.446	21.11
303.913	14.41
304.379	21.11
304.846	28.71
305.313	24.11
305.78	19.11
306.246	20.91
306.713	24.81
307.18	26.51
307.646	25.21
308.113	26.01
308.579	21.81
309.046	26.61
309.512	26.91
309.979	15.21
310.445	27.01
310.912	27.31
311.378	29.31
311.845	27.41
312.311	26.71
312.777	29.01
313.244	30.21
313.71	35.51
314.176	29.01
314.642	21.21
315.109	24.21
315.575	28.31
316.041	34.11
316.507	33.01
316.973	38.81
317.439	30.11
317.905	36.21
318.371	33.61
318.837	28.11
319.303	28.11
319.769	27.01
320.235	32.01
320.701	35.71
321.167	32.91
321.633	30.61
322.099	34.31
322.564	44.01
323.03	42.81
323.496	34.81
323.962	38.41
324.427	30.11
324.893	37.41
325.359	38.01
325.824	36.71
326.29	36.01
326.755	33.31
327.221	35.81
327.686	38.41
328.152	37.61
328.617	34.01
329.083	44.71
329.548	47.81
330.014	40.21
330.479	33.61
330.944	42.51
331.41	40.51
331.875	40.11
332.34	37.31
332.805	40.01
333.271	48.91
333.736	41.11
334.201	45.11
334.666	47.71
335.131	50.41
335.596	47.71
336.061	46.21
336.526	39.11
336.991	49.51
337.456	51.11
337.921	50.11
338.386	39.71
338.851	39.51
339.316	43.01
339.781	42.61
340.246	50.01
340.711	42.81
341.175	49.61
341.64	39.01
342.105	49.21
342.569	45.21
343.034	49.21
343.499	46.31
343.963	47.51
344.428	57.41
344.893	54.21
345.357	53.11
345.822	55.11
346.286	62.71
346.751	66.81
347.215	55.21
347.679	63.51
348.144	85.61
348.608	78.51
349.073	63.41
349.537	61.81
350.001	69.31
350.465	75.11
350.93	75.21
351.394	73.11
351.858	62.31
352.322	78.81
352.786	71.91
353.25	86.91
353.715	93.71
354.179	86.01
354.643	109.31
355.107	110.91
355.571	97.51
356.035	86.41
356.498	97.21
356.962	102.31
357.426	114.81
357.89	96.21
358.354	76.91
358.818	74.91
359.281	66.21
359.745	71.61
360.209	69.71
360.673	64.91
361.136	69.31
361.6	78.41
362.064	74.41
362.527	74.11
362.991	80.91
363.454	67.21
363.918	67.71
364.381	76.61
364.845	79.51
365.308	73.61
365.772	80.01
366.235	74.41
366.698	77.21
367.162	77.51
367.625	78.41
368.088	82.61
368.552	81.51
369.015	77.11
369.478	85.81
369.941	92.31
370.404	78.41
370.867	93.91
371.331	95.11
371.794	101.51
372.257	96.81
372.72	103.91
373.183	99.51
373.646	90.91
374.109	92.01
374.572	92.31
375.035	97.21
375.497	96.71
375.96	92.31
376.423	92.11
376.886	105.51
377.349	100.51
377.811	93.71
378.274	95.71
378.737	87.61
379.199	97.81
379.662	96.31
380.125	106.41
380.587	106.61
381.05	107.01
381.512	119.21
381.975	117.91
382.437	114.01
382.9	115.51
383.362	114.71
383.825	119.51
384.287	126.71
384.75	125.71
385.212	123.91
385.674	125.31
386.136	119.91
386.599	109.91
387.061	116.01
387.523	112.21
387.985	117.71
388.447	125.41
388.91	129.51
389.372	141.21
389.834	141.11
390.296	132.51
390.758	137.71
391.22	152.91
391.682	185.21
392.144	255.11
392.606	209.01
393.068	149.71
393.529	153.41
393.991	134.81
394.453	129.21
394.915	137.71
395.377	166.51
395.838	193.01
396.3	143.61
396.762	126.61
397.224	122.81
397.685	113.11
398.147	117.71
398.608	118.71
399.07	114.21
399.531	120.41
399.993	126.51
400.454	132.61
400.916	131.61
401.377	129.21
401.839	138.51
402.3	140.01
402.762	145.91
403.223	160.51
403.684	147.21
404.145	143.61
404.607	148.11
405.068	147.01
405.529	151.61
405.99	169.51
406.451	156.91
406.913	151.31
407.374	147.21
407.835	145.41
408.296	151.31
408.757	147.31
409.218	166.51
409.679	157.41
410.14	159.01
410.601	165.91
411.062	162.01
411.522	169.51
411.983	161.11
412.444	148.21
412.905	156.11
413.366	174.11
413.826	173.61
414.287	195.61
414.748	244.21
415.208	220.61
415.669	192.11
416.13	184.11
416.59	179.01
417.051	185.41
417.511	187.61
417.972	209.81
418.432	214.61
418.893	260.81
419.353	231.41
419.814	180.61
420.274	163.31
420.734	166.41
421.195	173.81
421.655	172.91
422.115	170.21
422.576	173.01
423.036	174.71
423.496	181.71
423.956	198.51
424.416	209.31
424.876	240.41
425.336	232.71
425.797	233.01
426.257	232.21
426.717	210.61
427.177	203.91
427.637	199.21
428.097	213.71
428.556	217.31
429.016	245.31
429.476	233.71
429.936	241.51
430.396	242.81
430.856	252.51
431.315	285.31
431.775	313.21
432.235	332.01
432.694	300.71
433.154	315.21
433.614	336.61
434.073	287.61
434.533	249.51
434.993	239.71
435.452	253.81
435.912	256.21
436.371	251.01
436.83	251.31
437.29	237.61
437.749	222.71
438.209	219.31
438.668	232.91
439.127	240.61
439.587	237.21
440.046	218.11
440.505	228.51
440.964	239.91
441.424	283.51
441.883	261.41
442.342	228.01
442.801	196.71
443.26	198.91
443.719	193.71
444.178	195.81
444.637	190.41
445.096	199.31
445.555	202.61
446.014	205.61
446.473	203.01
446.932	201.61
447.391	201.31
447.849	205.01
448.308	194.81
448.767	197.91
449.226	213.41
449.685	214.21
450.143	226.31
450.602	209.21
451.061	200.11
451.519	206.61
451.978	206.31
452.436	205.81
452.895	212.41
453.353	219.91
453.812	214.11
454.27	215.41
454.729	216.31
455.187	209.91
455.646	219.11
456.104	219.41
456.562	224.81
457.021	232.51
457.479	230.31
457.937	235.61
458.395	229.21
458.854	219.11
459.312	224.71
459.77	232.61
460.228	222.11
460.686	212.81
461.144	217.81
461.602	218.01
462.06	213.81
462.518	231.11
462.976	232.61
463.434	231.71
463.892	236.11
464.35	248.71
464.808	254.01
465.266	240.11
465.724	240.01
466.181	242.51
466.639	247.31
467.097	262.01
467.555	265.21
468.012	269.21
468.47	276.71
468.928	293.51
469.385	309.21
469.843	310.31
470.3	313.21
470.758	315.71
471.215	333.41
471.673	359.01
472.13	359.31
472.588	366.31
473.045	326.41
473.503	334.21
473.96	346.81
474.417	352.81
474.875	382.91
475.332	406.31
475.789	408.61
476.246	409.91
476.704	421.01
477.161	448.81
477.618	459.81
478.075	497.01
478.532	539.61
478.989	605.31
479.446	694.81
479.903	685.61
480.36	718.21
480.817	773.61
481.274	869.91
481.731	961.91
482.188	1028.41
482.645	1162.81
483.102	1259.71
483.558	1373.31
484.015	1422.71
484.472	1413.51
484.929	1372.81
485.385	1329.31
485.842	1279.41
486.299	1225.61
486.755	1156.71
487.212	974.21
487.668	829.51
488.125	768.31
488.582	697.71
489.038	670.41
489.494	638.61
489.951	617.01
490.407	605.71
490.864	577.81
491.32	583.01
491.776	567.11
492.233	576.91
492.689	550.61
493.145	536.41
493.602	536.41
494.058	543.61
494.514	536.01
494.97	558.31
495.426	579.21
495.882	553.91
496.338	543.41
496.794	563.51
497.251	558.91
497.707	572.61
498.163	563.91
498.618	575.61
499.074	569.91
499.53	595.51
499.986	601.31
500.442	575.51
500.898	566.31
501.354	554.71
501.809	562.91
502.265	577.61
502.721	580.41
503.177	602.81
503.632	596.11
504.088	600.41
504.543	631.41
504.999	622.51
505.455	588.51
505.91	571.81
506.366	568.21
506.821	562.61
507.277	553.91
507.732	559.51
508.187	555.91
508.643	567.51
509.098	574.91
509.553	588.01
510.009	587.51
510.464	594.81
510.919	616.81
511.375	612.41
511.83	629.01
512.285	644.71
512.74	683.81
513.195	694.81
513.65	687.91
514.105	684.71
514.56	688.11
515.015	714.51
515.47	726.61
515.925	699.71
516.38	705.81
516.835	721.51
517.29	701.51
517.745	691.71
518.2	678.21
518.655	661.21
519.109	664.61
519.564	661.71
520.019	649.81
520.474	647.71
520.928	647.11
521.383	638.21
521.838	635.41
522.292	637.11
522.747	627.21
523.201	621.41
523.656	617.81
524.11	607.41
524.565	613.71
525.019	610.71
525.474	614.61
525.928	624.81
526.382	615.71
526.837	614.51
527.291	618.01
527.745	614.71
528.2	621.11
528.654	615.11
529.108	614.51
529.562	614.21
530.016	614.31
530.47	613.61
530.925	611.91
531.379	620.31
531.833	639.21
532.287	620.71
532.741	622.41
533.195	625.91
533.649	638.71
534.103	643.01
534.556	618.51
535.01	625.41
535.464	623.41
535.918	636.11
536.372	631.91
536.826	630.51
537.279	616.11
537.733	631.41
538.187	634.91
538.64	620.61
539.094	639.51
539.548	640.41
540.001	629.81
540.455	640.51
540.908	641.01
541.362	644.91
541.815	652.41
542.269	669.21
542.722	664.01
543.175	673.11
543.629	672.51
544.082	685.71
544.536	683.91
544.989	689.21
545.442	705.71
545.895	692.71
546.349	692.01
546.802	697.31
547.255	693.01
547.708	702.61
548.161	712.71
548.614	717.71
549.067	717.71
549.52	715.51
549.973	711.21
550.426	703.91
550.879	696.11
551.332	700.91
551.785	705.71
552.238	706.11
552.691	716.41
553.144	735.41
553.596	735.81
554.049	753.31
554.502	779.21
554.955	797.01
555.407	794.31
555.86	784.91
556.313	772.91
556.765	765.61
557.218	773.31
557.67	772.41
558.123	755.01
558.576	751.51
559.028	773.71
559.48	763.21
559.933	761.51
560.385	726.71
560.838	706.61
561.29	678.41
561.742	682.11
562.195	667.01
562.647	652.31
563.099	678.91
563.551	660.61
564.004	676.91
564.456	662.21
564.908	658.91
565.36	646.51
565.812	633.01
566.264	618.31
566.716	618.81
567.168	615.21
567.62	625.91
568.072	600.51
568.524	608.41
568.976	586.01
569.428	571.71
569.88	569.81
570.332	586.61
570.784	592.91
571.235	581.41
571.687	590.01
572.139	603.61
572.59	610.91
573.042	611.61
573.494	616.71
573.945	603.91
574.397	573.81
574.849	589.71
575.3	589.81
575.752	589.61
576.203	577.81
576.655	591.21
577.106	570.31
577.557	570.41
578.009	570.81
578.46	573.31
578.912	560.31
579.363	562.31
579.814	564.11
580.265	565.71
580.717	567.01
581.168	565.91
581.619	572.01
582.07	581.01
582.521	574.81
582.972	571.91
583.423	572.41
583.875	583.51
584.326	588.51
584.777	639.11
585.227	692.41
585.678	778.11
586.129	854.41
586.58	927.01
587.031	977.11
587.482	1136.61
587.933	1301.51
588.384	1121.01
588.834	835.01
589.285	686.61
589.736	657.91
590.186	655.71
590.637	645.21
591.088	616.61
591.538	618.91
591.989	621.11
592.439	610.21
592.89	612.61
593.34	602.21
593.791	594.21
594.241	592.01
594.692	601.01
595.142	599.31
595.593	584.31
596.043	601.51
596.493	596.11
596.943	600.41
597.394	604.11
597.844	595.91
598.294	617.71
598.744	628.61
599.195	654.11
599.645	675.71
600.095	708.41
600.545	751.61
600.995	805.01
601.445	859.91
601.895	910.01
602.345	950.91
602.795	941.01
603.245	883.61
603.695	849.91
604.145	800.51
604.594	755.41
605.044	725.31
605.494	654.51
605.944	631.51
606.393	622.21
606.843	604.71
607.293	608.71
607.743	606.51
608.192	619.41
608.642	637.21
609.091	630.71
609.541	635.11
609.99	632.41
610.44	632.31
610.889	594.21
611.339	578.61
611.788	566.61
612.238	583.21
612.687	593.21
613.136	598.31
613.586	606.41
614.035	601.71
614.484	625.61
614.933	630.81
615.383	616.71
615.832	601.41
616.281	601.81
616.73	569.71
617.179	555.81
617.628	540.61
618.077	531.71
618.526	513.21
618.975	507.21
619.424	512.01
619.873	509.51
620.322	507.81
620.771	491.11
621.22	497.11
621.669	491.91
622.118	476.81
622.567	477.91
623.015	467.81
623.464	467.91
623.913	461.81
624.361	451.61
624.81	446.41
625.259	451.11
625.707	455.41
626.156	453.51
626.604	469.71
627.053	461.71
627.501	454.01
627.95	459.71
628.398	478.71
628.847	464.61
629.295	457.81
629.744	467.41
630.192	473.31
630.64	464.61
631.089	451.41
631.537	469.91
631.985	473.51
632.433	483.51
632.881	488.51
633.33	528.91
633.778	512.81
634.226	461.31
634.674	468.21
635.122	469.61
635.57	483.51
636.018	510.11
636.466	470.81
636.914	446.01
637.362	467.61
637.81	468.41
638.258	463.31
638.705	468.31
639.153	487.31
639.601	505.21
640.049	522.11
640.497	548.01
640.944	565.91
641.392	521.01
641.84	495.01
642.287	471.01
642.735	461.51
643.182	469.41
643.63	468.51
644.078	468.51
644.525	479.61
644.973	486.41
645.42	484.81
645.867	503.91
646.315	519.51
646.762	528.31
647.21	556.81
647.657	574.41
648.104	609.51
648.551	624.01
648.999	676.31
649.446	739.81
649.893	810.91
650.34	931.11
650.787	1102.91
651.234	1380.71
651.682	1780.11
652.129	2413.41
652.576	3484.51
653.023	5139.81
653.47	7165.91
653.917	9050.01
654.363	10657.41
654.81	11974.81
655.257	11433.61
655.704	7412.61
656.151	4345.11
656.598	2778.71
657.044	1977.31
657.491	1515.51
657.938	1213.51
658.385	1020.21
658.831	879.71
659.278	783.41
659.724	696.01
660.171	632.71
660.618	585.51
661.064	546.51
661.511	527.31
661.957	506.31
662.404	508.61
662.85	512.11
663.296	492.11
663.743	447.81
664.189	438.41
664.635	422.21
665.082	421.11
665.528	416.51
665.974	412.41
666.42	414.11
666.867	402.71
667.313	390.51
667.759	385.51
668.205	380.31
668.651	395.11
669.097	381.71
669.543	409.61
669.989	378.91
670.435	354.31
670.881	359.51
671.327	364.81
671.773	373.81
672.219	391.41
672.665	435.41
673.11	461.21
673.556	500.61
674.002	539.01
674.448	530.21
674.893	446.31
675.339	383.91
675.785	351.91
676.23	336.31
676.676	311.51
677.122	308.61
677.567	286.31
678.013	291.41
678.458	289.11
678.904	278.21
679.349	276.91
679.794	281.11
680.24	281.31
680.685	271.01
681.131	278.61
681.576	272.51
682.021	277.21
682.466	273.51
682.912	270.61
683.357	269.21
683.802	296.91
684.247	322.21
684.692	357.21
685.137	386.31
685.583	423.01
686.028	444.21
686.473	413.01
686.918	355.61
687.363	334.81
687.807	311.91
688.252	287.31
688.697	287.01
689.142	256.41
689.587	259.51
690.032	264.71
690.477	273.31
690.921	280.71
691.366	295.51
691.811	313.91
692.255	342.31
692.7	367.61
693.145	394.01
693.589	537.51
694.034	860.81
694.478	1212.11
694.923	1404.51
695.367	1869.51
695.812	965.61
696.256	397.51
696.701	294.51
697.145	267.81
697.59	251.81
698.034	257.21
698.478	263.41
698.922	254.41
699.367	253.21
699.811	269.61
700.255	281.11
700.699	306.11
701.143	331.11
701.588	375.51
702.032	412.41
702.476	413.71
702.92	396.51
703.364	382.21
703.808	485.91
704.252	785.51
704.696	1130.21
705.14	1351.51
705.584	1747.31
706.027	859.41
706.471	416.11
706.915	309.71
707.359	273.21
707.803	249.41
708.246	241.01
708.69	246.41
709.134	248.21
709.577	243.21
710.021	255.61
710.465	241.61
710.908	237.01
711.352	241.61
711.795	238.91
712.239	274.11
712.682	303.91
713.126	324.91
713.569	373.51
714.012	288.41
714.456	251.81
714.899	238.91
715.342	215.61
715.786	201.71
716.229	203.21
716.672	204.91
717.115	194.01
717.558	196.81
718.002	199.51
718.445	205.01
718.888	225.31
719.331	228.71
719.774	242.81
720.217	236.31
720.66	223.51
721.103	209.91
721.546	198.21
721.989	193.81
722.432	177.31
722.874	184.21
723.317	175.91
723.76	186.31
724.203	202.71
724.645	245.81
725.088	340.31
725.531	443.01
725.974	521.01
726.416	435.81
726.859	237.71
727.301	189.21
727.744	191.71
728.187	185.61
728.629	183.71
729.071	188.81
729.514	201.61
729.956	209.51
730.399	218.41
730.841	229.21
731.283	211.31
731.726	204.71
732.168	198.71
732.61	206.81
733.053	223.21
733.495	238.21
733.937	273.11
734.379	309.01
734.821	340.21
735.263	413.41
735.705	639.01
736.148	1207.41
736.59	2021.21
737.032	2514.41
737.474	2035.01
737.916	643.11
738.357	337.61
738.799	260.81
739.241	231.11
739.683	222.61
740.125	235.11
740.567	234.71
741.008	247.11
741.45	248.91
741.892	252.21
742.334	271.31
742.775	285.31
743.217	279.71
743.658	215.61
744.1	203.51
744.542	205.51
744.983	246.41
745.425	274.31
745.866	276.21
746.307	230.61
746.749	224.51
747.19	250.41
747.632	345.11
748.073	664.91
748.514	1404.91
748.956	2276.01
749.397	2836.81
749.838	2345.11
750.279	2436.91
750.72	1220.51
751.162	426.71
751.603	252.41
752.044	199.81
752.485	170.01
752.926	164.21
753.367	161.41
753.808	149.81
754.249	147.61
754.69	144.51
755.131	147.61
755.572	138.91
756.013	137.61
756.453	142.81
756.894	144.41
757.335	151.41
757.776	148.91
758.216	157.41
758.657	155.41
759.098	159.81
759.538	173.41
759.979	205.91
760.42	281.21
760.86	525.61
761.301	1375.51
761.741	3440.11
762.182	5346.31
762.622	3773.21
763.063	1057.21
763.503	431.01
763.943	268.71
764.384	269.01
764.824	321.51
765.264	355.61
765.705	245.81
766.145	162.41
766.585	139.61
767.025	138.01
767.465	144.31
767.906	191.41
768.346	252.31
768.786	270.71
769.226	207.41
769.666	245.71
770.106	462.91
770.546	1189.61
770.986	2150.41
771.426	1959.21
771.866	638.01
772.306	265.21
772.745	167.21
773.185	135.61
773.625	135.61
774.065	135.11
774.505	153.11
774.944	232.31
775.384	514.51
775.824	976.51
776.263	979.01
776.703	406.71
777.142	169.91
777.582	121.11
778.021	104.41
778.461	110.91
778.9	104.41
779.34	104.91
779.779	89.11
780.219	82.01
780.658	83.41
781.097	82.11
781.537	89.91
781.976	84.01
782.415	81.11
782.855	90.41
783.294	83.71
783.733	74.11
784.172	80.51
784.611	83.81
785.05	92.31
785.489	91.11
785.928	94.41
786.367	87.91
786.806	90.41
787.245	105.81
787.684	105.61
788.123	118.71
788.562	109.31
789.001	101.11
789.44	96.01
789.879	93.21
790.317	92.61
790.756	107.31
791.195	104.01
791.634	110.81
792.072	164.31
792.511	275.61
792.95	760.71
793.388	1723.21
793.827	1612.41
794.265	546.91
794.704	220.41
795.142	138.31
795.581	121.81
796.019	113.91
796.458	98.11
796.896	93.91
797.334	99.91
797.773	120.31
798.211	170.01
798.649	328.61
799.087	786.41
799.526	1261.61
799.964	1591.61
800.402	1664.61
800.84	615.81
801.278	233.91
801.716	146.01
802.154	118.51
802.592	115.31
803.03	113.71
803.468	102.21
803.906	111.31
804.344	121.31
804.782	105.61
805.22	103.11
805.658	106.21
806.096	112.81
806.533	119.81
806.971	136.41
807.409	168.81
807.847	242.51
808.284	497.01
808.722	1443.01
809.16	2674.71
809.597	2456.61
810.035	4390.21
810.472	4932.71
810.91	1742.11
811.347	643.41
811.785	324.01
812.222	205.71
812.66	154.91
813.097	126.51
813.535	109.31
813.972	102.51
814.409	92.91
814.846	82.01
815.284	81.31
815.721	75.51
816.158	78.91
816.595	94.81
817.032	138.01
817.47	162.71
817.907	145.31
818.344	121.11
818.781	91.11
819.218	76.11
819.655	98.81
820.092	152.31
820.529	184.31
820.966	141.81
821.403	111.11
821.839	86.31
822.276	79.71
822.713	100.41
823.15	105.51
823.587	91.81
824.023	113.71
824.46	223.21
824.897	696.71
825.333	1125.21
825.77	475.81
826.206	187.81
826.643	108.21
827.08	73.91
827.516	61.11
827.953	60.61
828.389	58.21
828.825	52.91
829.262	53.21
829.698	50.11
830.135	48.01
830.571	42.11
831.007	43.81
831.443	44.51
831.88	46.81
832.316	52.61
832.752	55.01
833.188	47.01
833.624	52.21
834.06	54.61
834.497	52.71
834.933	50.61
835.369	62.21
835.805	52.11
836.241	63.41
836.677	57.01
837.112	66.21
837.548	79.91
837.984	103.81
838.42	149.91
838.856	365.91
839.292	1192.41
839.727	1908.71
840.163	884.41
840.599	716.41
841.034	1632.71
841.47	1789.51
841.906	645.51
842.341	268.21
842.777	183.61
843.212	247.31
843.648	245.41
844.083	124.41
844.519	81.71
844.954	63.41
845.39	39.81
845.825	41.51
846.261	37.41
846.696	40.31
847.131	51.51
847.566	41.71
848.002	37.91
848.437	43.61
848.872	46.81
849.307	48.61
849.742	67.21
850.177	133.71
850.613	444.81
851.048	729.61
851.483	306.51
851.918	120.21
852.353	71.11
852.788	42.51
853.223	41.21
853.657	48.11
854.092	36.11
854.527	34.01
854.962	35.11
855.397	34.91
855.832	40.51
856.266	36.71
856.701	28.11
857.136	24.31
857.57	33.41
858.005	37.91
858.44	45.81
858.874	27.51
859.309	38.11
859.743	33.21
860.178	31.61
860.612	34.11
861.047	35.91
861.481	49.81
861.915	52.61
862.35	42.61
862.784	22.61
863.218	26.51
863.653	25.81
864.087	41.21
864.521	39.91
864.955	53.91
865.39	121.01
865.824	143.71
866.258	91.31
866.692	135.51
867.126	148.51
867.56	87.31
867.994	41.91
868.428	27.11
868.862	38.81
869.296	47.01
869.73	42.61
870.164	35.41
870.598	39.31
871.031	26.01
871.465	29.01
871.899	27.91
872.333	20.51
872.766	22.21
873.2	17.11
873.634	20.61
874.067	18.41
874.501	11.01
874.935	25.51
875.368	22.11
875.802	21.41
876.235	17.41
876.669	16.41
877.102	18.11
877.535	20.61
877.969	15.31
878.402	15.91
878.836	10.91
879.269	14.21
879.702	16.01
880.135	16.11
880.569	13.51
881.002	29.51
881.435	14.31
881.868	16.61
882.301	14.01
882.734	16.11
883.167	14.91
883.601	12.01
884.034	18.51
884.467	7.31
884.899	15.01
885.332	9.21
885.765	7.61
886.198	11.01
886.631	15.91
887.064	13.61
887.497	14.61
887.929	16.21
888.362	6.31
888.795	8.01
889.228	10.41
889.66	16.41
890.093	13.21
890.526	9.01
890.958	13.31
891.391	13.01
891.823	15.01
892.256	8.71
892.688	13.21
893.121	6.71
893.553	12.91
893.985	19.41
894.418	10.71
894.85	7.11
895.282	9.91
895.715	14.01
896.147	7.21
896.579	11.31
897.011	9.41
897.444	13.71
897.876	3.71
898.308	13.61
898.74	10.81
899.172	11.91
899.604	23.41
900.036	12.81
900.468	13.41
900.9	15.61
901.332	14.01
901.764	17.21
902.196	14.01
902.628	13.01
903.06	11.81
903.491	27.01
903.923	20.61
904.355	14.71
904.787	17.61
905.218	17.01
905.65	14.21
906.082	7.61
906.513	6.01
906.945	13.71
907.376	13.41
907.808	23.41
908.239	15.01
908.671	14.81
909.102	13.01
909.534	15.91
909.965	39.41
910.397	71.01
910.828	253.61
911.259	403.51
911.691	183.71
912.122	86.31
912.553	43.61
912.984	30.41
913.415	21.41
913.847	23.41
914.278	12.41
914.709	14.41
915.14	13.11
915.571	8.41
916.002	11.11
916.433	17.61
916.864	12.61
917.295	8.41
917.726	15.51
918.157	11.01
918.587	24.41
919.018	16.61
919.449	14.61
919.88	17.21
920.311	24.71
920.741	39.71
921.172	132.11
921.603	123.51
922.033	62.71
922.464	35.61
922.895	15.11
923.325	19.81
923.756	12.11
924.186	10.51
924.617	21.41
925.047	28.81
925.478	41.31
925.908	38.11
926.338	24.51
926.769	13.61
927.199	22.21
927.629	3.31
928.06	16.71
928.49	14.61
928.92	9.11
929.35	9.81
929.78	6.81
930.21	4.11
930.641	0.61
931.071	6.61
931.501	1.11
931.931	3.71
932.361	10.21
932.791	0.11
933.221	7.21
933.651	2.61
934.08	14.61
934.51	28.41
934.94	14.21
935.37	8.81
935.8	10.21
936.229	2.71
936.659	4.21
937.089	-5.89
937.519	13.21
937.948	21.01
938.378	11.11
938.807	5.11
939.237	6.51
939.666	7.71
940.096	-2.99
940.525	1.91
940.955	1.11
941.384	4.21
941.814	-7.89
942.243	1.71
942.672	5.01
943.102	-4.69
943.531	-0.69
943.96	0.51
944.39	-5.19
944.819	4.11
945.248	2.31
945.677	3.71
946.106	4.41
946.535	7.11
946.964	-4.19
947.393	6.71
947.822	-0.89
948.251	2.31
948.68	1.81
949.109	2.31
949.538	0.41
949.967	-1.99
950.396	-3.39
950.825	-7.49
951.254	-0.19
951.682	-4.19
952.111	6.01
952.54	6.41
952.969	-4.59
953.397	-0.79
953.826	6.11
954.254	-2.79
954.683	-2.69
955.112	0.21
955.54	-0.89
955.969	0.01
956.397	2.71
956.826	-3.19
957.254	3.61
957.682	3.41
958.111	4.41
958.539	-0.89
958.967	3.31
959.396	0.01
959.824	0.61
960.252	1.31
960.68	-5.79
961.109	3.11
961.537	-2.49
961.965	4.21
962.393	-0.69
962.821	-3.49
963.249	-2.79
963.677	5.51
964.105	3.61
964.533	36.61
964.961	37.61
965.389	20.01
965.817	3.71
966.245	-5.79
966.672	-0.79
967.1	-8.49
967.528	2.11
967.956	-3.29
968.383	2.71
968.811	-5.09
969.239	4.71
969.666	-1.29
970.094	-2.99
970.522	-4.29
970.949	-4.09
971.377	-4.19
971.804	-3.79
972.232	-1.09
972.659	-1.49
973.087	-5.79
973.514	0.61
973.941	-7.49
974.369	5.01
974.796	0.31
975.223	-3.29
975.651	-7.29
976.078	1.61
976.505	0.01
976.932	4.01
977.359	12.21
977.786	13.81
978.214	0.51
978.641	-1.09
979.068	-5.79
979.495	-5.89
979.922	-3.69
980.349	-2.69
980.776	1.71
981.202	0.01
981.629	4.51
982.056	4.21
982.483	2.71
982.91	6.71
983.337	-6.29
983.763	2.41
984.19	-7.19
984.617	-1.59
985.043	-6.89
985.47	-0.59
985.897	-8.39
986.323	-6.69
986.75	6.21
987.176	-3.19
987.603	-1.79
988.029	-3.19
988.456	-3.99
988.882	-3.79
989.308	-5.19
989.735	-6.59
990.161	-1.19
990.587	-4.09
991.014	-3.19
991.44	2.31
991.866	-4.29
992.292	-4.29
992.719	-1.29
993.145	4.21
993.571	-9.19
993.997	-1.89
994.423	-6.49
994.849	-8.99
995.275	-0.19
995.701	-1.69
996.127	-1.29
996.553	2.41
996.979	-4.89
997.405	1.81
997.83	-6.79
998.256	-5.49
998.682	-4.79
999.108	-9.59
999.534	-0.09
999.959	-0.19
1000.385	-2.19
1000.811	-0.89
1001.236	-10.59
1001.662	-8.49
1002.087	-13.79
1002.513	-6.19
1002.938	-1.69
1003.364	-3.29
1003.789	4.81
1004.215	3.01
1004.64	-1.29
1005.066	6.91
1005.491	-1.59
1005.916	-0.79
1006.342	-1.59
1006.767	-5.69
1007.192	5.71
1007.617	-4.49
1008.042	-4.39
1008.468	-4.49
1008.893	-5.99
1009.318	-1.79
1009.743	0.91
1010.168	5.91
1010.593	-0.19
1011.018	-6.99
1011.443	-1.59
1011.868	-3.19
1012.293	-2.39
1012.718	-5.49
1013.143	-0.89
1013.567	3.31
1013.992	-5.09
1014.417	-12.09
1014.842	4.21
1015.267	-4.49
1015.691	-8.59
1016.116	3.71
1016.541	-2.69
1016.965	3.01
1017.39	0.01
1017.814	4.71
1018.239	0.81
1018.663	-8.69
1019.088	-5.59
1019.512	-4.79
1019.937	-1.39
1020.361	-4.69
1020.785	-9.69
1021.21	-5.19
1021.634	0.51
1022.058	-1.39
1022.483	3.21
1022.907	-10.49
1023.331	-2.39
1023.755	-1.79
1024.179	-1.99
1024.604	-2.19
1025.028	-7.19
1025.452	-4.39
1025.876	-4.29
1026.3	2.71
1026.724	-7.09
1027.148	-1.39
1027.572	-7.69
1027.996	-4.99
1028.42	0.01
1028.843	-6.09
1029.267	-5.59
1029.691	2.61
1030.115	-5.19
1030.539	-8.89
1030.962	-2.59
1031.386	-10.09
1031.81	-4.09
1032.233	-2.39
1032.657	-7.49
1033.08	-2.09
1033.504	-1.99
1033.927	-7.79
1034.351	-1.79
1034.774	-6.29
1035.198	2.91
1035.621	-10.69
1036.045	-6.39
1036.468	-1.49
1036.891	-6.99
1037.315	-8.79
1037.738	-6.39
1038.161	-1.89
1038.584	-1.49
1039.008	-3.59
1039.431	-5.99
1039.854	-1.09
1040.277	-6.59
1040.7	-15.19
1041.123	-2.09
1041.546	-6.59
1041.969	-4.39
1042.392	-5.99
1042.815	1.11
1043.238	-2.49
1043.661	1.11
1044.084	-11.39
1044.507	-5.69
1044.93	-8.99
1045.352	-6.49
1045.775	-0.29
1046.198	-1.29
1046.621	0.11
1047.043	-3.29
1047.466	6.81
1047.889	-4.09
1048.311	-0.89
1048.734	-0.89
1049.156	-2.69
1049.579	-1.99
1050.001	0.21
1050.424	-4.79
1050.846	-3.19
1051.269	-7.49
1051.691	-6.49
1052.113	-7.59
1052.536	-3.89
1052.958	1.51
1053.38	-6.29
1053.802	-6.99
1054.225	0.21
1054.647	-10.09
1055.069	-3.09
1055.491	1.21
1055.913	-5.49
1056.335	-2.39
1056.757	-4.99
1057.179	-8.29
1057.601	-2.49
1058.023	1.21
1058.445	-5.89
1058.867	-0.99
1059.289	-5.79
1059.711	-6.19
1060.133	-7.19
1060.555	-3.09
1060.976	-1.29
1061.398	-8.79
1061.82	-6.19
1062.241	-4.49
1062.663	-6.79
1063.085	-3.89
1063.506	0.21
1063.928	-5.19
1064.35	3.61
1064.771	-13.79
1065.193	-2.59
1065.614	-12.59
1066.035	-5.39
1066.457	-4.89
1066.878	4.41
1067.3	-4.49
1067.721	-4.59
1068.142	-4.29
1068.564	1.31
1068.985	-2.59
1069.406	-7.59
1069.827	-3.19
1070.248	-6.39
1070.67	-4.09
1071.091	-0.79
1071.512	1.21
1071.933	-6.89
1072.354	-6.99
1072.775	-5.99
1073.196	-10.29
1073.617	-2.49
1074.038	-6.29
1074.459	-1.09
1074.88	-6.39
1075.3	-3.09
1075.721	-5.39
1076.142	0.61
1076.563	2.31
1076.983	-6.79
1077.404	-9.19
1077.825	-9.39
1078.246	-6.29
1078.666	-5.29
1079.087	-4.29
1079.507	-8.99
1079.928	-1.79
1080.348	3.21
1080.769	-10.59
1081.189	-1.29
1081.61	0.41
1082.03	-6.19
1082.451	-3.49
1082.871	-0.29
1083.291	-10.29
1083.711	-12.29
1084.132	-8.19
1084.552	-8.49
1084.972	0.01
1085.392	-10.09
1085.813	-8.39
1086.233	-7.09
1086.653	-5.49
1087.073	-4.69
1087.493	-7.39
1087.913	-9.09
1088.333	-15.29
1088.753	-2.99
1089.173	2.91
1089.593	-2.39
1090.013	0.61
1090.433	3.21
1090.852	-5.29
1091.272	-1.09
1091.692	0.61
1092.112	-6.89
1092.531	-5.29
1092.951	-19.29
1093.371	-3.89
1093.79	3.21
1094.21	-3.29
1094.63	-10.09
1095.049	-1.19
1095.469	-2.29
1095.888	-3.49
1096.308	0.51
1096.727	-0.19
1097.146	-7.89
1097.566	-6.79
1097.985	-2.99
1098.405	-1.79
1098.824	-7.69
1099.243	-1.19
1099.662	-9.99
1100.082	-5.89
1100.501	-0.39
1100.92	-4.59
1101.339	-5.19
1101.758	-3.09
