Data from 20171114-ORNL-Ar_H_NY_Subt18_08-03-33-673.txt Node
Date: Tue Nov 14 08:03:33 EST 2017
User: Ender
Spectrometer: HR+D1039
Trigger mode: 0
Integration Time (sec): 2.730000E-2
Scans to average: 10
Electric dark correction enabled: true
Nonlinearity correction enabled: false
Boxcar width: 0
XAxis mode: Wavelengths
Number of Pixels in Spectrum: 2048
>>>>>Begin Spectral Data<<<<<
187.836	-2.71
188.309	-2.71
188.782	-2.71
189.255	2.79
189.728	-2.21
190.201	6.19
190.674	-1.21
191.147	0.09
191.619	-4.11
192.092	1.19
192.565	5.99
193.038	-0.41
193.511	-0.11
193.984	-1.41
194.456	-2.61
194.929	0.59
195.402	-4.11
195.874	2.09
196.347	-2.41
196.82	-2.31
197.292	3.49
197.765	-1.61
198.237	-1.91
198.71	1.99
199.182	1.29
199.655	5.99
200.127	4.99
200.6	2.69
201.072	-2.11
201.544	-2.51
202.017	-3.01
202.489	6.59
202.961	-1.11
203.433	-4.61
203.906	-11.41
204.378	-7.91
204.85	0.19
205.322	1.09
205.794	-1.71
206.266	2.09
206.739	-6.41
207.211	3.29
207.683	-2.91
208.155	-1.11
208.627	-1.51
209.099	-5.51
209.57	-5.71
210.042	-3.71
210.514	-4.31
210.986	0.39
211.458	-12.81
211.93	-2.11
212.402	3.59
212.873	-5.21
213.345	-11.61
213.817	-10.21
214.288	-0.51
214.76	-11.01
215.232	-5.21
215.703	2.09
216.175	-5.01
216.646	-5.51
217.118	-6.51
217.589	-4.11
218.061	-1.71
218.532	-5.61
219.004	-6.01
219.475	1.59
219.946	-3.81
220.418	-5.51
220.889	1.79
221.36	1.69
221.832	-1.61
222.303	-9.61
222.774	-2.01
223.245	-8.51
223.717	-5.51
224.188	-5.41
224.659	-6.71
225.13	-7.11
225.601	-2.11
226.072	-4.11
226.543	-7.61
227.014	-1.91
227.485	-2.41
227.956	-7.01
228.427	-1.91
228.898	0.19
229.369	-0.61
229.839	-2.91
230.31	-11.71
230.781	2.29
231.252	-4.51
231.722	-7.11
232.193	-2.11
232.664	0.29
233.135	-6.71
233.605	-8.11
234.076	-8.71
234.546	-2.71
235.017	2.99
235.487	1.19
235.958	-7.51
236.428	-2.51
236.899	1.49
237.369	-5.71
237.84	-7.61
238.31	0.99
238.78	-7.31
239.251	-6.81
239.721	-7.51
240.191	2.39
240.662	0.39
241.132	-0.51
241.602	-7.51
242.072	-5.31
242.542	2.19
243.013	-4.71
243.483	2.39
243.953	-6.51
244.423	-5.81
244.893	-6.01
245.363	0.59
245.833	2.99
246.303	-5.31
246.773	-2.21
247.243	2.19
247.712	-4.91
248.182	2.59
248.652	-0.81
249.122	-14.11
249.592	1.49
250.061	-5.11
250.531	3.79
251.001	-6.11
251.471	-0.51
251.94	6.79
252.41	-5.91
252.879	-10.91
253.349	1.69
253.818	0.09
254.288	1.39
254.757	-3.51
255.227	-5.41
255.696	-3.61
256.166	-0.31
256.635	3.29
257.105	2.99
257.574	-3.61
258.043	1.69
258.513	-4.81
258.982	-5.91
259.451	-8.61
259.92	-3.61
260.389	-5.71
260.859	5.19
261.328	1.89
261.797	0.49
262.266	-9.91
262.735	0.49
263.204	-2.81
263.673	-1.81
264.142	-1.51
264.611	-12.41
265.08	-4.61
265.549	-4.91
266.018	-0.01
266.487	-7.41
266.955	-8.31
267.424	-5.61
267.893	-3.71
268.362	-6.61
268.83	2.19
269.299	-0.71
269.768	-1.61
270.236	-0.21
270.705	-2.61
271.174	-2.41
271.642	-4.71
272.111	-0.21
272.579	-2.81
273.048	-2.21
273.516	-5.61
273.985	-1.11
274.453	1.99
274.922	9.89
275.39	-4.71
275.858	-14.81
276.327	2.49
276.795	7.09
277.263	-5.61
277.731	1.89
278.2	-0.21
278.668	-4.61
279.136	-3.91
279.604	-3.71
280.072	5.09
280.54	1.89
281.008	-4.91
281.477	3.19
281.945	5.49
282.413	0.59
282.881	-1.41
283.348	-10.21
283.816	-2.51
284.284	0.19
284.752	8.29
285.22	0.89
285.688	-4.71
286.156	-4.81
286.623	6.89
287.091	1.59
287.559	-1.01
288.026	-0.81
288.494	0.49
288.962	-10.61
289.429	-5.41
289.897	3.19
290.364	4.19
290.832	-0.41
291.3	-2.61
291.767	0.09
292.234	-2.01
292.702	-5.51
293.169	-5.11
293.637	4.09
294.104	5.19
294.571	-11.11
295.039	-1.91
295.506	-4.71
295.973	1.39
296.44	-7.01
296.908	1.99
297.375	-3.41
297.842	0.79
298.309	-4.11
298.776	-2.51
299.243	1.49
299.71	-4.71
300.177	3.79
300.644	-1.31
301.111	-0.51
301.578	6.29
302.045	-5.41
302.512	3.39
302.979	6.39
303.446	1.59
303.913	0.79
304.379	-1.21
304.846	0.99
305.313	6.89
305.78	-5.01
306.246	4.19
306.713	2.69
307.18	4.59
307.646	2.19
308.113	0.69
308.579	-4.51
309.046	1.09
309.512	-0.81
309.979	-6.51
310.445	0.29
310.912	3.09
311.378	5.79
311.845	6.89
312.311	7.39
312.777	6.89
313.244	5.99
313.71	12.79
314.176	3.09
314.642	1.39
315.109	-3.51
315.575	3.69
316.041	6.59
316.507	-0.11
316.973	9.09
317.439	1.99
317.905	5.59
318.371	0.59
318.837	8.79
319.303	4.79
319.769	2.89
320.235	-0.11
320.701	2.89
321.167	2.39
321.633	-4.61
322.099	0.59
322.564	7.29
323.03	1.69
323.496	0.99
323.962	7.39
324.427	3.79
324.893	11.59
325.359	1.79
325.824	6.39
326.29	1.79
326.755	3.99
327.221	6.09
327.686	2.29
328.152	13.59
328.617	7.89
329.083	10.99
329.548	7.49
330.014	3.09
330.479	3.79
330.944	5.79
331.41	8.29
331.875	11.99
332.34	5.29
332.805	-3.11
333.271	1.59
333.736	4.09
334.201	7.09
334.666	4.69
335.131	8.09
335.596	14.59
336.061	14.89
336.526	-3.31
336.991	6.59
337.456	12.49
337.921	6.19
338.386	5.09
338.851	4.09
339.316	6.59
339.781	2.39
340.246	12.89
340.711	6.59
341.175	10.19
341.64	6.79
342.105	8.49
342.569	8.39
343.034	15.19
343.499	8.59
343.963	5.49
344.428	15.89
344.893	12.59
345.357	8.79
345.822	10.09
346.286	14.29
346.751	9.29
347.215	17.49
347.679	5.29
348.144	13.09
348.608	21.19
349.073	12.29
349.537	15.79
350.001	15.29
350.465	25.19
350.93	17.39
351.394	17.59
351.858	12.19
352.322	18.39
352.786	10.99
353.25	19.19
353.715	23.99
354.179	22.69
354.643	27.39
355.107	25.69
355.571	21.99
356.035	20.59
356.498	20.59
356.962	13.79
357.426	25.09
357.89	18.79
358.354	21.39
358.818	16.69
359.281	20.59
359.745	13.49
360.209	14.09
360.673	10.99
361.136	19.39
361.6	24.29
362.064	17.59
362.527	22.39
362.991	22.79
363.454	16.89
363.918	13.69
364.381	11.29
364.845	16.19
365.308	25.09
365.772	12.09
366.235	15.39
366.698	16.59
367.162	16.59
367.625	17.99
368.088	18.19
368.552	12.79
369.015	16.59
369.478	22.29
369.941	26.19
370.404	15.19
370.867	22.59
371.331	25.99
371.794	19.99
372.257	15.39
372.72	31.79
373.183	25.89
373.646	20.19
374.109	20.59
374.572	22.79
375.035	23.29
375.497	14.09
375.96	23.39
376.423	24.49
376.886	23.19
377.349	22.39
377.811	17.89
378.274	24.39
378.737	21.69
379.199	23.79
379.662	23.09
380.125	28.09
380.587	20.69
381.05	24.09
381.512	22.29
381.975	28.09
382.437	29.59
382.9	25.89
383.362	24.49
383.825	28.19
384.287	26.59
384.75	25.39
385.212	26.59
385.674	30.09
386.136	30.09
386.599	28.19
387.061	27.49
387.523	30.19
387.985	29.89
388.447	39.69
388.91	31.39
389.372	32.49
389.834	34.59
390.296	24.39
390.758	29.69
391.22	32.59
391.682	33.99
392.144	41.59
392.606	39.29
393.068	36.59
393.529	41.59
393.991	41.09
394.453	26.99
394.915	28.39
395.377	27.19
395.838	26.49
396.3	28.79
396.762	39.39
397.224	25.49
397.685	34.39
398.147	31.19
398.608	30.99
399.07	26.99
399.531	31.99
399.993	32.19
400.454	34.19
400.916	42.19
401.377	34.59
401.839	41.29
402.3	39.89
402.762	42.09
403.223	46.69
403.684	41.99
404.145	41.09
404.607	38.39
405.068	43.49
405.529	37.39
405.99	37.49
406.451	38.39
406.913	42.79
407.374	39.39
407.835	36.89
408.296	39.89
408.757	38.49
409.218	46.39
409.679	39.89
410.14	42.79
410.601	41.79
411.062	47.59
411.522	46.89
411.983	44.89
412.444	37.39
412.905	56.39
413.366	46.49
413.826	53.79
414.287	67.59
414.748	90.39
415.208	76.09
415.669	63.59
416.13	67.79
416.59	60.29
417.051	69.89
417.511	70.69
417.972	77.59
418.432	80.79
418.893	101.89
419.353	82.09
419.814	59.89
420.274	51.29
420.734	47.89
421.195	57.59
421.655	52.29
422.115	49.89
422.576	57.49
423.036	55.49
423.496	58.59
423.956	57.79
424.416	67.19
424.876	79.19
425.336	76.69
425.797	69.19
426.257	70.59
426.717	60.49
427.177	58.59
427.637	49.89
428.097	62.29
428.556	58.59
429.016	66.69
429.476	54.09
429.936	59.09
430.396	54.59
430.856	56.89
431.315	71.29
431.775	65.59
432.235	85.39
432.694	71.09
433.154	75.89
433.614	81.09
434.073	72.09
434.533	58.89
434.993	54.09
435.452	60.49
435.912	56.29
436.371	61.29
436.83	62.09
437.29	69.09
437.749	60.89
438.209	61.89
438.668	58.99
439.127	73.49
439.587	57.99
440.046	58.59
440.505	57.59
440.964	68.09
441.424	73.09
441.883	70.39
442.342	71.99
442.801	57.19
443.26	65.79
443.719	65.79
444.178	61.49
444.637	49.59
445.096	65.39
445.555	62.79
446.014	65.19
446.473	64.59
446.932	69.39
447.391	63.49
447.849	65.39
448.308	65.69
448.767	62.59
449.226	71.69
449.685	68.39
450.143	72.39
450.602	65.69
451.061	60.49
451.519	59.69
451.978	61.19
452.436	57.79
452.895	57.39
453.353	67.29
453.812	58.79
454.27	72.09
454.729	69.89
455.187	65.59
455.646	69.69
456.104	65.69
456.562	70.59
457.021	71.49
457.479	73.19
457.937	71.79
458.395	67.99
458.854	64.09
459.312	61.59
459.77	69.89
460.228	72.59
460.686	63.79
461.144	76.69
461.602	66.49
462.06	62.99
462.518	72.99
462.976	66.29
463.434	70.29
463.892	65.29
464.35	70.59
464.808	82.29
465.266	66.59
465.724	71.39
466.181	72.99
466.639	76.29
467.097	78.29
467.555	82.49
468.012	80.69
468.47	74.89
468.928	86.69
469.385	86.29
469.843	88.39
470.3	89.59
470.758	92.09
471.215	89.99
471.673	92.89
472.13	97.09
472.588	110.49
473.045	92.19
473.503	99.39
473.96	103.09
474.417	98.29
474.875	103.29
475.332	112.89
475.789	111.69
476.246	106.59
476.704	106.39
477.161	114.89
477.618	103.99
478.075	122.69
478.532	122.59
478.989	135.89
479.446	137.49
479.903	134.89
480.36	124.69
480.817	119.19
481.274	125.89
481.731	128.29
482.188	118.59
482.645	135.59
483.102	131.79
483.558	142.29
484.015	146.89
484.472	139.09
484.929	136.59
485.385	145.29
485.842	152.29
486.299	149.29
486.755	167.69
487.212	150.89
487.668	134.59
488.125	139.79
488.582	136.79
489.038	139.89
489.494	136.49
489.951	130.39
490.407	143.19
490.864	129.99
491.32	144.29
491.776	144.29
492.233	153.49
492.689	137.79
493.145	137.39
493.602	146.39
494.058	146.09
494.514	137.69
494.97	149.59
495.426	146.69
495.882	143.69
496.338	140.49
496.794	143.19
497.251	145.49
497.707	152.29
498.163	151.89
498.618	150.29
499.074	150.89
499.53	158.29
499.986	158.49
500.442	155.39
500.898	147.29
501.354	145.29
501.809	156.19
502.265	154.29
502.721	152.79
503.177	154.39
503.632	166.19
504.088	160.39
504.543	161.39
504.999	159.49
505.455	151.79
505.91	152.09
506.366	159.39
506.821	152.69
507.277	153.39
507.732	152.29
508.187	155.89
508.643	159.19
509.098	153.69
509.553	161.59
510.009	162.89
510.464	162.49
510.919	166.29
511.375	160.99
511.83	172.99
512.285	169.49
512.74	188.89
513.195	197.29
513.65	189.29
514.105	187.99
514.56	187.19
515.015	196.89
515.47	205.69
515.925	188.09
516.38	194.29
516.835	202.09
517.29	199.19
517.745	191.29
518.2	188.89
518.655	185.79
519.109	176.29
519.564	179.69
520.019	172.49
520.474	161.69
520.928	173.69
521.383	176.29
521.838	162.09
522.292	174.49
522.747	172.59
523.201	170.49
523.656	171.29
524.11	161.19
524.565	164.89
525.019	159.99
525.474	161.19
525.928	165.39
526.382	155.89
526.837	156.29
527.291	158.39
527.745	157.79
528.2	159.59
528.654	165.99
529.108	151.99
529.562	147.89
530.016	152.39
530.47	157.49
530.925	157.69
531.379	151.79
531.833	159.09
532.287	146.09
532.741	149.79
533.195	147.39
533.649	159.49
534.103	159.79
534.556	149.39
535.01	153.89
535.464	148.29
535.918	164.69
536.372	163.49
536.826	157.59
537.279	147.99
537.733	153.49
538.187	153.89
538.64	153.69
539.094	161.19
539.548	157.29
540.001	154.09
540.455	155.99
540.908	164.79
541.362	168.49
541.815	164.19
542.269	170.89
542.722	168.99
543.175	173.09
543.629	166.79
544.082	181.19
544.536	175.49
544.989	176.79
545.442	181.69
545.895	180.99
546.349	179.99
546.802	172.49
547.255	180.99
547.708	178.59
548.161	188.99
548.614	190.79
549.067	198.09
549.52	192.39
549.973	185.69
550.426	178.09
550.879	170.69
551.332	174.89
551.785	181.09
552.238	178.99
552.691	181.39
553.144	189.09
553.596	189.49
554.049	184.49
554.502	205.49
554.955	216.19
555.407	205.29
555.86	202.89
556.313	193.19
556.765	190.39
557.218	194.69
557.67	198.79
558.123	185.39
558.576	189.19
559.028	196.99
559.48	198.09
559.933	191.29
560.385	182.39
560.838	166.39
561.29	165.49
561.742	161.59
562.195	157.99
562.647	159.69
563.099	175.69
563.551	165.19
564.004	170.09
564.456	171.59
564.908	152.09
565.36	151.79
565.812	155.89
566.264	146.19
566.716	145.69
567.168	142.89
567.62	153.29
568.072	140.89
568.524	142.19
568.976	133.69
569.428	134.99
569.88	139.19
570.332	137.99
570.784	142.49
571.235	133.69
571.687	140.89
572.139	142.79
572.59	141.99
573.042	148.69
573.494	141.89
573.945	140.59
574.397	131.99
574.849	140.09
575.3	136.69
575.752	138.29
576.203	127.69
576.655	138.29
577.106	135.29
577.557	134.49
578.009	138.19
578.46	131.79
578.912	126.09
579.363	128.19
579.814	126.19
580.265	119.79
580.717	128.09
581.168	122.19
581.619	131.29
582.07	130.49
582.521	127.99
582.972	122.39
583.423	129.39
583.875	128.69
584.326	128.39
584.777	135.69
585.227	138.49
585.678	134.39
586.129	136.49
586.58	153.39
587.031	153.39
587.482	159.09
587.933	167.09
588.384	158.29
588.834	151.49
589.285	155.99
589.736	153.69
590.186	149.49
590.637	158.19
591.088	148.59
591.538	145.39
591.989	145.49
592.439	144.19
592.89	138.29
593.34	130.39
593.791	133.29
594.241	132.39
594.692	133.69
595.142	126.89
595.593	127.49
596.043	138.19
596.493	137.89
596.943	136.09
597.394	136.09
597.844	129.69
598.294	126.39
598.744	155.09
599.195	150.29
599.645	163.59
600.095	177.69
600.545	200.69
600.995	202.19
601.445	231.89
601.895	240.69
602.345	270.29
602.795	245.09
603.245	227.49
603.695	210.39
604.145	185.09
604.594	167.49
605.044	161.89
605.494	139.49
605.944	131.49
606.393	132.29
606.843	139.49
607.293	136.39
607.743	132.89
608.192	136.99
608.642	146.99
609.091	146.29
609.541	147.49
609.99	143.39
610.44	149.89
610.889	130.19
611.339	126.69
611.788	120.49
612.238	126.39
612.687	144.29
613.136	134.69
613.586	136.29
614.035	130.39
614.484	122.79
614.933	130.99
615.383	128.79
615.832	132.99
616.281	127.69
616.73	130.19
617.179	120.69
617.628	120.99
618.077	110.29
618.526	110.49
618.975	111.29
619.424	119.79
619.873	107.49
620.322	116.39
620.771	107.89
621.22	113.09
621.669	108.49
622.118	107.49
622.567	100.89
623.015	95.69
623.464	98.69
623.913	94.79
624.361	88.19
624.81	90.49
625.259	91.49
625.707	94.69
626.156	94.49
626.604	100.99
627.053	101.69
627.501	97.89
627.95	101.29
628.398	99.49
628.847	96.09
629.295	98.99
629.744	106.69
630.192	104.69
630.64	97.59
631.089	90.39
631.537	89.69
631.985	83.39
632.433	89.69
632.881	88.99
633.33	95.09
633.778	83.49
634.226	85.69
634.674	79.39
635.122	86.49
635.57	93.49
636.018	98.39
636.466	100.99
636.914	95.39
637.362	102.19
637.81	104.99
638.258	101.09
638.705	96.49
639.153	108.09
639.601	107.49
640.049	108.79
640.497	116.09
640.944	127.29
641.392	103.59
641.84	98.39
642.287	93.79
642.735	77.99
643.182	85.99
643.63	82.39
644.078	79.49
644.525	84.49
644.973	72.49
645.42	72.49
645.867	78.19
646.315	91.59
646.762	83.59
647.21	83.39
647.657	85.19
648.104	84.79
648.551	75.49
648.999	80.29
649.446	76.99
649.893	67.49
650.34	74.99
650.787	75.69
651.234	87.69
651.682	76.59
652.129	86.09
652.576	82.09
653.023	98.29
653.47	101.89
653.917	102.69
654.363	109.49
654.81	111.89
655.257	105.39
655.704	96.89
656.151	79.49
656.598	71.09
657.044	78.29
657.491	74.59
657.938	68.59
658.385	84.29
658.831	80.69
659.278	90.29
659.724	75.09
660.171	78.29
660.618	71.59
661.064	74.99
661.511	69.89
661.957	77.59
662.404	75.29
662.85	84.49
663.296	80.59
663.743	79.19
664.189	70.39
664.635	76.99
665.082	75.69
665.528	72.29
665.974	72.09
666.42	70.69
666.867	77.99
667.313	67.49
667.759	70.89
668.205	69.29
668.651	66.59
669.097	63.19
669.543	61.59
669.989	68.29
670.435	67.79
670.881	66.49
671.327	64.69
671.773	72.69
672.219	83.49
672.665	94.79
673.11	93.49
673.556	118.19
674.002	130.29
674.448	118.49
674.893	96.39
675.339	72.39
675.785	72.29
676.23	66.89
676.676	55.09
677.122	57.69
677.567	56.19
678.013	56.49
678.458	49.29
678.904	54.99
679.349	49.89
679.794	57.09
680.24	53.59
680.685	54.49
681.131	59.09
681.576	51.79
682.021	63.29
682.466	49.19
682.912	53.89
683.357	45.79
683.802	63.59
684.247	68.29
684.692	80.99
685.137	85.09
685.583	100.79
686.028	110.59
686.473	95.39
686.918	72.39
687.363	72.99
687.807	72.79
688.252	57.69
688.697	61.09
689.142	49.69
689.587	49.89
690.032	39.29
690.477	54.89
690.921	50.79
691.366	62.89
691.811	62.79
692.255	82.89
692.7	91.79
693.145	90.29
693.589	128.49
694.034	228.09
694.478	342.59
694.923	410.79
695.367	549.19
695.812	263.49
696.256	93.59
696.701	60.69
697.145	54.29
697.59	52.69
698.034	48.19
698.478	53.29
698.922	52.39
699.367	48.89
699.811	62.49
700.255	60.79
700.699	71.29
701.143	75.59
701.588	94.19
702.032	110.49
702.476	98.99
702.92	92.59
703.364	84.59
703.808	117.89
704.252	208.09
704.696	312.59
705.14	385.19
705.584	511.49
706.027	234.49
706.471	95.09
706.915	59.09
707.359	57.09
707.803	43.99
708.246	39.29
708.69	56.29
709.134	52.89
709.577	50.89
710.021	62.39
710.465	57.79
710.908	44.89
711.352	46.19
711.795	51.19
712.239	62.49
712.682	56.69
713.126	72.69
713.569	89.19
714.012	70.69
714.456	48.89
714.899	51.99
715.342	37.09
715.786	36.29
716.229	40.69
716.672	46.69
717.115	32.69
717.558	36.09
718.002	33.29
718.445	40.19
718.888	53.89
719.331	48.09
719.774	59.89
720.217	52.89
720.66	46.19
721.103	40.09
721.546	43.69
721.989	43.49
722.432	32.69
722.874	35.29
723.317	34.59
723.76	32.29
724.203	40.09
724.645	58.09
725.088	83.89
725.531	113.49
725.974	139.59
726.416	108.19
726.859	48.89
727.301	37.29
727.744	37.69
728.187	37.59
728.629	41.19
729.071	43.59
729.514	48.99
729.956	43.99
730.399	45.79
730.841	54.49
731.283	38.79
731.726	36.19
732.168	39.69
732.61	45.49
733.053	45.09
733.495	54.39
733.937	60.39
734.379	78.79
734.821	79.69
735.263	103.99
735.705	170.79
736.148	328.09
736.59	575.69
737.032	722.39
737.474	575.79
737.916	165.29
738.357	84.29
738.799	54.19
739.241	50.69
739.683	47.09
740.125	48.39
740.567	48.49
741.008	56.19
741.45	60.29
741.892	58.49
742.334	69.19
742.775	63.59
743.217	57.39
743.658	45.69
744.1	38.89
744.542	31.69
744.983	50.09
745.425	55.09
745.866	53.19
746.307	47.39
746.749	49.69
747.19	57.69
747.632	84.59
748.073	166.59
748.514	405.59
748.956	659.49
749.397	812.79
749.838	675.69
750.279	709.79
750.72	327.69
751.162	106.59
751.603	56.99
752.044	43.79
752.485	26.99
752.926	32.39
753.367	36.99
753.808	28.69
754.249	28.09
754.69	28.89
755.131	29.29
755.572	25.49
756.013	24.59
756.453	30.89
756.894	27.29
757.335	31.89
757.776	31.69
758.216	37.19
758.657	27.59
759.098	27.99
759.538	32.79
759.979	45.29
760.42	64.19
760.86	128.39
761.301	382.39
761.741	964.89
762.182	1513.79
762.622	1053.79
763.063	276.49
763.503	100.19
763.943	58.79
764.384	46.49
764.824	37.49
765.264	31.89
765.705	28.39
766.145	22.79
766.585	23.49
767.025	28.39
767.465	22.09
767.906	30.79
768.346	28.39
768.786	27.29
769.226	37.39
769.666	55.79
770.106	113.49
770.546	332.39
770.986	620.39
771.426	570.49
771.866	169.99
772.306	61.79
772.745	32.39
773.185	24.39
773.625	25.59
774.065	19.19
774.505	22.19
774.944	25.09
775.384	53.99
775.824	91.79
776.263	90.69
776.703	38.79
777.142	16.69
777.582	11.99
778.021	17.49
778.461	17.79
778.9	19.09
779.34	17.39
779.779	7.89
780.219	10.09
780.658	7.49
781.097	15.19
781.537	15.39
781.976	15.29
782.415	17.89
782.855	14.69
783.294	11.29
783.733	14.09
784.172	12.29
784.611	7.39
785.05	8.69
785.489	20.99
785.928	19.69
786.367	26.99
786.806	19.99
787.245	19.49
787.684	17.99
788.123	25.69
788.562	18.39
789.001	18.29
789.44	12.39
789.879	14.89
790.317	14.49
790.756	18.69
791.195	19.39
791.634	27.29
792.072	35.19
792.511	63.89
792.95	209.99
793.388	491.89
793.827	459.19
794.265	138.99
794.704	47.69
795.142	34.29
795.581	27.09
796.019	20.69
796.458	18.79
796.896	14.29
797.334	20.19
797.773	27.59
798.211	44.09
798.649	86.09
799.087	223.19
799.526	364.99
799.964	460.99
800.402	489.69
800.84	164.89
801.278	58.19
801.716	25.89
802.154	23.09
802.592	24.99
803.03	20.09
803.468	18.89
803.906	23.29
804.344	27.09
804.782	19.49
805.22	16.59
805.658	12.39
806.096	27.79
806.533	30.79
806.971	30.49
807.409	35.79
807.847	49.59
808.284	125.59
808.722	407.09
809.16	780.59
809.597	687.49
810.035	1234.79
810.472	1397.89
810.91	472.99
811.347	165.99
811.785	73.39
812.222	46.29
812.66	33.69
813.097	23.29
813.535	19.19
813.972	17.89
814.409	18.59
814.846	14.59
815.284	18.19
815.721	12.89
816.158	18.89
816.595	15.09
817.032	25.49
817.47	33.59
817.907	27.59
818.344	12.49
818.781	10.99
819.218	8.79
819.655	15.99
820.092	32.69
820.529	24.69
820.966	20.19
821.403	17.29
821.839	15.49
822.276	14.89
822.713	16.39
823.15	24.19
823.587	21.09
824.023	24.99
824.46	51.39
824.897	203.79
825.333	332.89
825.77	134.39
826.206	45.99
826.643	24.79
827.08	22.89
827.516	10.39
827.953	10.19
828.389	14.09
828.825	13.09
829.262	9.79
829.698	3.29
830.135	8.19
830.571	11.99
831.007	5.89
831.443	7.09
831.88	6.59
832.316	10.49
832.752	7.59
833.188	8.79
833.624	12.99
834.06	7.69
834.497	6.49
834.933	10.29
835.369	14.69
835.805	9.09
836.241	8.99
836.677	4.59
837.112	14.19
837.548	15.39
837.984	23.69
838.42	29.89
838.856	94.49
839.292	345.39
839.727	559.89
840.163	242.69
840.599	196.29
841.034	475.19
841.47	517.19
841.906	172.49
842.341	59.69
842.777	37.59
843.212	25.89
843.648	30.39
844.083	14.19
844.519	9.39
844.954	15.49
845.39	6.69
845.825	9.79
846.261	8.09
846.696	1.59
847.131	0.79
847.566	12.79
848.002	10.69
848.437	7.89
848.872	9.29
849.307	7.39
849.742	16.89
850.177	33.69
850.613	126.09
851.048	207.99
851.483	84.39
851.918	25.39
852.353	10.79
852.788	3.59
853.223	8.89
853.657	11.79
854.092	3.99
854.527	2.39
854.962	5.89
855.397	1.39
855.832	7.69
856.266	6.29
856.701	3.19
857.136	3.99
857.57	5.09
858.005	3.69
858.44	9.49
858.874	5.19
859.309	10.39
859.743	-4.71
860.178	5.19
860.612	0.59
861.047	9.09
861.481	3.89
861.915	5.59
862.35	3.69
862.784	-0.21
863.218	6.49
863.653	0.19
864.087	11.49
864.521	11.09
864.955	10.19
865.39	27.89
865.824	31.99
866.258	18.09
866.692	22.69
867.126	27.79
867.56	18.39
867.994	7.59
868.428	-5.31
868.862	3.79
869.296	7.39
869.73	11.59
870.164	2.99
870.598	-0.41
871.031	1.09
871.465	-0.81
871.899	3.09
872.333	0.09
872.766	-2.11
873.2	-3.51
873.634	4.49
874.067	-3.61
874.501	4.09
874.935	12.59
875.368	6.79
875.802	3.99
876.235	-4.81
876.669	-1.01
877.102	-2.61
877.535	1.99
877.969	-0.41
878.402	5.39
878.836	-3.11
879.269	-0.11
879.702	2.19
880.135	3.19
880.569	-1.81
881.002	2.29
881.435	-1.61
881.868	-1.71
882.301	2.89
882.734	-3.11
883.167	7.99
883.601	0.99
884.034	0.99
884.467	-5.61
884.899	-3.91
885.332	-4.11
885.765	-7.91
886.198	-4.01
886.631	-0.51
887.064	2.39
887.497	3.19
887.929	6.29
888.362	1.49
888.795	-4.11
889.228	1.19
889.66	-0.91
890.093	0.09
890.526	-0.01
890.958	-0.41
891.391	1.99
891.823	9.49
892.256	-1.11
892.688	-7.01
893.121	-0.01
893.553	1.89
893.985	7.59
894.418	3.89
894.85	-8.91
895.282	5.39
895.715	1.19
896.147	1.49
896.579	1.79
897.011	-4.51
897.444	0.39
897.876	4.59
898.308	-0.51
898.74	-5.71
899.172	-4.11
899.604	8.19
900.036	3.09
900.468	2.99
900.9	-1.01
901.332	2.09
901.764	-4.91
902.196	-2.91
902.628	1.29
903.06	-9.61
903.491	2.19
903.923	1.99
904.355	-2.71
904.787	-4.81
905.218	-0.01
905.65	2.39
906.082	-7.51
906.513	-0.01
906.945	-6.81
907.376	-3.11
907.808	-2.91
908.239	4.19
908.671	-4.31
909.102	0.59
909.534	-4.41
909.965	10.79
910.397	20.69
910.828	72.59
911.259	120.79
911.691	41.89
912.122	18.79
912.553	9.09
912.984	11.39
913.415	9.89
913.847	10.29
914.278	-4.51
914.709	-6.91
915.14	-0.41
915.571	1.29
916.002	-8.01
916.433	6.89
916.864	4.29
917.295	0.19
917.726	5.29
918.157	-2.61
918.587	8.79
919.018	-3.51
919.449	4.79
919.88	2.79
920.311	2.49
920.741	5.19
921.172	36.89
921.603	32.39
922.033	3.49
922.464	9.49
922.895	3.69
923.325	1.59
923.756	-1.61
924.186	-0.91
924.617	-2.31
925.047	-3.91
925.478	-4.21
925.908	-0.71
926.338	-4.81
926.769	3.59
927.199	1.49
927.629	-7.31
928.06	3.69
928.49	1.09
928.92	-0.01
929.35	1.59
929.78	2.99
930.21	-3.81
930.641	1.09
931.071	-2.61
931.501	-3.71
931.931	4.29
932.361	2.59
932.791	-5.61
933.221	0.19
933.651	-5.61
934.08	-3.21
934.51	11.59
934.94	-6.11
935.37	5.49
935.8	3.79
936.229	5.09
936.659	5.29
937.089	-5.61
937.519	-3.51
937.948	2.79
938.378	-0.61
938.807	-0.61
939.237	-4.41
939.666	0.99
940.096	-12.41
940.525	0.99
940.955	-1.91
941.384	-4.51
941.814	-6.41
942.243	2.79
942.672	-1.61
943.102	-10.01
943.531	-3.01
943.96	1.29
944.39	-1.81
944.819	-2.41
945.248	-4.11
945.677	3.39
946.106	4.69
946.535	2.59
946.964	-0.11
947.393	2.89
947.822	-3.71
948.251	-11.11
948.68	-3.01
949.109	1.39
949.538	2.79
949.967	-3.21
950.396	1.09
950.825	-6.41
951.254	-3.51
951.682	-6.91
952.111	0.09
952.54	7.79
952.969	-5.11
953.397	-11.61
953.826	-9.11
954.254	-11.11
954.683	-2.71
955.112	-7.81
955.54	-6.11
955.969	-4.21
956.397	-1.01
956.826	-6.91
957.254	0.59
957.682	0.79
958.111	7.99
958.539	2.09
958.967	-0.71
959.396	-3.61
959.824	-8.21
960.252	-2.61
960.68	-8.81
961.109	-5.01
961.537	-7.31
961.965	-2.01
962.393	-2.31
962.821	-1.81
963.249	-4.41
963.677	1.39
964.105	-7.81
964.533	3.09
964.961	4.19
965.389	3.99
965.817	-0.51
966.245	1.69
966.672	-4.61
967.1	-9.31
967.528	-5.41
967.956	-13.61
968.383	0.09
968.811	-4.41
969.239	-0.51
969.666	-4.31
970.094	-0.71
970.522	6.49
970.949	-4.31
971.377	-2.61
971.804	1.29
972.232	-4.01
972.659	-1.71
973.087	-4.31
973.514	-3.71
973.941	-8.51
974.369	-0.11
974.796	-0.61
975.223	-2.61
975.651	-6.01
976.078	0.09
976.505	-2.01
976.932	-3.11
977.359	4.29
977.786	5.09
978.214	-7.81
978.641	-10.71
979.068	-10.81
979.495	-1.61
979.922	-2.21
980.349	-2.81
980.776	0.99
981.202	1.29
981.629	3.59
982.056	2.79
982.483	-3.51
982.91	-5.31
983.337	-6.31
983.763	1.79
984.19	-2.81
984.617	-2.81
985.043	-7.51
985.47	-1.61
985.897	-6.71
986.323	-6.91
986.75	-2.31
987.176	-2.11
987.603	-3.91
988.029	-2.41
988.456	-2.21
988.882	5.39
989.308	-5.61
989.735	-4.31
990.161	1.49
990.587	-5.31
991.014	0.49
991.44	7.29
991.866	-3.11
992.292	-10.71
992.719	-3.61
993.145	7.79
993.571	-7.01
993.997	-9.51
994.423	-3.21
994.849	-5.51
995.275	-2.31
995.701	-1.31
996.127	-5.81
996.553	-0.01
996.979	-2.51
997.405	-6.61
997.83	1.89
998.256	-10.71
998.682	-4.31
999.108	-9.11
999.534	-9.21
999.959	-1.71
1000.385	-6.11
1000.811	-5.31
1001.236	-8.81
1001.662	-8.41
1002.087	-10.21
1002.513	2.29
1002.938	-1.11
1003.364	-4.01
1003.789	1.29
1004.215	6.69
1004.64	-2.31
1005.066	-5.11
1005.491	2.99
1005.916	-1.91
1006.342	-3.31
1006.767	-9.31
1007.192	-1.81
1007.617	-9.51
1008.042	-5.51
1008.468	-6.71
1008.893	-6.51
1009.318	-2.21
1009.743	-4.41
1010.168	-2.61
1010.593	-7.71
1011.018	-10.51
1011.443	-4.31
1011.868	-3.91
1012.293	-6.71
1012.718	-15.81
1013.143	0.59
1013.567	-0.91
1013.992	-4.91
1014.417	-14.91
1014.842	0.79
1015.267	-6.51
1015.691	-7.21
1016.116	2.09
1016.541	1.09
1016.965	6.99
1017.39	0.79
1017.814	1.19
1018.239	2.29
1018.663	-8.11
1019.088	-14.81
1019.512	-4.81
1019.937	-0.41
1020.361	-7.21
1020.785	-11.71
1021.21	-3.51
1021.634	0.69
1022.058	1.09
1022.483	0.59
1022.907	-3.21
1023.331	0.69
1023.755	-1.01
1024.179	-2.51
1024.604	-8.01
1025.028	-11.01
1025.452	-11.21
1025.876	-1.81
1026.3	2.29
1026.724	-6.11
1027.148	0.29
1027.572	-8.91
1027.996	-3.91
1028.42	1.09
1028.843	-5.11
1029.267	-1.31
1029.691	-1.61
1030.115	-5.81
1030.539	-3.31
1030.962	-2.71
1031.386	-8.81
1031.81	0.99
1032.233	0.69
1032.657	0.09
1033.08	-0.41
1033.504	-4.01
1033.927	-4.81
1034.351	3.99
1034.774	-1.41
1035.198	-1.61
1035.621	-11.51
1036.045	-6.81
1036.468	0.99
1036.891	-13.71
1037.315	-8.01
1037.738	-4.41
1038.161	-1.11
1038.584	-4.71
1039.008	-3.11
1039.431	-6.51
1039.854	-4.91
1040.277	-13.01
1040.7	-10.21
1041.123	0.79
1041.546	-5.31
1041.969	-0.41
1042.392	-2.91
1042.815	-4.11
1043.238	4.79
1043.661	-2.21
1044.084	-6.91
1044.507	0.19
1044.93	-6.61
1045.352	-6.11
1045.775	0.39
1046.198	-5.71
1046.621	-3.71
1047.043	1.59
1047.466	0.99
1047.889	-3.51
1048.311	-2.31
1048.734	-3.71
1049.156	-0.51
1049.579	3.59
1050.001	-3.11
1050.424	1.39
1050.846	-4.11
1051.269	0.89
1051.691	-4.51
1052.113	-2.51
1052.536	2.59
1052.958	-8.51
1053.38	-3.31
1053.802	-7.11
1054.225	1.39
1054.647	-10.51
1055.069	-7.51
1055.491	1.59
1055.913	-6.31
1056.335	-0.81
1056.757	-4.11
1057.179	-5.71
1057.601	-3.71
1058.023	-2.01
1058.445	-2.41
1058.867	-1.61
1059.289	1.49
1059.711	-6.21
1060.133	-0.31
1060.555	-3.21
1060.976	-2.31
1061.398	-2.31
1061.82	-3.61
1062.241	-3.91
1062.663	-7.91
1063.085	-1.51
1063.506	4.49
1063.928	-5.91
1064.35	-4.41
1064.771	-10.41
1065.193	2.19
1065.614	-10.51
1066.035	-6.21
1066.457	-4.71
1066.878	-0.11
1067.3	-7.61
1067.721	-4.71
1068.142	-3.21
1068.564	-1.71
1068.985	-5.71
1069.406	-4.51
1069.827	-2.11
1070.248	3.59
1070.67	-5.41
1071.091	-1.21
1071.512	0.29
1071.933	-2.21
1072.354	-5.71
1072.775	-6.31
1073.196	-7.91
1073.617	-4.81
1074.038	-9.61
1074.459	0.59
1074.88	-9.41
1075.3	1.39
1075.721	-5.91
1076.142	2.59
1076.563	4.89
1076.983	-5.11
1077.404	-2.31
1077.825	-5.61
1078.246	-4.11
1078.666	-3.71
1079.087	-9.01
1079.507	-5.51
1079.928	4.59
1080.348	-3.91
1080.769	-4.61
1081.189	-3.31
1081.61	-0.81
1082.03	-2.41
1082.451	-4.41
1082.871	-2.91
1083.291	-3.31
1083.711	-5.91
1084.132	-7.11
1084.552	0.59
1084.972	2.59
1085.392	-6.41
1085.813	-5.51
1086.233	3.59
1086.653	-3.31
1087.073	-2.11
1087.493	-8.91
1087.913	-9.21
1088.333	-3.01
1088.753	-8.41
1089.173	2.99
1089.593	1.89
1090.013	4.89
1090.433	4.49
1090.852	-0.51
1091.272	-6.81
1091.692	1.99
1092.112	-6.41
1092.531	-3.51
1092.951	-8.91
1093.371	-2.01
1093.79	2.29
1094.21	-5.21
1094.63	-5.71
1095.049	-1.31
1095.469	3.39
1095.888	3.09
1096.308	6.09
1096.727	4.39
1097.146	-1.41
1097.566	6.19
1097.985	-7.31
1098.405	-0.51
1098.824	-4.11
1099.243	-2.61
1099.662	-7.51
1100.082	-5.71
1100.501	3.79
1100.92	-5.71
1101.339	-4.11
1101.758	-4.31
