Data from 20171114-ORNL-Ar_H_NY_Subt18_08-03-52-235.txt Node
Date: Tue Nov 14 08:03:52 EST 2017
User: Ender
Spectrometer: HR+D1039
Trigger mode: 0
Integration Time (sec): 2.730000E-2
Scans to average: 10
Electric dark correction enabled: true
Nonlinearity correction enabled: false
Boxcar width: 0
XAxis mode: Wavelengths
Number of Pixels in Spectrum: 2048
>>>>>Begin Spectral Data<<<<<
187.836	-1.39
188.309	-1.39
188.782	-1.39
189.255	-4.39
189.728	0.21
190.201	2.31
190.674	2.01
191.147	2.71
191.619	-9.79
192.092	2.91
192.565	6.11
193.038	-2.29
193.511	-1.99
193.984	1.21
194.456	0.81
194.929	2.81
195.402	-5.49
195.874	4.21
196.347	1.61
196.82	-8.59
197.292	8.61
197.765	2.21
198.237	-6.09
198.71	0.51
199.182	-0.79
199.655	1.71
200.127	1.51
200.6	-1.29
201.072	-2.19
201.544	-3.29
202.017	-2.49
202.489	1.51
202.961	-2.29
203.433	-7.69
203.906	-7.49
204.378	-3.59
204.85	-5.39
205.322	-4.39
205.794	1.11
206.266	-0.99
206.739	-5.39
207.211	7.51
207.683	-4.59
208.155	-5.09
208.627	-9.39
209.099	-7.89
209.57	-9.29
210.042	-7.59
210.514	-4.79
210.986	-2.29
211.458	-13.79
211.93	-6.39
212.402	-1.89
212.873	-9.69
213.345	-12.29
213.817	-8.49
214.288	-3.79
214.76	-7.39
215.232	-7.89
215.703	-1.39
216.175	-5.09
216.646	-4.09
217.118	-4.99
217.589	-2.69
218.061	0.41
218.532	-3.69
219.004	-4.89
219.475	-0.79
219.946	-1.19
220.418	-10.09
220.889	-3.09
221.36	1.41
221.832	-6.09
222.303	-5.29
222.774	3.11
223.245	-9.89
223.717	-7.19
224.188	-2.29
224.659	-2.39
225.13	-5.19
225.601	-6.09
226.072	0.71
226.543	-0.19
227.014	2.01
227.485	-0.39
227.956	-2.69
228.427	-5.89
228.898	0.01
229.369	-0.19
229.839	-3.19
230.31	-5.89
230.781	7.81
231.252	-2.29
231.722	-6.39
232.193	-6.59
232.664	-0.49
233.135	0.21
233.605	1.41
234.076	-6.39
234.546	-1.69
235.017	1.21
235.487	0.61
235.958	-6.89
236.428	-4.09
236.899	-0.89
237.369	-2.89
237.84	-6.09
238.31	2.41
238.78	-4.09
239.251	-10.59
239.721	-2.39
240.191	-4.29
240.662	-5.19
241.132	-5.69
241.602	-4.19
242.072	-2.69
242.542	5.61
243.013	-3.59
243.483	0.01
243.953	0.31
244.423	-4.69
244.893	1.21
245.363	-4.49
245.833	2.21
246.303	-5.99
246.773	0.41
247.243	-6.09
247.712	-3.59
248.182	-0.29
248.652	1.51
249.122	-8.19
249.592	-3.19
250.061	3.11
250.531	4.71
251.001	1.11
251.471	0.01
251.94	3.51
252.41	-6.29
252.879	-3.19
253.349	3.81
253.818	5.41
254.288	-5.29
254.757	-2.59
255.227	-3.29
255.696	3.91
256.166	0.61
256.635	4.41
257.105	1.01
257.574	-2.69
258.043	1.91
258.513	-6.59
258.982	1.41
259.451	-7.89
259.92	-5.09
260.389	-0.29
260.859	2.11
261.328	-0.59
261.797	-3.79
262.266	0.91
262.735	6.21
263.204	0.51
263.673	-4.19
264.142	3.11
264.611	-5.79
265.08	-7.29
265.549	-6.39
266.018	0.71
266.487	-0.29
266.955	-4.89
267.424	-6.29
267.893	2.11
268.362	-4.99
268.83	0.91
269.299	5.11
269.768	3.71
270.236	3.01
270.705	-1.19
271.174	-0.79
271.642	-0.79
272.111	-0.09
272.579	3.81
273.048	3.01
273.516	-3.49
273.985	-5.19
274.453	5.31
274.922	10.51
275.39	10.01
275.858	1.41
276.327	4.01
276.795	9.51
277.263	-1.29
277.731	11.11
278.2	2.21
278.668	4.01
279.136	1.01
279.604	-0.39
280.072	7.51
280.54	7.11
281.008	1.91
281.477	7.11
281.945	8.01
282.413	1.81
282.881	6.81
283.348	5.51
283.816	5.31
284.284	7.11
284.752	11.91
285.22	5.71
285.688	9.11
286.156	6.61
286.623	13.01
287.091	0.61
287.559	10.21
288.026	8.91
288.494	6.01
288.962	-1.69
289.429	4.41
289.897	9.31
290.364	5.41
290.832	13.51
291.3	6.81
291.767	15.41
292.234	12.11
292.702	6.41
293.169	7.61
293.637	13.31
294.104	13.41
294.571	-3.59
295.039	-0.59
295.506	8.41
295.973	12.01
296.44	6.41
296.908	12.11
297.375	8.81
297.842	6.71
298.309	4.51
298.776	5.71
299.243	11.81
299.71	5.41
300.177	14.21
300.644	9.51
301.111	11.81
301.578	10.91
302.045	9.61
302.512	14.01
302.979	14.81
303.446	14.31
303.913	9.81
304.379	8.51
304.846	15.21
305.313	16.61
305.78	10.81
306.246	14.51
306.713	16.21
307.18	17.81
307.646	13.41
308.113	20.91
308.579	18.81
309.046	23.41
309.512	22.51
309.979	9.61
310.445	15.01
310.912	17.11
311.378	22.41
311.845	17.51
312.311	20.71
312.777	21.71
313.244	23.11
313.71	28.11
314.176	20.31
314.642	21.01
315.109	21.31
315.575	24.61
316.041	24.51
316.507	26.31
316.973	20.81
317.439	27.51
317.905	31.01
318.371	25.31
318.837	21.51
319.303	22.21
319.769	19.91
320.235	25.31
320.701	31.11
321.167	26.31
321.633	19.31
322.099	22.11
322.564	29.51
323.03	31.71
323.496	28.31
323.962	29.41
324.427	22.41
324.893	31.41
325.359	30.91
325.824	34.41
326.29	28.71
326.755	29.51
327.221	32.41
327.686	25.31
328.152	35.11
328.617	32.61
329.083	39.51
329.548	41.11
330.014	37.31
330.479	23.01
330.944	37.41
331.41	32.21
331.875	31.31
332.34	36.91
332.805	29.61
333.271	32.61
333.736	28.71
334.201	41.81
334.666	42.31
335.131	42.11
335.596	43.81
336.061	40.01
336.526	24.71
336.991	36.41
337.456	51.71
337.921	38.41
338.386	36.91
338.851	42.71
339.316	44.91
339.781	41.61
340.246	41.31
340.711	32.91
341.175	44.61
341.64	32.01
342.105	37.21
342.569	44.81
343.034	43.01
343.499	45.41
343.963	39.21
344.428	49.11
344.893	51.21
345.357	52.11
345.822	50.51
346.286	52.11
346.751	54.41
347.215	57.31
347.679	56.11
348.144	73.81
348.608	59.51
349.073	61.01
349.537	57.41
350.001	65.41
350.465	68.51
350.93	63.81
351.394	70.61
351.858	62.51
352.322	71.51
352.786	69.01
353.25	82.21
353.715	90.51
354.179	85.81
354.643	96.01
355.107	94.21
355.571	85.81
356.035	83.41
356.498	91.11
356.962	88.11
357.426	98.51
357.89	90.11
358.354	76.61
358.818	73.01
359.281	72.61
359.745	64.21
360.209	69.81
360.673	69.11
361.136	72.21
361.6	74.21
362.064	78.51
362.527	78.21
362.991	84.11
363.454	77.51
363.918	69.61
364.381	71.81
364.845	75.11
365.308	80.91
365.772	82.01
366.235	77.11
366.698	70.21
367.162	80.81
367.625	71.01
368.088	75.41
368.552	81.81
369.015	76.11
369.478	80.01
369.941	88.51
370.404	80.71
370.867	84.61
371.331	87.51
371.794	97.21
372.257	88.31
372.72	100.41
373.183	99.21
373.646	84.91
374.109	85.51
374.572	97.01
375.035	95.51
375.497	90.01
375.96	95.51
376.423	97.01
376.886	103.41
377.349	98.81
377.811	96.21
378.274	95.21
378.737	103.81
379.199	102.01
379.662	100.71
380.125	104.91
380.587	101.31
381.05	101.81
381.512	108.71
381.975	120.01
382.437	112.41
382.9	104.31
383.362	114.31
383.825	113.91
384.287	123.01
384.75	106.51
385.212	116.61
385.674	122.51
386.136	128.41
386.599	114.41
387.061	120.11
387.523	110.51
387.985	122.21
388.447	129.21
388.91	119.61
389.372	127.91
389.834	115.41
390.296	116.31
390.758	120.61
391.22	130.01
391.682	132.51
392.144	136.21
392.606	136.51
393.068	133.51
393.529	147.01
393.991	138.21
394.453	130.41
394.915	134.81
395.377	129.01
395.838	128.11
396.3	129.81
396.762	130.31
397.224	124.71
397.685	130.51
398.147	130.91
398.608	125.91
399.07	125.31
399.531	128.21
399.993	144.01
400.454	150.21
400.916	144.81
401.377	138.11
401.839	152.61
402.3	148.51
402.762	161.71
403.223	170.01
403.684	171.41
404.145	160.81
404.607	155.01
405.068	152.31
405.529	161.41
405.99	169.01
406.451	163.21
406.913	164.71
407.374	156.01
407.835	155.51
408.296	164.21
408.757	159.71
409.218	179.71
409.679	166.51
410.14	173.41
410.601	172.91
411.062	178.41
411.522	178.51
411.983	179.01
412.444	168.01
412.905	180.21
413.366	181.81
413.826	190.71
414.287	213.41
414.748	266.81
415.208	257.01
415.669	217.61
416.13	208.71
416.59	200.21
417.051	217.41
417.511	216.31
417.972	234.11
418.432	251.11
418.893	290.41
419.353	256.91
419.814	202.71
420.274	186.41
420.734	183.01
421.195	196.71
421.655	188.31
422.115	188.31
422.576	192.31
423.036	200.01
423.496	202.11
423.956	216.61
424.416	226.71
424.876	253.81
425.336	252.31
425.797	256.81
426.257	250.01
426.717	234.31
427.177	223.61
427.637	219.41
428.097	224.61
428.556	233.81
429.016	256.01
429.476	248.51
429.936	257.61
430.396	266.61
430.856	270.31
431.315	286.61
431.775	319.01
432.235	347.11
432.694	333.11
433.154	332.01
433.614	345.11
434.073	314.21
434.533	269.51
434.993	253.91
435.452	256.11
435.912	274.31
436.371	259.31
436.83	258.21
437.29	249.01
437.749	235.81
438.209	232.01
438.668	251.61
439.127	261.31
439.587	244.61
440.046	233.81
440.505	238.61
440.964	248.51
441.424	283.31
441.883	281.81
442.342	248.31
442.801	224.81
443.26	213.61
443.719	217.11
444.178	222.61
444.637	204.31
445.096	217.71
445.555	214.01
446.014	222.31
446.473	224.91
446.932	224.11
447.391	220.21
447.849	218.61
448.308	221.21
448.767	218.61
449.226	239.81
449.685	242.41
450.143	242.21
450.602	230.11
451.061	215.91
451.519	222.51
451.978	221.01
452.436	222.71
452.895	230.61
453.353	239.31
453.812	237.11
454.27	231.81
454.729	229.61
455.187	235.71
455.646	236.01
456.104	233.41
456.562	245.31
457.021	248.11
457.479	243.01
457.937	254.71
458.395	247.91
458.854	240.21
459.312	243.31
459.77	252.81
460.228	245.91
460.686	232.11
461.144	247.11
461.602	241.61
462.06	237.91
462.518	242.11
462.976	246.11
463.434	245.31
463.892	249.41
464.35	262.01
464.808	266.71
465.266	262.01
465.724	260.11
466.181	262.61
466.639	260.01
467.097	274.91
467.555	284.21
468.012	290.21
468.47	295.61
468.928	306.11
469.385	319.61
469.843	330.61
470.3	326.01
470.758	336.91
471.215	346.31
471.673	364.91
472.13	368.91
472.588	388.21
473.045	349.41
473.503	363.21
473.96	380.91
474.417	374.31
474.875	402.11
475.332	438.31
475.789	429.01
476.246	434.71
476.704	448.01
477.161	463.81
477.618	477.21
478.075	514.71
478.532	551.51
478.989	611.61
479.446	683.51
479.903	671.11
480.36	711.11
480.817	747.21
481.274	831.51
481.731	918.01
482.188	997.51
482.645	1092.21
483.102	1185.91
483.558	1286.71
484.015	1317.61
484.472	1325.21
484.929	1274.01
485.385	1240.21
485.842	1213.21
486.299	1176.31
486.755	1107.01
487.212	954.61
487.668	831.61
488.125	774.71
488.582	717.71
489.038	672.41
489.494	637.11
489.951	622.01
490.407	605.91
490.864	585.91
491.32	580.61
491.776	577.91
492.233	582.51
492.689	556.21
493.145	557.01
493.602	548.51
494.058	565.91
494.514	558.01
494.97	572.81
495.426	572.41
495.882	563.51
496.338	552.21
496.794	563.51
497.251	554.21
497.707	574.21
498.163	571.01
498.618	567.71
499.074	578.11
499.53	599.01
499.986	590.11
500.442	577.61
500.898	555.11
501.354	552.11
501.809	563.81
502.265	566.81
502.721	572.61
503.177	578.11
503.632	578.61
504.088	592.41
504.543	586.21
504.999	602.61
505.455	590.11
505.91	572.01
506.366	575.61
506.821	578.61
507.277	574.11
507.732	571.81
508.187	570.31
508.643	576.01
509.098	582.21
509.553	593.91
510.009	599.41
510.464	594.51
510.919	614.31
511.375	623.71
511.83	626.61
512.285	631.51
512.74	672.81
513.195	692.21
513.65	676.11
514.105	686.51
514.56	681.51
515.015	686.71
515.47	710.41
515.925	695.01
516.38	689.71
516.835	708.71
517.29	680.51
517.745	694.41
518.2	684.01
518.655	678.41
519.109	659.31
519.564	656.31
520.019	644.01
520.474	640.51
520.928	636.61
521.383	635.01
521.838	621.81
522.292	621.91
522.747	629.21
523.201	628.31
523.656	617.01
524.11	617.41
524.565	622.41
525.019	605.41
525.474	616.91
525.928	602.11
526.382	613.71
526.837	616.41
527.291	606.81
527.745	597.71
528.2	605.51
528.654	595.81
529.108	598.21
529.562	595.21
530.016	593.31
530.47	604.61
530.925	603.51
531.379	600.91
531.833	598.91
532.287	597.31
532.741	602.81
533.195	589.91
533.649	609.41
534.103	619.31
534.556	604.21
535.01	597.91
535.464	598.61
535.918	589.01
536.372	605.91
536.826	603.11
537.279	597.21
537.733	607.01
538.187	608.71
538.64	603.81
539.094	616.71
539.548	615.41
540.001	605.31
540.455	619.41
540.908	618.71
541.362	624.01
541.815	640.21
542.269	630.91
542.722	646.51
543.175	651.51
543.629	656.21
544.082	674.21
544.536	667.31
544.989	669.61
545.442	673.31
545.895	663.81
546.349	671.21
546.802	666.91
547.255	669.91
547.708	668.41
548.161	679.51
548.614	683.31
549.067	692.41
549.52	680.71
549.973	680.71
550.426	670.71
550.879	668.41
551.332	664.61
551.785	675.31
552.238	668.61
552.691	690.41
553.144	689.71
553.596	695.01
554.049	715.71
554.502	746.71
554.955	752.11
555.407	748.31
555.86	739.41
556.313	733.21
556.765	723.71
557.218	724.41
557.67	718.71
558.123	720.51
558.576	717.51
559.028	724.81
559.48	726.01
559.933	719.21
560.385	698.51
560.838	665.31
561.29	638.71
561.742	645.11
562.195	619.61
562.647	624.11
563.099	628.81
563.551	628.01
564.004	643.11
564.456	634.41
564.908	608.31
565.36	605.51
565.812	589.61
566.264	576.31
566.716	577.41
567.168	573.61
567.62	571.81
568.072	562.21
568.524	553.11
568.976	556.91
569.428	546.31
569.88	548.51
570.332	546.81
570.784	550.21
571.235	547.61
571.687	562.81
572.139	565.91
572.59	576.81
573.042	567.51
573.494	566.71
573.945	565.11
574.397	546.41
574.849	551.51
575.3	542.31
575.752	539.51
576.203	533.91
576.655	539.91
577.106	527.51
577.557	532.91
578.009	533.41
578.46	523.51
578.912	521.81
579.363	519.01
579.814	525.61
580.265	514.61
580.717	524.91
581.168	515.61
581.619	524.71
582.07	533.31
582.521	527.91
582.972	518.01
583.423	529.01
583.875	523.31
584.326	530.91
584.777	544.01
585.227	558.01
585.678	571.21
586.129	580.11
586.58	610.21
587.031	616.11
587.482	664.41
587.933	683.31
588.384	667.41
588.834	622.81
589.285	614.01
589.736	601.71
590.186	598.11
590.637	594.71
591.088	574.21
591.538	567.01
591.989	566.01
592.439	560.01
592.89	546.51
593.34	548.61
593.791	540.41
594.241	533.51
594.692	537.91
595.142	532.31
595.593	528.71
596.043	532.61
596.493	542.81
596.943	533.41
597.394	547.31
597.844	553.31
598.294	560.81
598.744	576.41
599.195	587.51
599.645	617.81
600.095	641.21
600.545	691.01
600.995	724.31
601.445	764.91
601.895	809.21
602.345	857.91
602.795	854.01
603.245	813.11
603.695	770.51
604.145	725.31
604.594	694.31
605.044	645.61
605.494	603.21
605.944	572.31
606.393	559.61
606.843	536.31
607.293	552.11
607.743	538.31
608.192	549.91
608.642	560.61
609.091	557.61
609.541	568.71
609.99	569.31
610.44	562.61
610.889	526.41
611.339	505.71
611.788	502.71
612.238	509.41
612.687	528.71
613.136	518.41
613.586	535.31
614.035	522.91
614.484	522.01
614.933	525.21
615.383	526.61
615.832	524.61
616.281	508.61
616.73	490.91
617.179	490.21
617.628	479.51
618.077	470.61
618.526	455.31
618.975	456.41
619.424	448.41
619.873	447.31
620.322	454.41
620.771	445.61
621.22	444.51
621.669	436.01
622.118	429.01
622.567	421.51
623.015	416.11
623.464	424.21
623.913	411.41
624.361	401.51
624.81	406.81
625.259	399.31
625.707	407.91
626.156	407.61
626.604	411.51
627.053	416.81
627.501	409.51
627.95	414.41
628.398	428.31
628.847	399.31
629.295	416.41
629.744	409.11
630.192	421.41
630.64	411.91
631.089	394.71
631.537	390.41
631.985	384.81
632.433	391.21
632.881	388.31
633.33	382.01
633.778	370.21
634.226	369.71
634.674	379.01
635.122	391.81
635.57	396.91
636.018	406.71
636.466	412.31
636.914	397.21
637.362	412.11
637.81	418.31
638.258	412.91
638.705	412.61
639.153	439.21
639.601	450.31
640.049	454.41
640.497	491.01
640.944	504.51
641.392	465.61
641.84	446.41
642.287	423.51
642.735	404.81
643.182	412.21
643.63	405.21
644.078	398.21
644.525	409.71
644.973	415.91
645.42	425.11
645.867	441.01
646.315	454.31
646.762	458.61
647.21	477.51
647.657	505.91
648.104	524.01
648.551	529.11
648.999	562.71
649.446	621.71
649.893	676.41
650.34	761.11
650.787	893.81
651.234	1105.11
651.682	1411.51
652.129	1887.71
652.576	2662.71
653.023	3881.21
653.47	5386.61
653.917	6819.41
654.363	7980.01
654.81	9076.01
655.257	8606.41
655.704	5694.71
656.151	3375.51
656.598	2206.81
657.044	1574.41
657.491	1227.01
657.938	984.61
658.385	816.91
658.831	720.91
659.278	650.01
659.724	580.61
660.171	527.31
660.618	488.51
661.064	461.61
661.511	447.31
661.957	425.11
662.404	432.91
662.85	435.61
663.296	417.01
663.743	388.71
664.189	382.31
664.635	373.21
665.082	367.61
665.528	362.51
665.974	365.31
666.42	352.41
666.867	348.21
667.313	331.01
667.759	323.31
668.205	318.61
668.651	316.61
669.097	312.51
669.543	306.81
669.989	308.21
670.435	321.01
670.881	314.71
671.327	314.31
671.773	330.61
672.219	353.31
672.665	389.41
673.11	406.61
673.556	450.21
674.002	478.71
674.448	462.41
674.893	394.51
675.339	337.81
675.785	308.91
676.23	297.91
676.676	276.01
677.122	266.91
677.567	258.51
678.013	252.61
678.458	251.81
678.904	247.41
679.349	238.61
679.794	255.01
680.24	241.51
680.685	245.51
681.131	239.51
681.576	238.81
682.021	247.91
682.466	243.21
682.912	238.61
683.357	240.61
683.802	263.11
684.247	287.21
684.692	310.61
685.137	333.41
685.583	372.81
686.028	398.51
686.473	366.31
686.918	313.01
687.363	282.41
687.807	280.31
688.252	252.01
688.697	247.81
689.142	235.31
689.587	222.91
690.032	221.41
690.477	231.21
690.921	239.31
691.366	261.61
691.811	280.71
692.255	297.71
692.7	326.81
693.145	341.81
693.589	468.41
694.034	758.21
694.478	1065.61
694.923	1253.51
695.367	1677.51
695.812	882.21
696.256	351.41
696.701	257.71
697.145	240.51
697.59	229.61
698.034	224.01
698.478	228.51
698.922	225.01
699.367	219.91
699.811	228.01
700.255	236.81
700.699	263.91
701.143	286.41
701.588	328.41
702.032	360.51
702.476	351.61
702.92	346.71
703.364	336.21
703.808	423.71
704.252	695.41
704.696	1006.61
705.14	1207.01
705.584	1558.51
706.027	767.31
706.471	369.21
706.915	284.91
707.359	244.01
707.803	222.81
708.246	217.01
708.69	218.11
709.134	220.91
709.577	216.31
710.021	220.51
710.465	211.11
710.908	209.11
711.352	202.61
711.795	207.31
712.239	241.51
712.682	261.21
713.126	285.31
713.569	321.51
714.012	252.01
714.456	208.61
714.899	206.81
715.342	196.91
715.786	175.71
716.229	176.51
716.672	188.11
717.115	169.01
717.558	173.51
718.002	174.71
718.445	188.11
718.888	201.51
719.331	199.61
719.774	216.31
720.217	210.21
720.66	201.21
721.103	184.61
721.546	181.31
721.989	165.81
722.432	159.41
722.874	163.01
723.317	151.31
723.76	155.11
724.203	176.51
724.645	205.01
725.088	302.11
725.531	394.81
725.974	459.61
726.416	392.51
726.859	208.21
727.301	162.01
727.744	166.91
728.187	156.41
728.629	165.61
729.071	169.51
729.514	184.41
729.956	184.01
730.399	194.31
730.841	203.21
731.283	193.91
731.726	185.41
732.168	169.81
732.61	177.51
733.053	198.21
733.495	212.31
733.937	244.21
734.379	275.81
734.821	296.31
735.263	375.21
735.705	558.71
736.148	1047.81
736.59	1792.61
737.032	2229.21
737.474	1831.31
737.916	576.91
738.357	305.51
738.799	231.51
739.241	210.21
739.683	194.71
740.125	201.61
740.567	208.21
741.008	221.21
741.45	221.31
741.892	218.91
742.334	253.51
742.775	258.91
743.217	249.71
743.658	195.21
744.1	178.11
744.542	175.71
744.983	223.51
745.425	264.21
745.866	254.21
746.307	196.71
746.749	192.01
747.19	218.41
747.632	298.81
748.073	580.21
748.514	1242.61
748.956	2000.01
749.397	2535.01
749.838	2110.01
750.279	2177.61
750.72	1094.71
751.162	389.61
751.603	220.61
752.044	174.31
752.485	152.71
752.926	141.01
753.367	135.91
753.808	128.21
754.249	129.31
754.69	121.91
755.131	122.91
755.572	128.01
756.013	119.51
756.453	127.01
756.894	128.01
757.335	125.91
757.776	126.71
758.216	129.61
758.657	140.81
759.098	141.21
759.538	155.51
759.979	187.21
760.42	251.11
760.86	469.11
761.301	1211.31
761.741	3072.41
762.182	4859.21
762.622	3462.41
763.063	970.41
763.503	385.21
763.943	234.91
764.384	197.71
764.824	181.41
765.264	175.21
765.705	143.61
766.145	128.21
766.585	122.31
767.025	118.81
767.465	111.51
767.906	126.01
768.346	139.11
768.786	143.81
769.226	143.21
769.666	204.41
770.106	404.51
770.546	1022.91
770.986	1904.71
771.426	1765.81
771.866	576.41
772.306	220.21
772.745	143.91
773.185	107.11
773.625	107.71
774.065	104.51
774.505	109.81
774.944	151.41
775.384	258.71
775.824	459.71
776.263	460.01
776.703	213.11
777.142	111.91
777.582	90.61
778.021	90.71
778.461	80.91
778.9	87.71
779.34	78.31
779.779	75.91
780.219	71.61
780.658	75.91
781.097	75.61
781.537	72.91
781.976	65.01
782.415	68.11
782.855	71.51
783.294	66.71
783.733	81.91
784.172	66.91
784.611	67.21
785.05	67.51
785.489	73.41
785.928	75.31
786.367	87.71
786.806	78.21
787.245	82.11
787.684	86.21
788.123	102.41
788.562	97.11
789.001	84.81
789.44	82.61
789.879	83.51
790.317	77.41
790.756	89.11
791.195	92.61
791.634	103.61
792.072	135.01
792.511	241.11
792.95	662.51
793.388	1526.41
793.827	1442.21
794.265	479.71
794.704	196.01
795.142	129.51
795.581	102.01
796.019	94.31
796.458	89.21
796.896	83.81
797.334	86.41
797.773	102.51
798.211	145.81
798.649	289.11
799.087	703.41
799.526	1140.71
799.964	1412.71
800.402	1521.71
800.84	556.11
801.278	215.31
801.716	122.91
802.154	106.61
802.592	102.51
803.03	99.31
803.468	84.61
803.906	98.81
804.344	101.91
804.782	95.11
805.22	92.11
805.658	85.21
806.096	100.61
806.533	106.81
806.971	122.51
807.409	148.61
807.847	214.11
808.284	442.41
808.722	1280.51
809.16	2419.11
809.597	2226.91
810.035	3969.91
810.472	4502.31
810.91	1606.31
811.347	594.01
811.785	293.01
812.222	191.31
812.66	143.51
813.097	114.71
813.535	99.11
813.972	98.01
814.409	80.11
814.846	73.21
815.284	78.21
815.721	72.31
816.158	68.01
816.595	75.81
817.032	109.81
817.47	142.01
817.907	110.51
818.344	69.41
818.781	61.11
819.218	67.61
819.655	86.51
820.092	137.01
820.529	167.71
820.966	128.21
821.403	92.31
821.839	69.21
822.276	62.61
822.713	90.71
823.15	102.31
823.587	77.81
824.023	101.11
824.46	196.91
824.897	615.51
825.333	1011.91
825.77	433.61
826.206	168.11
826.643	93.11
827.08	73.71
827.516	56.81
827.953	52.91
828.389	52.61
828.825	45.51
829.262	38.51
829.698	40.81
830.135	38.21
830.571	45.71
831.007	40.61
831.443	40.01
831.88	37.91
832.316	40.41
832.752	45.31
833.188	46.81
833.624	42.41
834.06	46.51
834.497	50.01
834.933	41.91
835.369	45.61
835.805	42.61
836.241	58.41
836.677	55.41
837.112	58.01
837.548	64.61
837.984	90.51
838.42	129.81
838.856	334.51
839.292	1073.31
839.727	1738.71
840.163	794.41
840.599	644.41
841.034	1473.51
841.47	1646.81
841.906	576.91
842.341	236.01
842.777	139.81
843.212	143.71
843.648	142.31
844.083	83.01
844.519	59.11
844.954	50.01
845.39	42.81
845.825	38.21
846.261	41.31
846.696	32.21
847.131	31.11
847.566	41.61
848.002	35.01
848.437	40.31
848.872	42.41
849.307	41.71
849.742	53.91
850.177	119.61
850.613	385.21
851.048	640.31
851.483	279.61
851.918	100.81
852.353	55.91
852.788	32.51
853.223	29.31
853.657	33.41
854.092	33.51
854.527	28.71
854.962	27.51
855.397	29.11
855.832	29.81
856.266	28.81
856.701	31.61
857.136	22.11
857.57	29.81
858.005	34.41
858.44	47.31
858.874	26.81
859.309	31.71
859.743	25.61
860.178	32.71
860.612	26.61
861.047	40.61
861.481	49.31
861.915	58.71
862.35	38.71
862.784	24.11
863.218	30.71
863.653	25.11
864.087	24.91
864.521	35.41
864.955	42.71
865.39	110.41
865.824	123.81
866.258	76.01
866.692	130.71
867.126	156.21
867.56	87.91
867.994	38.21
868.428	31.71
868.862	28.91
869.296	46.61
869.73	43.51
870.164	40.51
870.598	33.71
871.031	24.11
871.465	21.11
871.899	23.81
872.333	12.21
872.766	23.21
873.2	20.71
873.634	18.81
874.067	13.91
874.501	16.31
874.935	25.51
875.368	17.01
875.802	17.31
876.235	19.41
876.669	22.21
877.102	13.71
877.535	18.91
877.969	19.81
878.402	20.01
878.836	11.21
879.269	14.01
879.702	16.71
880.135	11.61
880.569	17.01
881.002	19.01
881.435	14.81
881.868	7.91
882.301	19.01
882.734	9.91
883.167	16.51
883.601	8.11
884.034	15.41
884.467	9.61
884.899	6.31
885.332	12.91
885.765	4.41
886.198	12.11
886.631	11.81
887.064	10.21
887.497	10.61
887.929	15.41
888.362	7.31
888.795	7.91
889.228	12.31
889.66	12.51
890.093	11.01
890.526	13.21
890.958	8.81
891.391	12.71
891.823	15.21
892.256	9.91
892.688	4.91
893.121	6.41
893.553	8.61
893.985	15.01
894.418	15.51
894.85	6.91
895.282	8.51
895.715	14.61
896.147	7.71
896.579	7.11
897.011	3.91
897.444	12.31
897.876	2.61
898.308	6.51
898.74	9.71
899.172	7.71
899.604	15.71
900.036	16.21
900.468	13.61
900.9	5.91
901.332	9.61
901.764	10.71
902.196	9.11
902.628	15.71
903.06	14.21
903.491	17.51
903.923	12.61
904.355	18.21
904.787	19.01
905.218	14.01
905.65	12.91
906.082	8.31
906.513	3.61
906.945	7.61
907.376	5.71
907.808	15.01
908.239	16.31
908.671	12.81
909.102	12.51
909.534	7.31
909.965	31.01
910.397	62.71
910.828	226.71
911.259	360.61
911.691	159.71
912.122	79.81
912.553	35.11
912.984	24.61
913.415	21.61
913.847	11.71
914.278	3.61
914.709	9.41
915.14	13.01
915.571	9.61
916.002	6.51
916.433	13.81
916.864	11.11
917.295	8.01
917.726	11.01
918.157	8.41
918.587	17.21
919.018	17.41
919.449	14.21
919.88	15.31
920.311	22.71
920.741	27.61
921.172	117.61
921.603	111.01
922.033	44.21
922.464	31.51
922.895	11.61
923.325	12.81
923.756	5.91
924.186	6.61
924.617	15.71
925.047	7.01
925.478	16.21
925.908	19.91
926.338	7.81
926.769	10.81
927.199	9.51
927.629	4.81
928.06	8.01
928.49	12.11
928.92	10.81
929.35	5.91
929.78	6.41
930.21	1.71
930.641	3.81
931.071	5.41
931.501	0.31
931.931	1.31
932.361	9.21
932.791	4.41
933.221	2.51
933.651	0.01
934.08	8.01
934.51	23.01
934.94	2.91
935.37	6.71
935.8	1.41
936.229	3.81
936.659	5.41
937.089	-1.29
937.519	8.41
937.948	13.61
938.378	10.31
938.807	3.51
939.237	5.11
939.666	2.71
940.096	-9.29
940.525	-1.39
940.955	2.01
941.384	0.11
941.814	-5.69
942.243	0.01
942.672	0.71
943.102	-4.39
943.531	0.41
943.96	4.81
944.39	1.91
944.819	-0.89
945.248	-0.89
945.677	-2.29
946.106	3.41
946.535	3.91
946.964	0.41
947.393	8.81
947.822	-3.09
948.251	-5.49
948.68	5.51
949.109	6.71
949.538	3.51
949.967	-3.69
950.396	4.91
950.825	-3.59
951.254	0.51
951.682	-4.49
952.111	2.81
952.54	4.31
952.969	-10.89
953.397	-2.79
953.826	0.11
954.254	-5.89
954.683	1.31
955.112	0.31
955.54	1.31
955.969	-3.79
956.397	-0.09
956.826	0.41
957.254	4.21
957.682	0.21
958.111	2.21
958.539	2.71
958.967	5.91
959.396	0.41
959.824	7.01
960.252	-0.39
960.68	-7.29
961.109	-3.09
961.537	-10.09
961.965	-0.29
962.393	4.11
962.821	-10.09
963.249	-3.99
963.677	7.61
964.105	-3.99
964.533	33.61
964.961	27.11
965.389	12.31
965.817	5.31
966.245	0.01
966.672	2.71
967.1	-7.19
967.528	-0.29
967.956	-2.59
968.383	1.61
968.811	-5.19
969.239	-2.39
969.666	-5.69
970.094	-2.79
970.522	0.11
970.949	1.21
971.377	-6.49
971.804	-2.09
972.232	-2.69
972.659	-3.19
973.087	-2.19
973.514	-0.69
973.941	-5.79
974.369	5.61
974.796	3.01
975.223	-0.99
975.651	0.81
976.078	-0.89
976.505	-2.49
976.932	2.71
977.359	10.81
977.786	11.01
978.214	1.31
978.641	-1.19
979.068	-5.39
979.495	-4.89
979.922	1.21
980.349	-3.89
980.776	0.51
981.202	0.61
981.629	3.01
982.056	4.51
982.483	-6.09
982.91	-0.69
983.337	-3.09
983.763	1.81
984.19	-2.89
984.617	-5.79
985.043	-10.39
985.47	-2.49
985.897	1.51
986.323	-3.99
986.75	-1.19
987.176	1.31
987.603	-4.99
988.029	-1.79
988.456	2.51
988.882	4.61
989.308	-2.19
989.735	-2.19
990.161	-0.09
990.587	-4.89
991.014	5.41
991.44	2.51
991.866	-3.69
992.292	-4.19
992.719	1.51
993.145	3.31
993.571	-10.19
993.997	1.01
994.423	-3.29
994.849	-4.79
995.275	-1.79
995.701	0.31
996.127	-6.19
996.553	2.31
996.979	-3.89
997.405	-4.59
997.83	-4.89
998.256	-2.59
998.682	-4.69
999.108	-14.19
999.534	-2.29
999.959	-2.39
1000.385	-0.59
1000.811	1.51
1001.236	-8.79
1001.662	-7.49
1002.087	-11.79
1002.513	-2.69
1002.938	0.01
1003.364	-7.39
1003.789	-2.39
1004.215	3.21
1004.64	0.81
1005.066	5.01
1005.491	2.31
1005.916	-0.69
1006.342	-6.69
1006.767	-7.19
1007.192	11.51
1007.617	-2.69
1008.042	-1.69
1008.468	-6.99
1008.893	-0.49
1009.318	2.11
1009.743	-2.99
1010.168	3.41
1010.593	0.81
1011.018	-5.09
1011.443	-5.69
1011.868	-1.79
1012.293	-2.69
1012.718	-9.99
1013.143	1.81
1013.567	0.61
1013.992	-2.99
1014.417	-12.99
1014.842	2.51
1015.267	-4.19
1015.691	-0.99
1016.116	-0.29
1016.541	-5.29
1016.965	-1.39
1017.39	3.61
1017.814	1.91
1018.239	-8.99
1018.663	-8.89
1019.088	-12.09
1019.512	-3.69
1019.937	-2.79
1020.361	-2.09
1020.785	-6.19
1021.21	-4.59
1021.634	-7.19
1022.058	1.11
1022.483	2.81
1022.907	-9.89
1023.331	-5.49
1023.755	-3.29
1024.179	-7.59
1024.604	-5.79
1025.028	-3.49
1025.452	-2.59
1025.876	-4.49
1026.3	-0.89
1026.724	-7.59
1027.148	-5.69
1027.572	-13.09
1027.996	-3.19
1028.42	2.71
1028.843	-0.59
1029.267	-5.09
1029.691	-2.89
1030.115	-4.99
1030.539	-3.49
1030.962	-10.59
1031.386	-13.19
1031.81	-1.59
1032.233	-0.09
1032.657	-3.59
1033.08	0.61
1033.504	-1.49
1033.927	-0.99
1034.351	-3.79
1034.774	-8.79
1035.198	-3.19
1035.621	-4.49
1036.045	-3.89
1036.468	0.91
1036.891	-5.69
1037.315	-6.79
1037.738	-8.19
1038.161	-2.99
1038.584	-5.49
1039.008	-0.89
1039.431	-4.99
1039.854	-5.19
1040.277	-9.29
1040.7	-12.79
1041.123	-3.19
1041.546	-4.99
1041.969	-5.59
1042.392	-1.59
1042.815	0.91
1043.238	-0.19
1043.661	6.31
1044.084	-4.49
1044.507	-9.29
1044.93	-2.29
1045.352	-3.89
1045.775	-2.89
1046.198	-4.19
1046.621	-7.39
1047.043	-0.79
1047.466	3.51
1047.889	-4.29
1048.311	-6.29
1048.734	-5.19
1049.156	-5.59
1049.579	-0.49
1050.001	-2.09
1050.424	-6.19
1050.846	-4.49
1051.269	-4.99
1051.691	-7.59
1052.113	-7.09
1052.536	2.41
1052.958	-3.09
1053.38	-5.29
1053.802	-7.59
1054.225	-1.59
1054.647	-13.49
1055.069	-0.49
1055.491	4.61
1055.913	-10.49
1056.335	2.41
1056.757	-1.69
1057.179	-4.99
1057.601	-2.89
1058.023	-3.69
1058.445	-2.99
1058.867	-6.99
1059.289	-5.39
1059.711	-5.89
1060.133	2.81
1060.555	-9.79
1060.976	-9.89
1061.398	-3.49
1061.82	-5.29
1062.241	-5.99
1062.663	-4.09
1063.085	-8.19
1063.506	0.71
1063.928	-0.49
1064.35	-1.19
1064.771	-8.79
1065.193	-0.59
1065.614	-11.19
1066.035	-0.99
1066.457	-3.59
1066.878	1.61
1067.3	-6.39
1067.721	1.51
1068.142	-6.59
1068.564	-2.69
1068.985	-3.29
1069.406	-6.89
1069.827	-7.09
1070.248	-1.19
1070.67	-7.99
1071.091	-13.19
1071.512	2.81
1071.933	-2.79
1072.354	-8.69
1072.775	-1.29
1073.196	-9.49
1073.617	-1.29
1074.038	-3.49
1074.459	-1.39
1074.88	-8.89
1075.3	0.21
1075.721	-5.89
1076.142	-2.39
1076.563	1.51
1076.983	-6.19
1077.404	-8.49
1077.825	-13.19
1078.246	-4.69
1078.666	-7.79
1079.087	-2.79
1079.507	-1.89
1079.928	3.11
1080.348	2.21
1080.769	-8.79
1081.189	-0.39
1081.61	-1.69
1082.03	-6.69
1082.451	-7.19
1082.871	-6.59
1083.291	-3.99
1083.711	-2.59
1084.132	-7.89
1084.552	-2.29
1084.972	1.91
1085.392	-11.29
1085.813	-8.69
1086.233	-5.19
1086.653	-4.09
1087.073	0.51
1087.493	-2.89
1087.913	-8.89
1088.333	-5.09
1088.753	-3.39
1089.173	-0.09
1089.593	-4.49
1090.013	-0.89
1090.433	1.61
1090.852	-5.39
1091.272	0.41
1091.692	-4.69
1092.112	1.01
1092.531	-5.89
1092.951	-8.99
1093.371	-1.59
1093.79	4.31
1094.21	-0.69
1094.63	-6.49
1095.049	-4.89
1095.469	0.01
1095.888	-5.79
1096.308	2.31
1096.727	2.31
1097.146	-4.09
1097.566	-2.79
1097.985	-6.69
1098.405	-3.69
1098.824	-4.79
1099.243	0.11
1099.662	-7.59
1100.082	-1.59
1100.501	-5.89
1100.92	-2.29
1101.339	-4.69
1101.758	-4.79
