Data from 20171114-ORNL-Ar_H_NY_Subt18_08-04-21-171.txt Node
Date: Tue Nov 14 08:04:21 EST 2017
User: Ender
Spectrometer: HR+D1039
Trigger mode: 0
Integration Time (sec): 2.730000E-2
Scans to average: 10
Electric dark correction enabled: true
Nonlinearity correction enabled: false
Boxcar width: 0
XAxis mode: Wavelengths
Number of Pixels in Spectrum: 2048
>>>>>Begin Spectral Data<<<<<
187.836	-6.83
188.309	-6.83
188.782	-6.83
189.255	3.47
189.728	-1.93
190.201	9.67
190.674	4.67
191.147	4.87
191.619	-8.03
192.092	-1.23
192.565	7.17
193.038	-0.83
193.511	-5.73
193.984	1.47
194.456	-0.93
194.929	2.77
195.402	-1.63
195.874	-6.93
196.347	-2.93
196.82	-9.23
197.292	6.27
197.765	-3.73
198.237	-7.93
198.71	4.57
199.182	3.57
199.655	3.77
200.127	2.27
200.6	-0.83
201.072	-0.33
201.544	-0.43
202.017	3.67
202.489	9.07
202.961	-3.03
203.433	-2.13
203.906	3.47
204.378	-7.73
204.85	-4.83
205.322	-6.73
205.794	1.87
206.266	-1.13
206.739	-5.03
207.211	0.27
207.683	-7.53
208.155	-3.53
208.627	-10.03
209.099	-1.43
209.57	0.37
210.042	-0.73
210.514	-0.43
210.986	-7.33
211.458	-9.83
211.93	-1.83
212.402	0.67
212.873	-0.43
213.345	-10.63
213.817	-6.83
214.288	-6.13
214.76	-8.03
215.232	0.07
215.703	-3.43
216.175	-7.43
216.646	-7.53
217.118	-8.83
217.589	-4.23
218.061	-0.93
218.532	-8.63
219.004	-0.13
219.475	-6.03
219.946	-3.73
220.418	-5.63
220.889	3.67
221.36	1.67
221.832	-3.63
222.303	-10.53
222.774	-4.63
223.245	-8.33
223.717	-0.93
224.188	-8.33
224.659	-8.23
225.13	-6.93
225.601	-0.53
226.072	2.97
226.543	-1.73
227.014	0.47
227.485	1.27
227.956	-4.93
228.427	-0.33
228.898	2.37
229.369	3.07
229.839	-3.23
230.31	-10.73
230.781	2.47
231.252	1.17
231.722	-1.63
232.193	2.17
232.664	5.57
233.135	0.87
233.605	5.57
234.076	-3.03
234.546	6.07
235.017	5.97
235.487	5.77
235.958	-0.13
236.428	3.47
236.899	5.87
237.369	11.37
237.84	-3.43
238.31	8.67
238.78	1.07
239.251	4.37
239.721	6.07
240.191	4.77
240.662	-2.23
241.132	0.47
241.602	-2.43
242.072	0.37
242.542	7.07
243.013	3.67
243.483	7.27
243.953	5.17
244.423	-3.43
244.893	1.37
245.363	9.57
245.833	6.37
246.303	4.47
246.773	10.37
247.243	6.07
247.712	8.67
248.182	10.07
248.652	7.97
249.122	-2.73
249.592	18.67
250.061	23.67
250.531	35.87
251.001	20.07
251.471	30.57
251.94	19.37
252.41	5.57
252.879	1.97
253.349	13.37
253.818	7.97
254.288	11.47
254.757	4.47
255.227	5.27
255.696	6.67
256.166	6.47
256.635	3.57
257.105	13.57
257.574	10.77
258.043	15.17
258.513	19.47
258.982	18.37
259.451	9.37
259.92	20.17
260.389	12.57
260.859	17.37
261.328	17.27
261.797	18.77
262.266	12.47
262.735	14.67
263.204	5.47
263.673	3.97
264.142	1.07
264.611	-1.73
265.08	2.27
265.549	-0.53
266.018	11.37
266.487	3.47
266.955	2.17
267.424	6.27
267.893	14.07
268.362	5.67
268.83	4.47
269.299	12.37
269.768	11.27
270.236	9.17
270.705	1.17
271.174	4.47
271.642	10.97
272.111	7.27
272.579	19.97
273.048	27.07
273.516	32.77
273.985	36.57
274.453	28.77
274.922	24.87
275.39	14.77
275.858	7.87
276.327	15.37
276.795	20.07
277.263	17.17
277.731	34.37
278.2	56.37
278.668	56.87
279.136	43.07
279.604	20.97
280.072	20.27
280.54	16.77
281.008	9.27
281.477	17.37
281.945	8.97
282.413	10.47
282.881	20.47
283.348	4.87
283.816	16.57
284.284	12.37
284.752	20.97
285.22	16.67
285.688	17.37
286.156	19.57
286.623	38.77
287.091	52.67
287.559	27.57
288.026	19.37
288.494	19.47
288.962	9.37
289.429	7.87
289.897	16.17
290.364	15.57
290.832	17.17
291.3	13.17
291.767	18.77
292.234	21.37
292.702	14.27
293.169	20.67
293.637	27.57
294.104	20.97
294.571	11.47
295.039	13.57
295.506	16.97
295.973	16.67
296.44	16.17
296.908	18.27
297.375	21.37
297.842	24.17
298.309	22.67
298.776	14.47
299.243	23.77
299.71	15.97
300.177	17.77
300.644	24.87
301.111	21.67
301.578	29.17
302.045	23.87
302.512	23.27
302.979	29.57
303.446	22.57
303.913	16.97
304.379	18.57
304.846	32.57
305.313	22.07
305.78	18.17
306.246	26.27
306.713	25.57
307.18	25.47
307.646	27.97
308.113	24.57
308.579	17.97
309.046	23.27
309.512	29.27
309.979	17.27
310.445	21.27
310.912	28.37
311.378	36.37
311.845	32.37
312.311	32.47
312.777	34.47
313.244	31.87
313.71	42.47
314.176	34.07
314.642	33.07
315.109	31.27
315.575	33.37
316.041	35.37
316.507	31.17
316.973	45.07
317.439	35.97
317.905	37.47
318.371	40.47
318.837	40.17
319.303	37.37
319.769	29.97
320.235	33.27
320.701	37.17
321.167	38.47
321.633	36.07
322.099	39.47
322.564	45.57
323.03	40.27
323.496	38.47
323.962	39.07
324.427	34.77
324.893	42.57
325.359	33.37
325.824	41.07
326.29	34.37
326.755	39.87
327.221	35.97
327.686	38.87
328.152	45.17
328.617	40.97
329.083	48.97
329.548	50.27
330.014	45.67
330.479	39.77
330.944	38.17
331.41	42.47
331.875	46.17
332.34	44.77
332.805	44.47
333.271	50.37
333.736	48.87
334.201	51.67
334.666	57.47
335.131	53.47
335.596	50.27
336.061	49.37
336.526	48.57
336.991	47.47
337.456	54.77
337.921	47.67
338.386	39.97
338.851	47.87
339.316	44.57
339.781	44.87
340.246	51.07
340.711	45.27
341.175	49.47
341.64	42.87
342.105	46.47
342.569	60.47
343.034	56.27
343.499	51.87
343.963	51.67
344.428	62.27
344.893	63.17
345.357	61.87
345.822	56.57
346.286	64.87
346.751	66.77
347.215	64.77
347.679	71.67
348.144	87.87
348.608	78.97
349.073	70.77
349.537	69.97
350.001	78.67
350.465	87.87
350.93	74.67
351.394	85.87
351.858	67.37
352.322	77.57
352.786	79.07
353.25	86.77
353.715	100.67
354.179	92.47
354.643	106.57
355.107	110.17
355.571	101.77
356.035	99.77
356.498	106.37
356.962	112.07
357.426	116.47
357.89	112.27
358.354	84.57
358.818	77.57
359.281	76.67
359.745	68.97
360.209	73.47
360.673	73.87
361.136	71.57
361.6	80.47
362.064	83.47
362.527	82.87
362.991	84.57
363.454	71.97
363.918	72.77
364.381	75.27
364.845	82.27
365.308	77.27
365.772	78.17
366.235	80.07
366.698	76.57
367.162	87.17
367.625	82.57
368.088	88.27
368.552	80.47
369.015	81.67
369.478	95.97
369.941	96.57
370.404	88.17
370.867	98.17
371.331	101.77
371.794	98.27
372.257	101.07
372.72	106.97
373.183	101.27
373.646	97.17
374.109	97.97
374.572	103.67
375.035	99.17
375.497	101.07
375.96	98.47
376.423	99.57
376.886	104.97
377.349	102.67
377.811	97.77
378.274	96.47
378.737	100.67
379.199	105.17
379.662	102.77
380.125	113.47
380.587	110.67
381.05	109.17
381.512	122.07
381.975	127.27
382.437	117.07
382.9	117.87
383.362	118.17
383.825	129.07
384.287	137.57
384.75	134.17
385.212	126.67
385.674	130.67
386.136	130.67
386.599	116.97
387.061	118.17
387.523	124.27
387.985	124.57
388.447	135.07
388.91	130.77
389.372	143.77
389.834	138.57
390.296	132.87
390.758	140.37
391.22	151.07
391.682	193.17
392.144	265.07
392.606	208.47
393.068	154.97
393.529	155.87
393.991	141.67
394.453	137.97
394.915	139.77
395.377	177.07
395.838	199.07
396.3	144.87
396.762	132.17
397.224	120.77
397.685	121.47
398.147	114.97
398.608	117.67
399.07	120.27
399.531	123.77
399.993	130.27
400.454	140.47
400.916	141.37
401.377	135.07
401.839	138.77
402.3	136.57
402.762	148.97
403.223	161.37
403.684	155.37
404.145	141.17
404.607	151.97
405.068	154.07
405.529	158.37
405.99	176.17
406.451	155.97
406.913	152.77
407.374	141.87
407.835	143.37
408.296	153.97
408.757	157.67
409.218	176.07
409.679	162.07
410.14	157.07
410.601	153.27
411.062	167.67
411.522	173.87
411.983	164.07
412.444	155.77
412.905	163.77
413.366	163.47
413.826	179.17
414.287	196.27
414.748	239.27
415.208	229.77
415.669	191.17
416.13	190.47
416.59	189.17
417.051	199.47
417.511	201.67
417.972	219.07
418.432	223.57
418.893	261.27
419.353	234.97
419.814	183.07
420.274	161.77
420.734	158.97
421.195	179.47
421.655	177.27
422.115	176.37
422.576	178.47
423.036	174.37
423.496	188.37
423.956	199.37
424.416	209.37
424.876	239.07
425.336	236.17
425.797	243.27
426.257	234.07
426.717	219.87
427.177	207.27
427.637	205.37
428.097	220.07
428.556	225.77
429.016	250.17
429.476	239.87
429.936	250.67
430.396	251.77
430.856	268.37
431.315	283.37
431.775	308.77
432.235	328.37
432.694	309.17
433.154	333.27
433.614	338.87
434.073	306.07
434.533	257.57
434.993	241.67
435.452	255.87
435.912	262.57
436.371	257.77
436.83	252.57
437.29	243.17
437.749	224.47
438.209	222.47
438.668	239.07
439.127	248.17
439.587	238.67
440.046	226.77
440.505	236.27
440.964	245.77
441.424	281.27
441.883	276.47
442.342	235.97
442.801	206.67
443.26	211.97
443.719	202.97
444.178	196.47
444.637	189.77
445.096	200.07
445.555	200.97
446.014	205.57
446.473	200.77
446.932	212.57
447.391	202.47
447.849	212.27
448.308	203.57
448.767	194.27
449.226	217.27
449.685	223.47
450.143	228.57
450.602	219.57
451.061	205.37
451.519	216.57
451.978	212.17
452.436	213.67
452.895	218.97
453.353	232.47
453.812	218.37
454.27	219.97
454.729	223.47
455.187	215.87
455.646	222.77
456.104	224.57
456.562	232.57
457.021	239.47
457.479	227.67
457.937	248.37
458.395	239.47
458.854	229.37
459.312	229.07
459.77	241.97
460.228	230.87
460.686	222.87
461.144	226.47
461.602	222.67
462.06	217.77
462.518	227.97
462.976	223.37
463.434	229.37
463.892	238.57
464.35	246.37
464.808	262.37
465.266	245.07
465.724	245.47
466.181	250.07
466.639	257.47
467.097	263.57
467.555	273.37
468.012	274.77
468.47	281.37
468.928	294.07
469.385	309.17
469.843	312.27
470.3	320.27
470.758	328.37
471.215	339.37
471.673	356.07
472.13	356.77
472.588	366.17
473.045	336.27
473.503	342.77
473.96	348.87
474.417	365.87
474.875	386.97
475.332	426.07
475.789	415.87
476.246	424.97
476.704	437.67
477.161	458.57
477.618	471.07
478.075	499.17
478.532	554.07
478.989	615.17
479.446	708.17
479.903	691.77
480.36	741.77
480.817	777.67
481.274	880.37
481.731	967.07
482.188	1053.67
482.645	1186.97
483.102	1275.97
483.558	1414.27
484.015	1463.67
484.472	1436.07
484.929	1393.37
485.385	1351.07
485.842	1309.47
486.299	1253.37
486.755	1172.07
487.212	992.17
487.668	837.27
488.125	779.17
488.582	708.37
489.038	685.97
489.494	646.87
489.951	637.27
490.407	615.17
490.864	588.97
491.32	589.17
491.776	576.57
492.233	574.57
492.689	543.17
493.145	540.37
493.602	541.37
494.058	548.57
494.514	566.77
494.97	576.37
495.426	583.37
495.882	566.77
496.338	552.97
496.794	571.77
497.251	568.27
497.707	575.67
498.163	584.87
498.618	586.37
499.074	588.57
499.53	608.37
499.986	612.27
500.442	587.17
500.898	573.67
501.354	573.17
501.809	572.17
502.265	584.77
502.721	593.97
503.177	608.47
503.632	595.17
504.088	617.57
504.543	645.97
504.999	636.67
505.455	596.17
505.91	573.97
506.366	578.27
506.821	568.97
507.277	558.57
507.732	560.97
508.187	565.37
508.643	568.07
509.098	573.37
509.553	593.67
510.009	600.37
510.464	604.27
510.919	623.77
511.375	630.27
511.83	638.77
512.285	651.27
512.74	684.97
513.195	707.07
513.65	703.27
514.105	698.67
514.56	703.27
515.015	727.27
515.47	743.27
515.925	726.87
516.38	718.77
516.835	717.97
517.29	712.17
517.745	707.17
518.2	690.57
518.655	670.17
519.109	667.97
519.564	670.77
520.019	658.07
520.474	658.77
520.928	660.47
521.383	654.67
521.838	653.57
522.292	642.17
522.747	638.07
523.201	631.57
523.656	626.27
524.11	628.17
524.565	627.07
525.019	623.27
525.474	630.37
525.928	631.87
526.382	621.37
526.837	632.67
527.291	630.97
527.745	622.87
528.2	640.87
528.654	615.57
529.108	605.87
529.562	629.17
530.016	623.37
530.47	619.07
530.925	620.87
531.379	627.67
531.833	633.37
532.287	628.47
532.741	629.17
533.195	627.87
533.649	647.07
534.103	640.37
534.556	640.67
535.01	644.37
535.464	637.97
535.918	642.27
536.372	647.77
536.826	652.77
537.279	631.57
537.733	637.77
538.187	633.67
538.64	636.97
539.094	645.17
539.548	650.17
540.001	651.17
540.455	643.77
540.908	647.27
541.362	662.17
541.815	665.47
542.269	666.67
542.722	670.37
543.175	682.87
543.629	694.27
544.082	701.07
544.536	709.47
544.989	696.27
545.442	708.47
545.895	689.97
546.349	697.47
546.802	707.97
547.255	705.37
547.708	718.47
548.161	723.47
548.614	730.27
549.067	735.57
549.52	732.67
549.973	727.87
550.426	719.37
550.879	693.27
551.332	707.27
551.785	715.77
552.238	710.37
552.691	724.97
553.144	735.57
553.596	756.17
554.049	765.17
554.502	794.07
554.955	808.17
555.407	806.07
555.86	794.87
556.313	790.37
556.765	785.67
557.218	778.77
557.67	783.67
558.123	773.37
558.576	766.77
559.028	780.37
559.48	786.77
559.933	771.47
560.385	742.37
560.838	712.07
561.29	690.77
561.742	684.37
562.195	664.37
562.647	667.17
563.099	686.17
563.551	680.17
564.004	691.07
564.456	675.57
564.908	679.77
565.36	662.07
565.812	639.67
566.264	632.77
566.716	632.07
567.168	628.47
567.62	632.87
568.072	616.07
568.524	605.07
568.976	605.67
569.428	589.57
569.88	591.47
570.332	599.17
570.784	584.97
571.235	587.17
571.687	599.17
572.139	610.37
572.59	626.87
573.042	619.47
573.494	614.87
573.945	620.17
574.397	592.57
574.849	605.37
575.3	604.97
575.752	583.87
576.203	588.67
576.655	598.97
577.106	583.67
577.557	572.77
578.009	567.47
578.46	579.27
578.912	572.87
579.363	567.77
579.814	573.17
580.265	565.47
580.717	571.57
581.168	569.77
581.619	576.37
582.07	587.47
582.521	583.87
582.972	576.67
583.423	571.77
583.875	586.67
584.326	605.87
584.777	657.87
585.227	718.77
585.678	785.57
586.129	876.17
586.58	955.77
587.031	1017.97
587.482	1182.47
587.933	1353.37
588.384	1154.97
588.834	849.27
589.285	693.97
589.736	672.17
590.186	663.97
590.637	666.07
591.088	636.37
591.538	632.77
591.989	632.57
592.439	630.37
592.89	611.17
593.34	607.37
593.791	607.47
594.241	600.57
594.692	611.37
595.142	600.77
595.593	596.97
596.043	601.57
596.493	597.47
596.943	609.27
597.394	617.27
597.844	610.17
598.294	617.97
598.744	631.27
599.195	665.97
599.645	692.87
600.095	732.87
600.545	774.87
600.995	811.87
601.445	874.97
601.895	934.27
602.345	974.47
602.795	954.07
603.245	915.77
603.695	868.77
604.145	822.87
604.594	783.27
605.044	737.57
605.494	685.87
605.944	634.67
606.393	630.57
606.843	623.97
607.293	625.07
607.743	614.27
608.192	628.77
608.642	635.37
609.091	646.97
609.541	646.57
609.99	653.67
610.44	644.27
610.889	600.77
611.339	591.57
611.788	588.57
612.238	587.77
612.687	616.87
613.136	612.27
613.586	624.67
614.035	622.87
614.484	641.37
614.933	641.97
615.383	627.27
615.832	621.77
616.281	604.67
616.73	579.17
617.179	554.67
617.628	544.17
618.077	529.77
618.526	528.77
618.975	517.87
619.424	509.57
619.873	513.07
620.322	517.77
620.771	517.17
621.22	506.37
621.669	504.47
622.118	494.77
622.567	487.37
623.015	473.17
623.464	474.37
623.913	474.57
624.361	465.27
624.81	464.07
625.259	470.97
625.707	472.07
626.156	463.37
626.604	471.37
627.053	467.87
627.501	463.87
627.95	477.57
628.398	488.47
628.847	476.07
629.295	474.57
629.744	474.57
630.192	469.27
630.64	471.77
631.089	470.07
631.537	484.67
631.985	485.77
632.433	493.27
632.881	496.77
633.33	548.17
633.778	534.67
634.226	476.57
634.674	472.47
635.122	476.47
635.57	496.97
636.018	510.97
636.466	484.57
636.914	463.47
637.362	475.47
637.81	476.47
638.258	479.57
638.705	471.37
639.153	510.37
639.601	514.47
640.049	529.27
640.497	557.97
640.944	577.17
641.392	529.37
641.84	508.67
642.287	490.47
642.735	476.37
643.182	475.97
643.63	481.67
644.078	472.17
644.525	487.57
644.973	491.37
645.42	501.97
645.867	511.37
646.315	525.87
646.762	540.37
647.21	570.07
647.657	589.37
648.104	619.07
648.551	642.77
648.999	691.77
649.446	746.77
649.893	833.27
650.34	949.97
650.787	1125.67
651.234	1402.97
651.682	1821.77
652.129	2494.77
652.576	3582.37
653.023	5302.57
653.47	7365.27
653.917	9344.87
654.363	10902.37
654.81	12356.27
655.257	11716.77
655.704	7589.07
656.151	4432.87
656.598	2861.57
657.044	2025.57
657.491	1544.37
657.938	1243.67
658.385	1042.47
658.831	902.67
659.278	795.17
659.724	697.67
660.171	642.37
660.618	591.07
661.064	566.57
661.511	541.77
661.957	526.67
662.404	514.47
662.85	519.47
663.296	502.87
663.743	456.47
664.189	441.17
664.635	440.77
665.082	441.07
665.528	433.17
665.974	424.37
666.42	414.77
666.867	423.27
667.313	407.47
667.759	386.37
668.205	391.27
668.651	399.87
669.097	401.07
669.543	418.67
669.989	386.57
670.435	367.37
670.881	366.97
671.327	365.97
671.773	377.27
672.219	397.57
672.665	439.77
673.11	463.97
673.556	512.97
674.002	560.07
674.448	537.27
674.893	450.57
675.339	380.87
675.785	360.27
676.23	343.77
676.676	314.97
677.122	319.87
677.567	304.17
678.013	298.77
678.458	297.37
678.904	296.57
679.349	282.77
679.794	296.57
680.24	282.97
680.685	283.67
681.131	284.27
681.576	284.87
682.021	284.47
682.466	278.57
682.912	287.87
683.357	287.57
683.802	309.17
684.247	337.77
684.692	366.47
685.137	395.87
685.583	437.97
686.028	463.07
686.473	423.77
686.918	355.57
687.363	340.87
687.807	318.37
688.252	289.57
688.697	296.17
689.142	269.37
689.587	266.97
690.032	268.37
690.477	276.07
690.921	283.77
691.366	313.47
691.811	320.67
692.255	352.57
692.7	375.77
693.145	401.27
693.589	544.97
694.034	888.57
694.478	1232.87
694.923	1423.87
695.367	1895.27
695.812	988.07
696.256	408.27
696.701	305.07
697.145	284.37
697.59	268.47
698.034	255.37
698.478	265.27
698.922	260.97
699.367	262.07
699.811	279.87
700.255	292.27
700.699	309.17
701.143	339.17
701.588	386.67
702.032	423.67
702.476	416.97
702.92	394.97
703.364	392.77
703.808	499.97
704.252	805.47
704.696	1164.27
705.14	1379.17
705.584	1779.07
706.027	865.77
706.471	420.27
706.915	321.67
707.359	282.77
707.803	261.97
708.246	255.77
708.69	246.87
709.134	255.07
709.577	246.37
710.021	252.97
710.465	250.37
710.908	245.37
711.352	233.17
711.795	251.97
712.239	281.57
712.682	307.07
713.126	338.97
713.569	377.97
714.012	301.47
714.456	263.27
714.899	239.67
715.342	219.27
715.786	212.87
716.229	211.17
716.672	212.37
717.115	199.47
717.558	207.17
718.002	205.87
718.445	211.17
718.888	230.87
719.331	229.27
719.774	247.27
720.217	243.17
720.66	230.47
721.103	212.77
721.546	202.97
721.989	200.17
722.432	187.67
722.874	196.87
723.317	194.07
723.76	185.57
724.203	205.37
724.645	259.97
725.088	356.37
725.531	458.47
725.974	531.87
726.416	448.77
726.859	254.77
727.301	200.07
727.744	193.17
728.187	189.07
728.629	196.97
729.071	195.27
729.514	208.77
729.956	217.87
730.399	225.67
730.841	233.67
731.283	215.17
731.726	208.07
732.168	211.77
732.61	211.27
733.053	229.17
733.495	252.87
733.937	282.57
734.379	317.47
734.821	355.77
735.263	427.47
735.705	659.37
736.148	1224.97
736.59	2060.47
737.032	2540.57
737.474	2064.97
737.916	659.57
738.357	345.57
738.799	260.47
739.241	240.97
739.683	224.47
740.125	236.17
740.567	233.87
741.008	258.27
741.45	254.77
741.892	256.57
742.334	279.47
742.775	295.77
743.217	268.97
743.658	220.07
744.1	202.97
744.542	203.37
744.983	251.57
745.425	286.87
745.866	284.07
746.307	225.37
746.749	226.47
747.19	259.47
747.632	359.27
748.073	671.77
748.514	1457.17
748.956	2321.67
749.397	2883.17
749.838	2420.97
750.279	2474.37
750.72	1233.17
751.162	445.57
751.603	254.57
752.044	206.97
752.485	177.67
752.926	163.07
753.367	159.07
753.808	155.57
754.249	152.67
754.69	145.27
755.131	151.87
755.572	145.77
756.013	143.47
756.453	152.77
756.894	150.27
757.335	152.87
757.776	160.07
758.216	152.77
758.657	156.37
759.098	169.77
759.538	177.07
759.979	205.67
760.42	296.77
760.86	550.47
761.301	1398.57
761.741	3492.97
762.182	5427.77
762.622	3818.87
763.063	1082.87
763.503	439.87
763.943	279.07
764.384	267.37
764.824	338.07
765.264	380.97
765.705	250.67
766.145	166.77
766.585	164.27
767.025	144.17
767.465	149.07
767.906	199.07
768.346	274.37
768.786	291.07
769.226	220.17
769.666	247.57
770.106	474.67
770.546	1213.37
770.986	2176.77
771.426	1990.77
771.866	648.97
772.306	264.37
772.745	173.07
773.185	145.47
773.625	139.27
774.065	127.97
774.505	158.87
774.944	247.87
775.384	538.17
775.824	1021.77
776.263	1024.87
776.703	425.17
777.142	181.37
777.582	119.57
778.021	110.57
778.461	114.67
778.9	119.77
779.34	100.07
779.779	90.87
780.219	90.67
780.658	88.17
781.097	90.07
781.537	88.97
781.976	91.67
782.415	87.57
782.855	75.07
783.294	79.87
783.733	85.87
784.172	90.97
784.611	79.37
785.05	91.07
785.489	88.87
785.928	97.37
786.367	98.37
786.806	95.67
787.245	103.77
787.684	108.67
788.123	116.17
788.562	110.87
789.001	106.77
789.44	105.77
789.879	99.67
790.317	89.37
790.756	106.17
791.195	98.97
791.634	112.47
792.072	161.17
792.511	274.57
792.95	771.97
793.388	1745.17
793.827	1642.77
794.265	551.37
794.704	222.87
795.142	150.97
795.581	124.07
796.019	106.37
796.458	101.37
796.896	95.37
797.334	103.07
797.773	123.07
798.211	171.47
798.649	339.97
799.087	801.67
799.526	1278.97
799.964	1624.57
800.402	1697.97
800.84	618.77
801.278	240.07
801.716	150.77
802.154	126.37
802.592	120.77
803.03	114.47
803.468	100.67
803.906	116.27
804.344	121.17
804.782	112.17
805.22	106.07
805.658	96.97
806.096	119.77
806.533	123.97
806.971	136.87
807.409	171.57
807.847	247.37
808.284	511.47
808.722	1471.57
809.16	2716.87
809.597	2497.07
810.035	4445.57
810.472	4966.97
810.91	1756.07
811.347	655.87
811.785	327.87
812.222	211.97
812.66	157.67
813.097	135.47
813.535	119.67
813.972	105.07
814.409	96.47
814.846	86.67
815.284	92.07
815.721	87.77
816.158	86.17
816.595	97.67
817.032	148.47
817.47	169.27
817.907	153.17
818.344	131.47
818.781	94.97
819.218	82.07
819.655	97.97
820.092	157.17
820.529	174.27
820.966	141.67
821.403	115.77
821.839	88.57
822.276	79.77
822.713	100.17
823.15	109.17
823.587	93.67
824.023	122.37
824.46	222.57
824.897	703.57
825.333	1138.07
825.77	482.57
826.206	185.57
826.643	101.87
827.08	81.77
827.516	72.57
827.953	66.07
828.389	67.37
828.825	58.07
829.262	53.37
829.698	56.27
830.135	47.27
830.571	50.77
831.007	55.37
831.443	48.17
831.88	55.87
832.316	53.57
832.752	58.17
833.188	54.27
833.624	50.77
834.06	55.67
834.497	55.07
834.933	57.17
835.369	62.07
835.805	55.07
836.241	63.27
836.677	65.67
837.112	77.57
837.548	87.87
837.984	104.17
838.42	160.97
838.856	382.07
839.292	1214.27
839.727	1960.67
840.163	890.77
840.599	736.47
841.034	1659.97
841.47	1821.67
841.906	651.67
842.341	267.87
842.777	196.17
843.212	270.17
843.648	273.07
844.083	127.17
844.519	81.57
844.954	68.17
845.39	42.97
845.825	48.07
846.261	49.57
846.696	44.37
847.131	43.17
847.566	51.87
848.002	43.57
848.437	40.97
848.872	45.27
849.307	45.67
849.742	64.17
850.177	143.67
850.613	445.17
851.048	740.87
851.483	315.47
851.918	119.47
852.353	72.37
852.788	47.77
853.223	45.27
853.657	40.37
854.092	33.57
854.527	31.07
854.962	32.87
855.397	40.27
855.832	47.57
856.266	33.67
856.701	30.57
857.136	29.77
857.57	35.27
858.005	38.87
858.44	50.47
858.874	37.97
859.309	43.77
859.743	29.67
860.178	35.77
860.612	32.97
861.047	46.97
861.481	56.27
861.915	62.87
862.35	41.87
862.784	25.77
863.218	31.67
863.653	25.67
864.087	43.17
864.521	39.57
864.955	50.27
865.39	117.87
865.824	141.77
866.258	96.37
866.692	136.47
867.126	154.87
867.56	89.77
867.994	44.97
868.428	31.67
868.862	34.47
869.296	48.37
869.73	47.97
870.164	46.67
870.598	43.57
871.031	32.87
871.465	22.77
871.899	25.27
872.333	18.77
872.766	23.77
873.2	18.17
873.634	21.77
874.067	21.37
874.501	19.07
874.935	27.17
875.368	25.87
875.802	26.87
876.235	24.67
876.669	15.97
877.102	19.57
877.535	19.27
877.969	25.67
878.402	21.27
878.836	18.57
879.269	18.77
879.702	17.77
880.135	16.27
880.569	16.07
881.002	19.17
881.435	22.47
881.868	10.67
882.301	18.27
882.734	15.27
883.167	14.07
883.601	17.37
884.034	16.77
884.467	11.57
884.899	19.17
885.332	12.17
885.765	5.57
886.198	13.97
886.631	24.07
887.064	15.87
887.497	14.87
887.929	21.77
888.362	18.47
888.795	13.47
889.228	11.27
889.66	15.97
890.093	13.27
890.526	13.07
890.958	12.97
891.391	16.87
891.823	19.37
892.256	13.37
892.688	10.87
893.121	11.57
893.553	10.67
893.985	19.97
894.418	18.47
894.85	10.97
895.282	14.57
895.715	15.07
896.147	13.07
896.579	13.07
897.011	9.57
897.444	17.27
897.876	14.27
898.308	20.27
898.74	12.07
899.172	3.77
899.604	21.97
900.036	14.97
900.468	6.67
900.9	8.77
901.332	15.17
901.764	13.37
902.196	11.97
902.628	11.17
903.06	17.47
903.491	20.37
903.923	17.67
904.355	17.67
904.787	18.87
905.218	17.67
905.65	16.87
906.082	9.27
906.513	19.37
906.945	14.47
907.376	13.47
907.808	16.17
908.239	20.47
908.671	14.87
909.102	11.47
909.534	17.67
909.965	37.87
910.397	75.77
910.828	261.87
911.259	390.17
911.691	186.67
912.122	88.57
912.553	49.17
912.984	31.37
913.415	24.77
913.847	22.07
914.278	20.57
914.709	14.07
915.14	21.17
915.571	9.27
916.002	12.17
916.433	18.87
916.864	16.67
917.295	8.67
917.726	18.17
918.157	8.47
918.587	25.77
919.018	19.37
919.449	15.67
919.88	17.37
920.311	29.67
920.741	42.27
921.172	133.97
921.603	124.87
922.033	56.47
922.464	31.67
922.895	22.77
923.325	17.67
923.756	14.77
924.186	11.67
924.617	18.57
925.047	33.77
925.478	45.87
925.908	37.77
926.338	29.57
926.769	10.87
927.199	14.47
927.629	0.27
928.06	17.77
928.49	7.27
928.92	14.87
929.35	13.57
929.78	12.77
930.21	3.47
930.641	5.47
931.071	9.57
931.501	5.77
931.931	9.37
932.361	15.27
932.791	0.87
933.221	5.97
933.651	8.37
934.08	14.17
934.51	25.97
934.94	10.97
935.37	7.37
935.8	9.17
936.229	3.47
936.659	7.17
937.089	4.67
937.519	12.27
937.948	23.87
938.378	11.47
938.807	2.27
939.237	5.87
939.666	10.27
940.096	-0.83
940.525	11.87
940.955	4.67
941.384	2.47
941.814	-0.33
942.243	-2.73
942.672	10.17
943.102	-1.43
943.531	3.47
943.96	9.07
944.39	4.47
944.819	0.37
945.248	5.97
945.677	2.77
946.106	-1.23
946.535	9.27
946.964	5.77
947.393	-1.13
947.822	0.37
948.251	-7.03
948.68	4.57
949.109	7.77
949.538	7.47
949.967	5.97
950.396	5.17
950.825	-0.33
951.254	-2.03
951.682	-3.33
952.111	1.77
952.54	9.07
952.969	0.67
953.397	-4.53
953.826	-0.63
954.254	-6.93
954.683	5.87
955.112	-2.03
955.54	1.97
955.969	1.07
956.397	-1.63
956.826	-5.23
957.254	-3.23
957.682	6.37
958.111	8.07
958.539	-0.03
958.967	6.87
959.396	0.27
959.824	0.27
960.252	5.27
960.68	-10.53
961.109	0.07
961.537	-2.33
961.965	-0.33
962.393	4.67
962.821	-1.73
963.249	0.77
963.677	0.87
964.105	4.37
964.533	35.07
964.961	34.37
965.389	17.67
965.817	3.47
966.245	2.87
966.672	2.17
967.1	-5.43
967.528	0.07
967.956	-4.23
968.383	3.57
968.811	0.97
969.239	-0.23
969.666	-1.03
970.094	2.87
970.522	3.17
970.949	-3.83
971.377	-1.03
971.804	-1.83
972.232	-1.13
972.659	5.07
973.087	0.07
973.514	-0.83
973.941	-3.13
974.369	5.67
974.796	-0.63
975.223	0.57
975.651	-1.73
976.078	5.97
976.505	0.67
976.932	-1.13
977.359	13.17
977.786	14.27
978.214	-0.83
978.641	1.97
979.068	-3.03
979.495	-1.73
979.922	2.37
980.349	0.47
980.776	3.77
981.202	1.57
981.629	3.07
982.056	2.67
982.483	-2.33
982.91	2.87
983.337	-2.33
983.763	-1.83
984.19	-11.33
984.617	-6.53
985.043	-3.93
985.47	-1.83
985.897	-3.13
986.323	-4.23
986.75	6.47
987.176	-1.53
987.603	-0.23
988.029	-1.13
988.456	-3.43
988.882	9.27
989.308	-8.33
989.735	-4.33
990.161	0.57
990.587	-4.03
991.014	-0.43
991.44	6.17
991.866	0.77
992.292	-4.43
992.719	-3.13
993.145	2.07
993.571	-6.63
993.997	-0.83
994.423	-3.73
994.849	1.77
995.275	3.27
995.701	-0.93
996.127	0.37
996.553	8.27
996.979	-5.93
997.405	-0.03
997.83	-2.03
998.256	-4.83
998.682	-5.43
999.108	-11.43
999.534	-0.83
999.959	2.57
1000.385	-1.93
1000.811	2.97
1001.236	-3.83
1001.662	-5.73
1002.087	-6.33
1002.513	4.77
1002.938	1.37
1003.364	1.37
1003.789	2.77
1004.215	4.87
1004.64	-6.13
1005.066	2.47
1005.491	0.77
1005.916	0.77
1006.342	0.57
1006.767	-5.23
1007.192	7.97
1007.617	-4.03
1008.042	-1.43
1008.468	-1.83
1008.893	-3.63
1009.318	-0.33
1009.743	-3.53
1010.168	5.87
1010.593	2.87
1011.018	-3.03
1011.443	-1.33
1011.868	1.77
1012.293	-2.03
1012.718	-9.63
1013.143	5.87
1013.567	0.87
1013.992	-0.43
1014.417	-9.03
1014.842	4.07
1015.267	-2.83
1015.691	-3.53
1016.116	10.47
1016.541	1.87
1016.965	7.47
1017.39	3.37
1017.814	-0.73
1018.239	2.57
1018.663	-5.93
1019.088	-8.03
1019.512	-3.83
1019.937	3.07
1020.361	-6.33
1020.785	-8.33
1021.21	-1.93
1021.634	-1.33
1022.058	5.27
1022.483	9.97
1022.907	-2.13
1023.331	-2.93
1023.755	-2.63
1024.179	-6.03
1024.604	-4.03
1025.028	-8.03
1025.452	-2.03
1025.876	-3.63
1026.3	4.97
1026.724	-14.23
1027.148	-3.73
1027.572	-10.63
1027.996	1.57
1028.42	-2.23
1028.843	1.27
1029.267	-0.63
1029.691	-1.93
1030.115	-5.73
1030.539	-0.53
1030.962	-5.93
1031.386	-5.73
1031.81	3.57
1032.233	1.97
1032.657	1.37
1033.08	-2.63
1033.504	3.47
1033.927	-0.23
1034.351	6.47
1034.774	-0.33
1035.198	1.27
1035.621	-4.13
1036.045	-5.03
1036.468	3.97
1036.891	-6.83
1037.315	-7.73
1037.738	-5.13
1038.161	5.57
1038.584	0.87
1039.008	-6.33
1039.431	-1.33
1039.854	0.87
1040.277	-11.13
1040.7	-5.13
1041.123	0.17
1041.546	-1.23
1041.969	-2.83
1042.392	-6.93
1042.815	3.57
1043.238	3.77
1043.661	5.57
1044.084	-6.23
1044.507	0.07
1044.93	-3.23
1045.352	-7.33
1045.775	-0.93
1046.198	0.37
1046.621	1.47
1047.043	-2.43
1047.466	8.97
1047.889	1.37
1048.311	-1.13
1048.734	2.17
1049.156	2.47
1049.579	-0.33
1050.001	-4.13
1050.424	5.67
1050.846	5.17
1051.269	-4.93
1051.691	-7.23
1052.113	-3.23
1052.536	3.27
1052.958	-1.03
1053.38	-8.73
1053.802	-8.03
1054.225	0.87
1054.647	-10.03
1055.069	2.17
1055.491	2.67
1055.913	-9.63
1056.335	-3.33
1056.757	-4.83
1057.179	-6.43
1057.601	-5.83
1058.023	-2.13
1058.445	-2.83
1058.867	-3.53
1059.289	-7.03
1059.711	-3.63
1060.133	-3.23
1060.555	-3.83
1060.976	-2.13
1061.398	-3.53
1061.82	-2.13
1062.241	1.77
1062.663	-0.73
1063.085	-2.83
1063.506	5.07
1063.928	-2.23
1064.35	-0.53
1064.771	-12.93
1065.193	-6.03
1065.614	-4.53
1066.035	-2.33
1066.457	-2.03
1066.878	-0.23
1067.3	-7.83
1067.721	-2.13
1068.142	-2.63
1068.564	1.57
1068.985	-5.33
1069.406	-6.03
1069.827	-4.13
1070.248	-0.63
1070.67	-7.43
1071.091	-7.23
1071.512	-4.53
1071.933	-6.13
1072.354	-7.13
1072.775	-4.33
1073.196	-5.23
1073.617	-5.73
1074.038	-4.03
1074.459	2.07
1074.88	-9.33
1075.3	-1.33
1075.721	-5.43
1076.142	1.27
1076.563	4.77
1076.983	-8.23
1077.404	-4.23
1077.825	-7.83
1078.246	0.67
1078.666	-7.33
1079.087	-6.63
1079.507	-6.23
1079.928	0.67
1080.348	3.37
1080.769	-8.93
1081.189	-1.13
1081.61	0.87
1082.03	-4.23
1082.451	-2.63
1082.871	-4.93
1083.291	-4.73
1083.711	-5.63
1084.132	-3.83
1084.552	-7.33
1084.972	2.17
1085.392	-5.63
1085.813	-8.23
1086.233	-3.93
1086.653	-3.93
1087.073	-0.13
1087.493	-9.03
1087.913	-2.13
1088.333	-5.13
1088.753	-4.83
1089.173	1.97
1089.593	-0.63
1090.013	4.97
1090.433	2.07
1090.852	5.67
1091.272	0.97
1091.692	-3.03
1092.112	0.97
1092.531	-9.83
1092.951	-5.73
1093.371	-0.53
1093.79	0.97
1094.21	-6.03
1094.63	-6.43
1095.049	-0.73
1095.469	-4.33
1095.888	1.57
1096.308	6.67
1096.727	5.27
1097.146	-8.83
1097.566	-0.33
1097.985	-1.93
1098.405	2.07
1098.824	-9.03
1099.243	0.77
1099.662	-8.03
1100.082	-2.83
1100.501	-1.53
1100.92	-7.53
1101.339	-4.23
1101.758	-0.93
