Data from 20171114-ORNL-Ar_H_NY_Subt18_08-03-53-327.txt Node
Date: Tue Nov 14 08:03:53 EST 2017
User: Ender
Spectrometer: HR+D1039
Trigger mode: 0
Integration Time (sec): 2.730000E-2
Scans to average: 10
Electric dark correction enabled: true
Nonlinearity correction enabled: false
Boxcar width: 0
XAxis mode: Wavelengths
Number of Pixels in Spectrum: 2048
>>>>>Begin Spectral Data<<<<<
187.836	-7.84
188.309	-7.84
188.782	-7.84
189.255	-3.54
189.728	5.26
190.201	7.86
190.674	0.56
191.147	0.96
191.619	-5.34
192.092	2.56
192.565	9.26
193.038	-1.34
193.511	-1.34
193.984	1.16
194.456	-6.24
194.929	4.46
195.402	-5.34
195.874	-1.14
196.347	-1.34
196.82	-4.84
197.292	5.16
197.765	2.06
198.237	-0.94
198.71	2.46
199.182	-3.24
199.655	3.96
200.127	1.56
200.6	-3.74
201.072	-2.24
201.544	-2.94
202.017	-3.64
202.489	-0.24
202.961	-1.04
203.433	2.06
203.906	-7.54
204.378	-6.54
204.85	1.96
205.322	-2.14
205.794	1.26
206.266	-0.84
206.739	-8.64
207.211	2.26
207.683	-0.94
208.155	0.36
208.627	-9.64
209.099	-1.34
209.57	-3.24
210.042	-2.64
210.514	-4.44
210.986	1.96
211.458	-7.64
211.93	-2.84
212.402	5.36
212.873	-5.44
213.345	-5.14
213.817	-16.24
214.288	-7.34
214.76	-12.04
215.232	2.86
215.703	-3.74
216.175	-2.54
216.646	-4.84
217.118	-6.94
217.589	-2.04
218.061	0.26
218.532	-3.44
219.004	-2.44
219.475	1.36
219.946	-9.64
220.418	-7.74
220.889	6.76
221.36	-1.74
221.832	-5.64
222.303	-4.14
222.774	1.36
223.245	-8.04
223.717	-3.14
224.188	-8.54
224.659	-2.94
225.13	-5.14
225.601	-1.14
226.072	-0.44
226.543	-8.34
227.014	0.26
227.485	-0.64
227.956	-7.44
228.427	4.66
228.898	0.46
229.369	8.46
229.839	0.86
230.31	-6.74
230.781	2.66
231.252	3.56
231.722	-3.74
232.193	-9.34
232.664	-5.24
233.135	-2.34
233.605	-1.54
234.076	-8.74
234.546	0.06
235.017	2.16
235.487	-3.54
235.958	-2.14
236.428	-7.34
236.899	-0.04
237.369	4.16
237.84	-4.94
238.31	2.16
238.78	0.56
239.251	0.36
239.721	-2.24
240.191	0.36
240.662	-4.24
241.132	-1.24
241.602	-5.54
242.072	-4.64
242.542	3.86
243.013	-1.14
243.483	1.16
243.953	-0.14
244.423	-1.04
244.893	-4.44
245.363	2.36
245.833	-0.54
246.303	-5.14
246.773	0.96
247.243	-0.14
247.712	-3.14
248.182	8.86
248.652	8.56
249.122	-3.44
249.592	1.96
250.061	-0.04
250.531	7.66
251.001	1.16
251.471	10.26
251.94	4.36
252.41	-4.14
252.879	-9.44
253.349	4.56
253.818	8.96
254.288	2.76
254.757	0.06
255.227	-2.64
255.696	-0.94
256.166	3.76
256.635	0.26
257.105	4.36
257.574	-1.04
258.043	0.56
258.513	-6.04
258.982	0.56
259.451	-7.84
259.92	-0.14
260.389	3.16
260.859	8.96
261.328	0.36
261.797	3.36
262.266	2.46
262.735	9.96
263.204	-0.44
263.673	-1.04
264.142	4.56
264.611	-5.24
265.08	-3.24
265.549	-2.04
266.018	1.76
266.487	1.26
266.955	-0.24
267.424	0.26
267.893	1.56
268.362	-4.64
268.83	-1.24
269.299	1.46
269.768	3.16
270.236	1.26
270.705	-1.34
271.174	-0.34
271.642	7.36
272.111	1.86
272.579	5.86
273.048	2.86
273.516	3.26
273.985	3.46
274.453	2.36
274.922	-0.44
275.39	1.96
275.858	0.36
276.327	8.36
276.795	10.06
277.263	3.96
277.731	5.76
278.2	6.06
278.668	7.56
279.136	7.76
279.604	2.26
280.072	5.56
280.54	7.46
281.008	10.66
281.477	8.16
281.945	9.56
282.413	10.26
282.881	7.56
283.348	5.96
283.816	4.86
284.284	12.86
284.752	11.36
285.22	5.76
285.688	7.36
286.156	5.16
286.623	17.06
287.091	1.46
287.559	12.76
288.026	8.26
288.494	11.36
288.962	-3.94
289.429	0.36
289.897	12.66
290.364	7.16
290.832	12.66
291.3	8.36
291.767	7.56
292.234	12.36
292.702	3.46
293.169	12.16
293.637	16.46
294.104	11.56
294.571	0.36
295.039	6.76
295.506	5.16
295.973	17.06
296.44	2.86
296.908	14.66
297.375	3.46
297.842	18.16
298.309	15.46
298.776	5.26
299.243	9.06
299.71	9.86
300.177	16.06
300.644	15.26
301.111	15.06
301.578	20.36
302.045	7.76
302.512	17.86
302.979	21.96
303.446	18.86
303.913	11.56
304.379	9.36
304.846	20.36
305.313	19.16
305.78	8.56
306.246	18.76
306.713	21.26
307.18	14.26
307.646	19.66
308.113	20.26
308.579	14.06
309.046	13.96
309.512	14.56
309.979	15.16
310.445	22.96
310.912	17.26
311.378	28.26
311.845	17.06
312.311	21.66
312.777	23.56
313.244	16.16
313.71	29.16
314.176	17.26
314.642	19.86
315.109	19.56
315.575	28.76
316.041	29.46
316.507	19.46
316.973	24.26
317.439	21.36
317.905	30.06
318.371	28.56
318.837	28.36
319.303	26.56
319.769	26.36
320.235	26.96
320.701	24.86
321.167	29.86
321.633	26.56
322.099	25.16
322.564	35.36
323.03	32.06
323.496	22.46
323.962	31.66
324.427	35.56
324.893	35.86
325.359	35.26
325.824	25.76
326.29	31.46
326.755	29.96
327.221	37.26
327.686	26.46
328.152	41.36
328.617	33.76
329.083	40.06
329.548	37.36
330.014	36.96
330.479	36.36
330.944	32.26
331.41	35.66
331.875	37.46
332.34	34.46
332.805	31.16
333.271	39.46
333.736	28.26
334.201	41.56
334.666	38.86
335.131	42.66
335.596	48.76
336.061	40.16
336.526	36.76
336.991	37.86
337.456	46.86
337.921	43.46
338.386	35.06
338.851	37.66
339.316	44.36
339.781	36.96
340.246	42.46
340.711	41.36
341.175	40.26
341.64	38.26
342.105	45.26
342.569	43.06
343.034	50.26
343.499	46.66
343.963	50.96
344.428	49.66
344.893	50.06
345.357	45.36
345.822	50.36
346.286	57.86
346.751	59.76
347.215	52.46
347.679	64.96
348.144	80.66
348.608	69.26
349.073	65.66
349.537	67.16
350.001	70.16
350.465	76.66
350.93	62.76
351.394	73.26
351.858	71.06
352.322	77.26
352.786	70.56
353.25	81.96
353.715	83.86
354.179	80.66
354.643	93.16
355.107	95.56
355.571	89.66
356.035	87.96
356.498	87.46
356.962	87.06
357.426	106.36
357.89	90.36
358.354	78.46
358.818	67.26
359.281	79.26
359.745	67.06
360.209	73.56
360.673	66.96
361.136	74.06
361.6	73.76
362.064	71.76
362.527	72.46
362.991	82.66
363.454	73.16
363.918	73.26
364.381	78.26
364.845	77.16
365.308	87.26
365.772	82.16
366.235	88.86
366.698	80.96
367.162	80.76
367.625	83.26
368.088	81.86
368.552	89.46
369.015	83.36
369.478	89.76
369.941	91.86
370.404	87.96
370.867	95.56
371.331	95.56
371.794	95.06
372.257	89.46
372.72	97.36
373.183	95.46
373.646	92.86
374.109	95.06
374.572	102.06
375.035	95.46
375.497	94.66
375.96	102.06
376.423	101.06
376.886	106.56
377.349	106.26
377.811	96.46
378.274	94.06
378.737	91.56
379.199	102.46
379.662	104.16
380.125	110.56
380.587	100.76
381.05	106.96
381.512	112.86
381.975	119.76
382.437	117.66
382.9	112.76
383.362	115.06
383.825	113.76
384.287	117.06
384.75	116.66
385.212	118.26
385.674	125.26
386.136	129.46
386.599	118.66
387.061	116.86
387.523	121.86
387.985	121.16
388.447	127.36
388.91	125.86
389.372	127.26
389.834	124.46
390.296	117.96
390.758	124.16
391.22	134.06
391.682	140.76
392.144	136.36
392.606	143.36
393.068	136.56
393.529	149.36
393.991	140.06
394.453	127.56
394.915	130.16
395.377	129.56
395.838	131.66
396.3	134.26
396.762	142.76
397.224	132.06
397.685	128.16
398.147	130.36
398.608	133.26
399.07	131.66
399.531	133.56
399.993	139.06
400.454	151.56
400.916	145.26
401.377	146.06
401.839	148.86
402.3	150.36
402.762	170.76
403.223	180.86
403.684	169.56
404.145	158.26
404.607	158.56
405.068	166.66
405.529	168.66
405.99	174.86
406.451	173.66
406.913	173.36
407.374	159.86
407.835	164.46
408.296	168.96
408.757	172.16
409.218	179.06
409.679	181.26
410.14	174.46
410.601	171.36
411.062	173.76
411.522	178.16
411.983	174.96
412.444	173.66
412.905	179.36
413.366	190.16
413.826	200.36
414.287	221.36
414.748	271.76
415.208	260.66
415.669	223.96
416.13	211.66
416.59	210.26
417.051	220.26
417.511	227.66
417.972	240.56
418.432	252.86
418.893	298.06
419.353	259.16
419.814	203.26
420.274	188.06
420.734	183.56
421.195	193.36
421.655	184.16
422.115	195.86
422.576	190.86
423.036	201.86
423.496	211.66
423.956	216.06
424.416	238.66
424.876	265.26
425.336	259.26
425.797	262.26
426.257	254.56
426.717	236.56
427.177	231.06
427.637	221.96
428.097	225.46
428.556	244.36
429.016	266.36
429.476	253.36
429.936	260.36
430.396	259.36
430.856	278.66
431.315	296.56
431.775	329.46
432.235	358.16
432.694	341.66
433.154	336.66
433.614	353.56
434.073	313.36
434.533	271.36
434.993	256.46
435.452	263.36
435.912	276.46
436.371	266.36
436.83	259.36
437.29	254.66
437.749	236.96
438.209	235.86
438.668	250.96
439.127	268.16
439.587	241.96
440.046	231.76
440.505	238.66
440.964	259.76
441.424	280.46
441.883	277.46
442.342	239.86
442.801	222.86
443.26	218.76
443.719	216.56
444.178	225.46
444.637	215.46
445.096	224.46
445.555	229.16
446.014	226.66
446.473	228.76
446.932	238.06
447.391	226.86
447.849	225.26
448.308	223.46
448.767	227.76
449.226	240.76
449.685	236.16
450.143	254.26
450.602	240.76
451.061	225.56
451.519	232.46
451.978	231.96
452.436	229.96
452.895	230.06
453.353	245.36
453.812	227.56
454.27	234.06
454.729	235.16
455.187	233.66
455.646	240.26
456.104	239.96
456.562	249.56
457.021	249.36
457.479	248.46
457.937	253.36
458.395	258.26
458.854	246.06
459.312	247.36
459.77	259.16
460.228	255.66
460.686	239.26
461.144	245.16
461.602	243.86
462.06	243.26
462.518	254.46
462.976	250.26
463.434	255.26
463.892	258.36
464.35	263.76
464.808	280.46
465.266	268.56
465.724	266.36
466.181	272.76
466.639	269.16
467.097	288.36
467.555	290.26
468.012	288.06
468.47	300.56
468.928	315.06
469.385	320.16
469.843	331.86
470.3	329.76
470.758	349.46
471.215	359.36
471.673	380.86
472.13	372.26
472.588	385.06
473.045	359.96
473.503	361.76
473.96	378.76
474.417	385.36
474.875	410.76
475.332	440.06
475.789	425.46
476.246	442.26
476.704	459.96
477.161	473.06
477.618	484.46
478.075	521.96
478.532	555.36
478.989	623.76
479.446	692.36
479.903	689.16
480.36	725.46
480.817	759.86
481.274	849.86
481.731	931.96
482.188	1009.26
482.645	1126.76
483.102	1206.56
483.558	1302.36
484.015	1356.56
484.472	1331.16
484.929	1303.36
485.385	1253.76
485.842	1231.86
486.299	1186.36
486.755	1131.76
487.212	974.66
487.668	845.16
488.125	786.26
488.582	723.56
489.038	704.56
489.494	658.46
489.951	646.66
490.407	618.06
490.864	607.36
491.32	602.96
491.776	600.96
492.233	600.46
492.689	573.26
493.145	563.26
493.602	556.76
494.058	574.06
494.514	564.66
494.97	587.16
495.426	587.16
495.882	562.16
496.338	565.96
496.794	578.66
497.251	565.36
497.707	583.76
498.163	575.86
498.618	586.06
499.074	584.06
499.53	599.76
499.986	597.26
500.442	586.96
500.898	572.46
501.354	575.26
501.809	572.66
502.265	576.56
502.721	591.26
503.177	582.46
503.632	597.06
504.088	596.26
504.543	606.36
504.999	612.96
505.455	602.16
505.91	591.96
506.366	593.36
506.821	585.36
507.277	590.86
507.732	580.16
508.187	578.76
508.643	597.96
509.098	589.86
509.553	615.36
510.009	607.66
510.464	620.36
510.919	627.36
511.375	623.36
511.83	645.86
512.285	656.96
512.74	680.86
513.195	692.36
513.65	696.36
514.105	694.96
514.56	696.36
515.015	701.56
515.47	716.66
515.925	702.66
516.38	709.66
516.835	717.06
517.29	701.36
517.745	704.26
518.2	689.46
518.655	678.26
519.109	666.76
519.564	660.46
520.019	665.76
520.474	645.16
520.928	647.26
521.383	642.06
521.838	646.06
522.292	633.56
522.747	639.96
523.201	627.96
523.656	627.96
524.11	631.46
524.565	619.46
525.019	622.16
525.474	620.26
525.928	625.36
526.382	619.66
526.837	621.16
527.291	616.26
527.745	625.16
528.2	616.16
528.654	612.56
529.108	610.16
529.562	608.76
530.016	619.36
530.47	607.86
530.925	619.46
531.379	625.36
531.833	617.26
532.287	608.96
532.741	609.46
533.195	613.56
533.649	611.36
534.103	627.46
534.556	621.26
535.01	611.96
535.464	608.76
535.918	627.56
536.372	633.36
536.826	626.16
537.279	603.06
537.733	606.06
538.187	628.26
538.64	632.16
539.094	622.16
539.548	630.66
540.001	628.96
540.455	633.06
540.908	636.56
541.362	638.06
541.815	654.46
542.269	655.06
542.722	653.66
543.175	662.96
543.629	665.46
544.082	680.46
544.536	679.36
544.989	677.46
545.442	684.76
545.895	679.56
546.349	687.66
546.802	684.76
547.255	692.06
547.708	686.06
548.161	702.66
548.614	700.36
549.067	708.76
549.52	705.76
549.973	688.86
550.426	691.76
550.879	678.56
551.332	682.36
551.785	694.76
552.238	691.96
552.691	691.96
553.144	692.86
553.596	722.46
554.049	725.76
554.502	752.36
554.955	767.86
555.407	767.06
555.86	757.56
556.313	753.76
556.765	743.46
557.218	741.06
557.67	739.16
558.123	732.46
558.576	729.96
559.028	732.26
559.48	742.86
559.933	735.26
560.385	708.26
560.838	683.86
561.29	670.46
561.742	659.56
562.195	644.76
562.647	644.96
563.099	653.76
563.551	650.66
564.004	660.56
564.456	643.26
564.908	638.26
565.36	616.96
565.812	605.06
566.264	598.66
566.716	598.36
567.168	579.76
567.62	590.26
568.072	568.06
568.524	574.76
568.976	569.96
569.428	565.26
569.88	558.06
570.332	557.26
570.784	560.36
571.235	566.16
571.687	567.66
572.139	580.26
572.59	587.16
573.042	587.36
573.494	580.76
573.945	579.86
574.397	555.96
574.849	567.26
575.3	561.36
575.752	560.96
576.203	550.06
576.655	563.06
577.106	551.26
577.557	533.96
578.009	541.76
578.46	539.16
578.912	526.66
579.363	539.46
579.814	542.46
580.265	527.26
580.717	538.66
581.168	537.66
581.619	542.96
582.07	544.36
582.521	539.16
582.972	535.86
583.423	543.26
583.875	541.56
584.326	538.16
584.777	555.96
585.227	577.06
585.678	581.16
586.129	599.36
586.58	629.46
587.031	644.66
587.482	679.26
587.933	695.16
588.384	674.06
588.834	627.86
589.285	616.76
589.736	616.86
590.186	617.06
590.637	612.26
591.088	585.26
591.538	591.06
591.989	577.36
592.439	573.76
592.89	552.16
593.34	548.16
593.791	551.26
594.241	538.26
594.692	547.06
595.142	544.36
595.593	541.86
596.043	547.46
596.493	557.86
596.943	555.26
597.394	557.56
597.844	556.86
598.294	571.86
598.744	595.96
599.195	609.06
599.645	637.46
600.095	662.36
600.545	704.36
600.995	740.56
601.445	798.76
601.895	845.26
602.345	879.66
602.795	865.76
603.245	840.36
603.695	782.66
604.145	753.36
604.594	715.66
605.044	680.06
605.494	622.26
605.944	587.16
606.393	571.86
606.843	561.36
607.293	560.46
607.743	559.36
608.192	561.66
608.642	568.76
609.091	571.16
609.541	575.76
609.99	577.16
610.44	573.06
610.889	548.06
611.339	526.86
611.788	524.16
612.238	530.26
612.687	538.16
613.136	528.46
613.586	539.86
614.035	521.96
614.484	538.06
614.933	537.96
615.383	538.76
615.832	534.26
616.281	521.06
616.73	513.46
617.179	508.66
617.628	490.16
618.077	475.06
618.526	469.56
618.975	472.36
619.424	465.06
619.873	462.26
620.322	467.46
620.771	466.56
621.22	453.76
621.669	441.06
622.118	434.26
622.567	438.76
623.015	425.66
623.464	421.16
623.913	415.46
624.361	411.76
624.81	414.96
625.259	414.36
625.707	412.16
626.156	424.46
626.604	428.06
627.053	416.06
627.501	415.26
627.95	424.56
628.398	429.86
628.847	425.76
629.295	426.66
629.744	430.96
630.192	427.76
630.64	419.46
631.089	414.06
631.537	400.36
631.985	390.36
632.433	392.06
632.881	388.16
633.33	383.06
633.778	386.86
634.226	388.66
634.674	396.46
635.122	395.76
635.57	402.16
636.018	406.46
636.466	410.46
636.914	419.66
637.362	424.76
637.81	433.96
638.258	430.46
638.705	420.46
639.153	449.86
639.601	443.96
640.049	471.76
640.497	491.56
640.944	504.76
641.392	490.26
641.84	457.06
642.287	430.26
642.735	417.96
643.182	415.66
643.63	413.06
644.078	412.56
644.525	419.76
644.973	425.76
645.42	430.06
645.867	444.86
646.315	454.16
646.762	480.36
647.21	489.36
647.657	508.76
648.104	537.16
648.551	536.26
648.999	584.56
649.446	626.76
649.893	684.06
650.34	783.96
650.787	919.86
651.234	1127.76
651.682	1435.36
652.129	1938.26
652.576	2705.96
653.023	3954.96
653.47	5502.66
653.917	6954.86
654.363	8181.36
654.81	9220.86
655.257	8786.46
655.704	5812.86
656.151	3451.66
656.598	2251.76
657.044	1610.46
657.491	1248.86
657.938	1003.66
658.385	842.86
658.831	742.26
659.278	668.76
659.724	590.56
660.171	546.96
660.618	496.36
661.064	477.36
661.511	451.96
661.957	456.36
662.404	441.96
662.85	443.56
663.296	419.96
663.743	394.66
664.189	384.76
664.635	385.66
665.082	370.36
665.528	379.26
665.974	370.96
666.42	362.36
666.867	355.46
667.313	339.26
667.759	328.76
668.205	320.16
668.651	332.86
669.097	324.56
669.543	313.86
669.989	313.36
670.435	323.56
670.881	316.16
671.327	321.86
671.773	329.66
672.219	360.06
672.665	390.16
673.11	422.56
673.556	460.36
674.002	489.36
674.448	475.36
674.893	407.26
675.339	348.26
675.785	324.86
676.23	302.36
676.676	277.66
677.122	279.26
677.567	271.86
678.013	269.96
678.458	260.06
678.904	260.76
679.349	249.16
679.794	252.86
680.24	251.26
680.685	250.36
681.131	251.36
681.576	253.36
682.021	253.96
682.466	243.76
682.912	252.26
683.357	245.66
683.802	270.26
684.247	292.26
684.692	322.66
685.137	357.16
685.583	387.46
686.028	407.96
686.473	384.76
686.918	317.66
687.363	302.96
687.807	282.66
688.252	263.66
688.697	260.36
689.142	243.76
689.587	231.06
690.032	230.86
690.477	237.76
690.921	240.36
691.366	271.76
691.811	280.46
692.255	312.66
692.7	320.76
693.145	348.46
693.589	477.36
694.034	789.56
694.478	1090.36
694.923	1293.36
695.367	1710.36
695.812	897.26
696.256	365.26
696.701	261.36
697.145	243.96
697.59	235.66
698.034	218.86
698.478	231.56
698.922	226.76
699.367	227.56
699.811	248.86
700.255	249.06
700.699	268.56
701.143	285.26
701.588	338.96
702.032	367.46
702.476	368.56
702.92	359.16
703.364	355.16
703.808	444.56
704.252	713.16
704.696	1025.46
705.14	1234.36
705.584	1598.06
706.027	791.56
706.471	387.36
706.915	282.96
707.359	253.76
707.803	227.36
708.246	209.16
708.69	231.36
709.134	224.96
709.577	224.56
710.021	224.16
710.465	223.06
710.908	219.36
711.352	210.96
711.795	219.96
712.239	240.56
712.682	269.06
713.126	295.26
713.569	330.96
714.012	257.06
714.456	218.16
714.899	202.46
715.342	195.56
715.786	182.56
716.229	185.66
716.672	184.56
717.115	172.76
717.558	178.46
718.002	178.26
718.445	182.66
718.888	212.06
719.331	203.26
719.774	221.06
720.217	215.96
720.66	203.36
721.103	186.06
721.546	184.06
721.989	174.36
722.432	160.06
722.874	165.16
723.317	167.36
723.76	164.06
724.203	178.06
724.645	217.86
725.088	304.86
725.531	401.66
725.974	477.26
726.416	400.56
726.859	220.66
727.301	175.56
727.744	168.56
728.187	159.36
728.629	167.16
729.071	172.76
729.514	188.86
729.956	181.56
730.399	201.26
730.841	207.46
731.283	191.96
731.726	192.06
732.168	183.56
732.61	189.16
733.053	200.46
733.495	221.46
733.937	239.66
734.379	279.16
734.821	305.06
735.263	375.06
735.705	563.16
736.148	1084.96
736.59	1844.96
737.032	2305.96
737.474	1890.86
737.916	594.76
738.357	313.56
738.799	239.56
739.241	211.46
739.683	203.86
740.125	210.26
740.567	216.86
741.008	228.26
741.45	231.96
741.892	224.76
742.334	253.16
742.775	272.76
743.217	250.46
743.658	190.66
744.1	184.96
744.542	190.86
744.983	223.86
745.425	266.16
745.866	262.36
746.307	206.76
746.749	191.06
747.19	231.76
747.632	313.66
748.073	595.36
748.514	1277.16
748.956	2063.46
749.397	2601.06
749.838	2158.16
750.279	2240.66
750.72	1126.86
751.162	402.26
751.603	235.86
752.044	181.46
752.485	149.46
752.926	147.76
753.367	149.46
753.808	136.66
754.249	130.56
754.69	128.56
755.131	128.56
755.572	132.26
756.013	124.96
756.453	132.66
756.894	122.96
757.335	128.86
757.776	138.46
758.216	138.16
758.657	139.66
759.098	146.06
759.538	154.76
759.979	186.66
760.42	255.26
760.86	485.46
761.301	1248.26
761.741	3140.26
762.182	4989.46
762.622	3520.46
763.063	985.76
763.503	399.86
763.943	236.26
764.384	196.36
764.824	179.76
765.264	180.46
765.705	150.46
766.145	129.86
766.585	124.76
767.025	117.76
767.465	109.06
767.906	129.96
768.346	151.26
768.786	155.06
769.226	154.86
769.666	209.56
770.106	404.56
770.546	1058.96
770.986	1940.26
771.426	1818.26
771.866	585.16
772.306	242.26
772.745	141.96
773.185	115.46
773.625	116.36
774.065	107.46
774.505	115.06
774.944	151.96
775.384	265.36
775.824	457.36
776.263	462.76
776.703	215.66
777.142	118.06
777.582	90.86
778.021	84.66
778.461	88.06
778.9	93.76
779.34	93.36
779.779	77.56
780.219	74.16
780.658	68.66
781.097	73.86
781.537	85.76
781.976	75.86
782.415	67.36
782.855	71.46
783.294	72.76
783.733	72.16
784.172	66.76
784.611	73.26
785.05	67.86
785.489	77.26
785.928	85.46
786.367	86.76
786.806	83.86
787.245	92.76
787.684	97.16
788.123	101.36
788.562	94.56
789.001	90.76
789.44	85.16
789.879	80.46
790.317	79.66
790.756	96.26
791.195	88.56
791.634	101.56
792.072	139.86
792.511	246.16
792.95	678.46
793.388	1553.36
793.827	1488.16
794.265	494.76
794.704	197.26
795.142	129.86
795.581	113.66
796.019	100.26
796.458	88.56
796.896	85.16
797.334	90.26
797.773	107.56
798.211	152.56
798.649	295.86
799.087	711.56
799.526	1155.36
799.964	1466.96
800.402	1543.66
800.84	574.76
801.278	221.16
801.716	128.06
802.154	110.86
802.592	101.26
803.03	101.16
803.468	95.36
803.906	90.16
804.344	103.16
804.782	99.16
805.22	99.16
805.658	90.36
806.096	107.86
806.533	115.26
806.971	119.86
807.409	153.86
807.847	219.06
808.284	458.06
808.722	1325.76
809.16	2467.76
809.597	2280.06
810.035	4059.36
810.472	4651.66
810.91	1635.46
811.347	611.36
811.785	303.26
812.222	194.56
812.66	140.86
813.097	120.96
813.535	105.96
813.972	96.46
814.409	78.66
814.846	74.66
815.284	83.06
815.721	65.36
816.158	72.86
816.595	79.06
817.032	113.06
817.47	140.76
817.907	101.76
818.344	77.16
818.781	74.56
819.218	69.16
819.655	92.56
820.092	145.26
820.529	169.56
820.966	132.06
821.403	98.86
821.839	71.26
822.276	74.56
822.713	92.26
823.15	108.66
823.587	80.76
824.023	102.66
824.46	200.66
824.897	621.76
825.333	1030.66
825.77	447.56
826.206	166.36
826.643	97.56
827.08	68.56
827.516	56.46
827.953	57.66
828.389	60.76
828.825	49.26
829.262	42.26
829.698	44.16
830.135	46.56
830.571	42.56
831.007	49.36
831.443	47.56
831.88	45.06
832.316	42.26
832.752	42.46
833.188	48.76
833.624	47.36
834.06	47.36
834.497	47.16
834.933	50.56
835.369	48.26
835.805	49.96
836.241	53.96
836.677	52.76
837.112	65.96
837.548	70.66
837.984	94.36
838.42	141.16
838.856	339.96
839.292	1100.46
839.727	1775.66
840.163	824.06
840.599	657.46
841.034	1492.96
841.47	1670.16
841.906	597.16
842.341	238.86
842.777	141.76
843.212	147.36
843.648	141.46
844.083	76.46
844.519	60.16
844.954	49.26
845.39	42.76
845.825	37.56
846.261	38.66
846.696	40.36
847.131	33.56
847.566	46.26
848.002	37.16
848.437	40.66
848.872	41.46
849.307	44.76
849.742	55.16
850.177	125.36
850.613	396.66
851.048	659.66
851.483	285.16
851.918	108.06
852.353	60.76
852.788	30.96
853.223	40.26
853.657	41.36
854.092	35.46
854.527	28.36
854.962	24.76
855.397	30.76
855.832	38.66
856.266	30.86
856.701	27.26
857.136	27.76
857.57	34.66
858.005	34.96
858.44	46.86
858.874	29.96
859.309	40.86
859.743	25.36
860.178	34.96
860.612	26.16
861.047	37.76
861.481	49.56
861.915	58.46
862.35	41.66
862.784	19.46
863.218	26.16
863.653	23.76
864.087	31.46
864.521	38.86
864.955	44.66
865.39	105.86
865.824	133.66
866.258	88.06
866.692	132.46
867.126	151.36
867.56	84.66
867.994	46.56
868.428	22.96
868.862	36.96
869.296	48.16
869.73	46.06
870.164	34.66
870.598	32.96
871.031	36.96
871.465	22.36
871.899	30.36
872.333	19.36
872.766	21.96
873.2	13.36
873.634	26.16
874.067	18.46
874.501	17.66
874.935	21.66
875.368	22.56
875.802	17.86
876.235	15.36
876.669	18.76
877.102	12.86
877.535	22.06
877.969	13.66
878.402	17.16
878.836	14.36
879.269	14.26
879.702	17.56
880.135	14.46
880.569	15.36
881.002	16.66
881.435	18.56
881.868	9.36
882.301	12.86
882.734	10.06
883.167	18.26
883.601	8.26
884.034	13.76
884.467	9.36
884.899	18.96
885.332	16.56
885.765	6.96
886.198	12.66
886.631	11.46
887.064	15.86
887.497	13.66
887.929	17.76
888.362	11.66
888.795	5.86
889.228	18.16
889.66	17.16
890.093	8.16
890.526	5.66
890.958	13.76
891.391	11.26
891.823	19.86
892.256	12.56
892.688	9.06
893.121	13.16
893.553	12.86
893.985	22.76
894.418	19.96
894.85	3.66
895.282	10.76
895.715	11.46
896.147	10.66
896.579	8.86
897.011	8.26
897.444	7.76
897.876	5.86
898.308	14.26
898.74	7.66
899.172	5.36
899.604	23.86
900.036	14.16
900.468	12.66
900.9	14.16
901.332	12.96
901.764	7.86
902.196	9.36
902.628	17.16
903.06	9.16
903.491	25.26
903.923	22.36
904.355	12.56
904.787	17.86
905.218	7.06
905.65	12.66
906.082	3.96
906.513	7.56
906.945	5.76
907.376	8.66
907.808	17.86
908.239	14.86
908.671	11.36
909.102	9.86
909.534	15.56
909.965	34.96
910.397	60.66
910.828	239.66
911.259	371.56
911.691	163.56
912.122	83.36
912.553	39.26
912.984	23.06
913.415	22.26
913.847	19.56
914.278	5.46
914.709	12.46
915.14	18.26
915.571	12.76
916.002	8.16
916.433	17.56
916.864	14.76
917.295	10.46
917.726	14.76
918.157	6.36
918.587	17.56
919.018	10.16
919.449	17.86
919.88	16.46
920.311	21.76
920.741	32.86
921.172	120.16
921.603	110.66
922.033	50.76
922.464	31.86
922.895	16.16
923.325	19.26
923.756	7.16
924.186	6.66
924.617	8.86
925.047	12.16
925.478	14.96
925.908	16.86
926.338	11.86
926.769	11.76
927.199	16.86
927.629	3.76
928.06	14.96
928.49	3.76
928.92	12.26
929.35	7.36
929.78	8.66
930.21	2.16
930.641	8.46
931.071	3.86
931.501	-0.14
931.931	6.36
932.361	13.36
932.791	2.66
933.221	6.56
933.651	1.46
934.08	11.56
934.51	22.16
934.94	5.86
935.37	9.86
935.8	8.76
936.229	6.36
936.659	15.06
937.089	3.96
937.519	7.46
937.948	20.66
938.378	12.76
938.807	3.36
939.237	6.76
939.666	4.66
940.096	-4.24
940.525	1.36
940.955	2.76
941.384	4.26
941.814	-10.84
942.243	-2.74
942.672	-0.94
943.102	-3.54
943.531	-7.04
943.96	2.56
944.39	1.96
944.819	0.06
945.248	6.76
945.677	2.26
946.106	0.66
946.535	5.06
946.964	8.06
947.393	1.86
947.822	-2.84
948.251	-6.24
948.68	2.36
949.109	5.36
949.538	5.16
949.967	3.46
950.396	1.66
950.825	-6.34
951.254	-2.74
951.682	-9.84
952.111	2.66
952.54	6.26
952.969	2.56
953.397	-4.64
953.826	7.76
954.254	-8.84
954.683	0.86
955.112	3.76
955.54	-0.04
955.969	2.96
956.397	-3.24
956.826	5.56
957.254	-0.44
957.682	5.76
958.111	3.96
958.539	6.46
958.967	-0.54
959.396	-1.14
959.824	4.46
960.252	1.66
960.68	-6.84
961.109	-2.44
961.537	-2.54
961.965	-3.14
962.393	6.06
962.821	-6.14
963.249	2.06
963.677	6.46
964.105	3.16
964.533	32.16
964.961	36.26
965.389	14.26
965.817	2.66
966.245	6.96
966.672	-5.04
967.1	-5.34
967.528	-0.94
967.956	-4.64
968.383	4.16
968.811	-1.14
969.239	-4.44
969.666	-9.54
970.094	-1.24
970.522	2.66
970.949	-2.44
971.377	-5.84
971.804	-3.14
972.232	-1.64
972.659	-1.34
973.087	-2.74
973.514	-4.44
973.941	-5.34
974.369	2.26
974.796	6.26
975.223	8.06
975.651	2.26
976.078	2.96
976.505	-1.94
976.932	-0.74
977.359	13.26
977.786	14.36
978.214	1.56
978.641	-1.34
979.068	-4.94
979.495	-1.14
979.922	0.16
980.349	-5.04
980.776	4.26
981.202	3.56
981.629	10.06
982.056	0.16
982.483	-1.24
982.91	2.96
983.337	-9.04
983.763	4.76
984.19	-0.64
984.617	0.36
985.043	-5.44
985.47	4.56
985.897	-0.74
986.323	-5.14
986.75	-0.24
987.176	3.26
987.603	-2.14
988.029	4.26
988.456	3.06
988.882	0.86
989.308	-2.04
989.735	-3.84
990.161	1.66
990.587	-2.44
991.014	0.16
991.44	3.06
991.866	0.36
992.292	-3.24
992.719	-6.44
993.145	2.96
993.571	-10.14
993.997	1.36
994.423	-0.94
994.849	0.16
995.275	-3.04
995.701	3.86
996.127	-7.14
996.553	4.76
996.979	-0.74
997.405	2.76
997.83	-4.94
998.256	-6.74
998.682	-2.14
999.108	-3.74
999.534	0.46
999.959	3.46
1000.385	-4.84
1000.811	8.76
1001.236	-5.84
1001.662	-7.54
1002.087	-6.34
1002.513	0.36
1002.938	0.86
1003.364	-0.34
1003.789	4.26
1004.215	3.46
1004.64	-4.54
1005.066	-0.34
1005.491	5.86
1005.916	1.46
1006.342	-4.34
1006.767	-6.24
1007.192	10.16
1007.617	-4.54
1008.042	-2.74
1008.468	-3.84
1008.893	-4.54
1009.318	-5.44
1009.743	-4.44
1010.168	-0.04
1010.593	-3.44
1011.018	-4.64
1011.443	2.06
1011.868	8.26
1012.293	-2.84
1012.718	-4.74
1013.143	0.56
1013.567	-1.24
1013.992	0.46
1014.417	-11.14
1014.842	8.26
1015.267	-5.64
1015.691	-1.04
1016.116	6.76
1016.541	-3.94
1016.965	-0.44
1017.39	-1.44
1017.814	-0.64
1018.239	-2.84
1018.663	-7.94
1019.088	-6.34
1019.512	-5.34
1019.937	-0.84
1020.361	-4.44
1020.785	-7.44
1021.21	-6.44
1021.634	-2.74
1022.058	-5.04
1022.483	4.06
1022.907	-7.34
1023.331	-8.64
1023.755	-1.84
1024.179	-1.34
1024.604	-3.44
1025.028	0.26
1025.452	-2.14
1025.876	1.26
1026.3	-0.84
1026.724	-9.44
1027.148	-3.74
1027.572	-12.04
1027.996	-3.34
1028.42	-4.54
1028.843	-7.94
1029.267	-0.84
1029.691	-5.74
1030.115	-0.54
1030.539	-7.94
1030.962	-6.54
1031.386	-8.54
1031.81	1.76
1032.233	2.46
1032.657	-1.34
1033.08	3.46
1033.504	-5.34
1033.927	-3.14
1034.351	0.46
1034.774	-0.04
1035.198	0.36
1035.621	-6.94
1036.045	-5.64
1036.468	2.46
1036.891	-9.94
1037.315	-8.54
1037.738	-7.34
1038.161	3.46
1038.584	-4.64
1039.008	-10.04
1039.431	-7.04
1039.854	0.36
1040.277	-7.24
1040.7	-15.34
1041.123	1.66
1041.546	-4.14
1041.969	-0.44
1042.392	-4.24
1042.815	0.06
1043.238	2.66
1043.661	6.46
1044.084	-5.64
1044.507	-4.94
1044.93	-2.74
1045.352	-3.04
1045.775	-4.84
1046.198	-5.74
1046.621	-6.64
1047.043	-1.24
1047.466	3.66
1047.889	2.46
1048.311	-4.74
1048.734	-4.04
1049.156	-1.14
1049.579	1.06
1050.001	-3.34
1050.424	-0.24
1050.846	0.46
1051.269	1.06
1051.691	-2.94
1052.113	-3.34
1052.536	0.46
1052.958	-1.64
1053.38	-4.64
1053.802	-8.84
1054.225	0.76
1054.647	-10.14
1055.069	-7.24
1055.491	6.76
1055.913	-3.54
1056.335	-2.64
1056.757	-3.44
1057.179	-3.54
1057.601	-1.64
1058.023	-6.34
1058.445	-1.74
1058.867	-3.04
1059.289	-0.94
1059.711	-0.44
1060.133	1.76
1060.555	-3.74
1060.976	-6.34
1061.398	-3.14
1061.82	-5.14
1062.241	-1.24
1062.663	-6.74
1063.085	-1.54
1063.506	-2.44
1063.928	-1.54
1064.35	0.46
1064.771	-8.24
1065.193	-1.84
1065.614	-3.04
1066.035	1.16
1066.457	-1.54
1066.878	4.06
1067.3	-8.64
1067.721	-2.74
1068.142	-3.14
1068.564	-5.54
1068.985	-8.64
1069.406	-9.44
1069.827	-5.34
1070.248	-0.74
1070.67	-4.94
1071.091	-8.24
1071.512	-4.74
1071.933	-1.14
1072.354	-5.14
1072.775	-1.44
1073.196	-5.74
1073.617	-0.94
1074.038	-5.24
1074.459	-4.44
1074.88	-3.24
1075.3	3.66
1075.721	-5.64
1076.142	4.06
1076.563	-2.44
1076.983	-3.24
1077.404	-5.34
1077.825	-14.84
1078.246	1.46
1078.666	-7.74
1079.087	-2.24
1079.507	-6.44
1079.928	2.26
1080.348	4.96
1080.769	-4.34
1081.189	-2.94
1081.61	-6.34
1082.03	-2.14
1082.451	-4.24
1082.871	-5.14
1083.291	-11.44
1083.711	-7.64
1084.132	-3.94
1084.552	-4.74
1084.972	4.16
1085.392	-4.74
1085.813	-3.04
1086.233	-1.04
1086.653	-0.24
1087.073	-3.74
1087.493	-4.64
1087.913	-5.74
1088.333	-7.44
1088.753	-2.54
1089.173	1.46
1089.593	2.36
1090.013	2.66
1090.433	3.76
1090.852	1.16
1091.272	2.76
1091.692	-7.94
1092.112	-6.44
1092.531	-7.74
1092.951	-12.24
1093.371	6.66
1093.79	8.56
1094.21	-3.14
1094.63	-6.74
1095.049	-2.14
1095.469	-1.64
1095.888	-1.84
1096.308	1.76
1096.727	5.76
1097.146	3.66
1097.566	-0.44
1097.985	-7.74
1098.405	-2.54
1098.824	-4.74
1099.243	-5.94
1099.662	-7.14
1100.082	-0.54
1100.501	1.16
1100.92	-0.94
1101.339	-7.64
1101.758	-4.14
