Data from 20171114-ORNL-Ar_H_NY_Subt18_08-04-00-424.txt Node
Date: Tue Nov 14 08:04:00 EST 2017
User: Ender
Spectrometer: HR+D1039
Trigger mode: 0
Integration Time (sec): 2.730000E-2
Scans to average: 10
Electric dark correction enabled: true
Nonlinearity correction enabled: false
Boxcar width: 0
XAxis mode: Wavelengths
Number of Pixels in Spectrum: 2048
>>>>>Begin Spectral Data<<<<<
187.836	-1.39
188.309	-1.39
188.782	-1.39
189.255	4.61
189.728	-4.49
190.201	4.91
190.674	-2.19
191.147	-2.19
191.619	-5.79
192.092	-3.49
192.565	1.41
193.038	4.71
193.511	5.21
193.984	0.51
194.456	-0.99
194.929	-1.89
195.402	-0.39
195.874	1.51
196.347	-5.69
196.82	-3.79
197.292	2.71
197.765	0.81
198.237	-8.29
198.71	3.01
199.182	-1.29
199.655	1.71
200.127	0.51
200.6	-2.29
201.072	-8.89
201.544	-5.19
202.017	-4.39
202.489	1.21
202.961	0.91
203.433	-8.09
203.906	-7.89
204.378	-8.99
204.85	-6.19
205.322	-12.29
205.794	-4.39
206.266	-6.19
206.739	-5.09
207.211	2.61
207.683	-10.39
208.155	-10.59
208.627	-3.89
209.099	-6.89
209.57	-6.79
210.042	-9.19
210.514	-3.79
210.986	-0.39
211.458	-9.89
211.93	-7.09
212.402	-6.19
212.873	-7.29
213.345	-10.49
213.817	-11.79
214.288	-1.59
214.76	-12.49
215.232	-6.99
215.703	-4.59
216.175	-4.99
216.646	-8.09
217.118	-10.59
217.589	-8.19
218.061	-1.69
218.532	-7.29
219.004	-2.89
219.475	-3.99
219.946	2.51
220.418	-6.59
220.889	7.31
221.36	-0.39
221.832	-6.89
222.303	-2.19
222.774	-7.69
223.245	-9.19
223.717	-7.59
224.188	-5.99
224.659	-7.89
225.13	-5.49
225.601	-1.39
226.072	-1.69
226.543	-5.09
227.014	-0.39
227.485	-6.69
227.956	-6.39
228.427	-4.59
228.898	0.11
229.369	4.71
229.839	-5.29
230.31	-10.39
230.781	-1.69
231.252	-5.89
231.722	-6.49
232.193	-2.99
232.664	-3.69
233.135	-2.59
233.605	-3.79
234.076	-11.79
234.546	-4.09
235.017	0.81
235.487	-3.19
235.958	-1.79
236.428	-6.89
236.899	-7.59
237.369	-2.49
237.84	-8.09
238.31	0.01
238.78	-3.69
239.251	-9.49
239.721	0.01
240.191	-1.89
240.662	-4.19
241.132	1.11
241.602	-6.79
242.072	-4.19
242.542	1.71
243.013	-2.19
243.483	0.31
243.953	0.61
244.423	-6.49
244.893	-10.19
245.363	2.41
245.833	-2.09
246.303	-4.99
246.773	-0.69
247.243	-6.39
247.712	-3.89
248.182	4.81
248.652	3.91
249.122	-8.59
249.592	5.61
250.061	8.71
250.531	15.61
251.001	11.11
251.471	15.31
251.94	12.81
252.41	-0.49
252.879	-7.49
253.349	4.41
253.818	2.91
254.288	3.51
254.757	2.31
255.227	-2.29
255.696	-2.59
256.166	-3.99
256.635	1.81
257.105	-1.39
257.574	4.71
258.043	-2.29
258.513	-3.99
258.982	7.71
259.451	1.51
259.92	12.01
260.389	3.21
260.859	10.51
261.328	4.21
261.797	3.71
262.266	-1.79
262.735	6.81
263.204	3.11
263.673	-2.49
264.142	3.51
264.611	-5.29
265.08	-3.39
265.549	-6.29
266.018	2.71
266.487	-4.59
266.955	-6.29
267.424	-2.89
267.893	5.51
268.362	-6.19
268.83	-2.99
269.299	6.31
269.768	-0.09
270.236	5.41
270.705	-2.59
271.174	-1.29
271.642	4.91
272.111	-0.09
272.579	5.81
273.048	4.11
273.516	8.31
273.985	11.41
274.453	9.91
274.922	3.21
275.39	4.81
275.858	4.71
276.327	4.61
276.795	15.11
277.263	1.91
277.731	14.91
278.2	24.11
278.668	27.91
279.136	18.41
279.604	8.31
280.072	6.61
280.54	6.41
281.008	3.51
281.477	6.41
281.945	9.51
282.413	2.71
282.881	7.71
283.348	-1.79
283.816	8.71
284.284	12.01
284.752	12.01
285.22	8.51
285.688	9.41
286.156	8.41
286.623	18.91
287.091	21.51
287.559	12.11
288.026	8.41
288.494	11.11
288.962	-1.59
289.429	5.01
289.897	13.41
290.364	10.81
290.832	1.11
291.3	10.61
291.767	8.31
292.234	8.51
292.702	7.21
293.169	12.41
293.637	17.41
294.104	13.81
294.571	-4.09
295.039	2.61
295.506	2.41
295.973	10.91
296.44	8.81
296.908	11.61
297.375	1.41
297.842	13.01
298.309	8.71
298.776	6.01
299.243	16.81
299.71	-0.59
300.177	11.21
300.644	8.41
301.111	8.21
301.578	16.51
302.045	5.41
302.512	14.01
302.979	11.81
303.446	9.51
303.913	8.51
304.379	10.41
304.846	20.41
305.313	11.71
305.78	17.21
306.246	16.41
306.713	15.81
307.18	15.71
307.646	17.61
308.113	12.31
308.579	7.21
309.046	14.91
309.512	10.41
309.979	8.91
310.445	22.51
310.912	25.11
311.378	21.11
311.845	16.31
312.311	22.91
312.777	16.21
313.244	14.51
313.71	27.31
314.176	21.41
314.642	19.41
315.109	18.71
315.575	20.61
316.041	24.21
316.507	14.21
316.973	25.31
317.439	21.61
317.905	23.51
318.371	19.91
318.837	21.21
319.303	19.31
319.769	25.31
320.235	19.91
320.701	18.71
321.167	23.71
321.633	21.51
322.099	29.21
322.564	29.01
323.03	28.61
323.496	25.21
323.962	23.31
324.427	22.11
324.893	29.21
325.359	25.11
325.824	23.31
326.29	25.11
326.755	30.51
327.221	30.01
327.686	29.91
328.152	34.81
328.617	31.01
329.083	34.41
329.548	40.01
330.014	34.91
330.479	28.71
330.944	29.71
331.41	29.01
331.875	32.21
332.34	25.01
332.805	32.31
333.271	36.21
333.736	32.01
334.201	42.11
334.666	44.01
335.131	43.01
335.596	34.51
336.061	39.21
336.526	28.61
336.991	39.41
337.456	42.61
337.921	34.81
338.386	31.71
338.851	32.91
339.316	33.71
339.781	29.71
340.246	39.31
340.711	29.41
341.175	35.91
341.64	34.71
342.105	37.51
342.569	39.71
343.034	41.31
343.499	49.51
343.963	34.01
344.428	42.91
344.893	45.81
345.357	46.31
345.822	50.31
346.286	50.01
346.751	54.01
347.215	50.91
347.679	55.91
348.144	65.71
348.608	63.61
349.073	54.51
349.537	56.41
350.001	62.91
350.465	64.41
350.93	61.91
351.394	61.21
351.858	58.41
352.322	68.71
352.786	62.61
353.25	68.51
353.715	85.41
354.179	77.01
354.643	86.41
355.107	95.81
355.571	77.41
356.035	74.51
356.498	81.01
356.962	90.51
357.426	92.01
357.89	87.71
358.354	69.71
358.818	68.01
359.281	66.01
359.745	67.31
360.209	62.51
360.673	65.81
361.136	65.81
361.6	70.91
362.064	69.01
362.527	70.41
362.991	73.31
363.454	66.21
363.918	59.81
364.381	66.91
364.845	67.61
365.308	68.81
365.772	69.21
366.235	73.61
366.698	63.81
367.162	71.21
367.625	65.81
368.088	70.71
368.552	66.31
369.015	68.61
369.478	81.91
369.941	85.61
370.404	75.81
370.867	84.21
371.331	85.21
371.794	91.41
372.257	89.71
372.72	95.31
373.183	89.71
373.646	87.21
374.109	83.61
374.572	86.91
375.035	84.11
375.497	94.61
375.96	83.01
376.423	87.21
376.886	90.81
377.349	89.41
377.811	91.21
378.274	88.01
378.737	89.61
379.199	94.51
379.662	94.61
380.125	99.01
380.587	98.11
381.05	101.01
381.512	103.71
381.975	112.11
382.437	106.41
382.9	105.71
383.362	113.01
383.825	110.81
384.287	119.91
384.75	115.91
385.212	121.81
385.674	121.91
386.136	117.61
386.599	110.01
387.061	110.71
387.523	105.81
387.985	111.91
388.447	121.71
388.91	122.01
389.372	127.71
389.834	127.81
390.296	119.21
390.758	128.91
391.22	138.71
391.682	166.81
392.144	226.61
392.606	190.71
393.068	140.81
393.529	138.11
393.991	132.81
394.453	130.41
394.915	133.71
395.377	158.51
395.838	170.71
396.3	136.71
396.762	126.11
397.224	122.71
397.685	119.21
398.147	118.51
398.608	115.51
399.07	110.01
399.531	122.81
399.993	122.71
400.454	130.61
400.916	126.51
401.377	126.41
401.839	140.41
402.3	138.31
402.762	148.41
403.223	159.71
403.684	152.81
404.145	147.51
404.607	146.01
405.068	144.91
405.529	147.21
405.99	161.11
406.451	151.61
406.913	152.71
407.374	149.31
407.835	146.01
408.296	149.41
408.757	160.61
409.218	163.11
409.679	159.51
410.14	155.21
410.601	161.51
411.062	162.41
411.522	170.71
411.983	171.81
412.444	159.61
412.905	160.41
413.366	160.11
413.826	177.71
414.287	197.31
414.748	240.31
415.208	233.71
415.669	204.41
416.13	186.91
416.59	185.71
417.051	197.31
417.511	206.31
417.972	218.91
418.432	233.21
418.893	268.51
419.353	235.01
419.814	179.81
420.274	168.71
420.734	163.21
421.195	174.71
421.655	171.91
422.115	172.61
422.576	176.41
423.036	175.21
423.496	181.41
423.956	193.31
424.416	208.11
424.876	237.81
425.336	235.01
425.797	234.11
426.257	235.81
426.717	215.61
427.177	208.61
427.637	204.61
428.097	211.61
428.556	222.31
429.016	246.01
429.476	229.01
429.936	242.41
430.396	247.61
430.856	266.41
431.315	280.71
431.775	304.51
432.235	340.81
432.694	308.11
433.154	316.81
433.614	325.61
434.073	281.21
434.533	252.61
434.993	236.61
435.452	252.71
435.912	249.11
436.371	250.81
436.83	244.01
437.29	230.51
437.749	222.61
438.209	210.91
438.668	229.71
439.127	243.81
439.587	223.41
440.046	210.11
440.505	224.91
440.964	236.81
441.424	261.81
441.883	249.11
442.342	226.31
442.801	209.41
443.26	202.81
443.719	199.01
444.178	192.31
444.637	194.51
445.096	193.91
445.555	197.41
446.014	203.31
446.473	199.71
446.932	203.31
447.391	202.41
447.849	206.31
448.308	200.91
448.767	202.31
449.226	216.71
449.685	214.31
450.143	228.31
450.602	211.11
451.061	206.51
451.519	201.61
451.978	209.01
452.436	210.71
452.895	206.81
453.353	221.21
453.812	214.41
454.27	215.91
454.729	208.01
455.187	214.31
455.646	216.21
456.104	222.41
456.562	219.71
457.021	229.51
457.479	223.11
457.937	233.71
458.395	230.51
458.854	218.71
459.312	222.51
459.77	234.01
460.228	225.11
460.686	214.31
461.144	220.21
461.602	223.41
462.06	221.91
462.518	226.31
462.976	226.11
463.434	237.21
463.892	241.91
464.35	246.71
464.808	256.41
465.266	242.61
465.724	237.01
466.181	250.21
466.639	241.31
467.097	259.81
467.555	271.31
468.012	271.31
468.47	275.21
468.928	293.31
469.385	310.61
469.843	300.81
470.3	305.61
470.758	310.41
471.215	328.11
471.673	346.41
472.13	345.51
472.588	361.31
473.045	337.61
473.503	336.01
473.96	351.21
474.417	346.71
474.875	373.11
475.332	405.71
475.789	396.91
476.246	412.01
476.704	428.01
477.161	440.21
477.618	459.61
478.075	480.11
478.532	522.31
478.989	591.71
479.446	664.41
479.903	656.21
480.36	706.41
480.817	743.71
481.274	841.81
481.731	927.51
482.188	1005.31
482.645	1133.91
483.102	1208.01
483.558	1323.71
484.015	1385.81
484.472	1386.21
484.929	1327.41
485.385	1278.71
485.842	1243.41
486.299	1194.41
486.755	1113.01
487.212	962.91
487.668	816.81
488.125	747.91
488.582	693.11
489.038	663.41
489.494	636.11
489.951	606.71
490.407	589.91
490.864	581.61
491.32	566.51
491.776	557.41
492.233	566.51
492.689	531.01
493.145	535.81
493.602	519.21
494.058	536.21
494.514	526.81
494.97	548.41
495.426	562.31
495.882	534.31
496.338	530.01
496.794	538.11
497.251	531.81
497.707	540.41
498.163	556.71
498.618	538.31
499.074	550.61
499.53	570.11
499.986	569.01
500.442	553.61
500.898	543.01
501.354	540.21
501.809	539.81
502.265	547.61
502.721	554.01
503.177	569.71
503.632	561.91
504.088	574.61
504.543	590.11
504.999	589.21
505.455	560.61
505.91	550.41
506.366	554.11
506.821	555.11
507.277	546.11
507.732	543.01
508.187	542.81
508.643	541.71
509.098	548.51
509.553	568.81
510.009	574.51
510.464	573.61
510.919	589.21
511.375	593.31
511.83	605.61
512.285	612.11
512.74	645.21
513.195	656.41
513.65	654.41
514.105	652.81
514.56	656.31
515.015	675.11
515.47	695.61
515.925	669.51
516.38	673.71
516.835	688.31
517.29	681.81
517.745	670.41
518.2	656.91
518.655	637.91
519.109	638.71
519.564	640.21
520.019	630.21
520.474	618.51
520.928	611.91
521.383	618.11
521.838	612.81
522.292	605.01
522.747	601.91
523.201	599.51
523.656	599.91
524.11	589.61
524.565	582.41
525.019	575.91
525.474	595.51
525.928	588.71
526.382	588.91
526.837	585.61
527.291	587.51
527.745	586.71
528.2	584.51
528.654	580.41
529.108	579.11
529.562	588.41
530.016	580.21
530.47	578.81
530.925	586.11
531.379	587.81
531.833	594.01
532.287	585.71
532.741	589.01
533.195	586.21
533.649	592.61
534.103	595.81
534.556	581.21
535.01	595.81
535.464	595.11
535.918	596.31
536.372	597.51
536.826	579.71
537.279	574.31
537.733	591.21
538.187	593.41
538.64	594.41
539.094	593.21
539.548	603.11
540.001	589.91
540.455	586.11
540.908	609.21
541.362	612.71
541.815	619.21
542.269	626.31
542.722	627.61
543.175	638.51
543.629	640.21
544.082	650.01
544.536	654.41
544.989	650.61
545.442	652.71
545.895	648.01
546.349	644.41
546.802	650.81
547.255	651.21
547.708	653.21
548.161	667.91
548.614	677.71
549.067	677.41
549.52	677.41
549.973	663.41
550.426	667.91
550.879	652.21
551.332	653.91
551.785	658.61
552.238	654.71
552.691	678.31
553.144	678.91
553.596	693.51
554.049	701.41
554.502	722.51
554.955	733.21
555.407	738.71
555.86	730.81
556.313	717.71
556.765	707.61
557.218	716.11
557.67	715.41
558.123	707.51
558.576	699.71
559.028	709.51
559.48	715.21
559.933	701.81
560.385	681.81
560.838	655.91
561.29	642.01
561.742	624.01
562.195	608.81
562.647	612.31
563.099	621.81
563.551	620.31
564.004	636.51
564.456	620.41
564.908	611.11
565.36	603.41
565.812	581.01
566.264	582.81
566.716	570.41
567.168	564.51
567.62	575.61
568.072	564.71
568.524	555.21
568.976	543.71
569.428	531.01
569.88	535.71
570.332	544.71
570.784	541.11
571.235	542.91
571.687	544.81
572.139	559.21
572.59	559.51
573.042	573.81
573.494	557.21
573.945	550.01
574.397	534.61
574.849	539.21
575.3	537.31
575.752	534.01
576.203	521.71
576.655	535.01
577.106	514.41
577.557	516.21
578.009	529.01
578.46	515.71
578.912	517.41
579.363	515.41
579.814	517.21
580.265	518.51
580.717	522.21
581.168	518.91
581.619	520.41
582.07	531.01
582.521	524.81
582.972	524.81
583.423	529.31
583.875	522.01
584.326	544.81
584.777	564.51
585.227	618.41
585.678	678.61
586.129	746.81
586.58	797.51
587.031	855.01
587.482	971.31
587.933	1096.31
588.384	962.71
588.834	739.41
589.285	617.21
589.736	606.01
590.186	595.71
590.637	596.11
591.088	582.61
591.538	568.51
591.989	561.01
592.439	564.91
592.89	553.71
593.34	548.11
593.791	541.81
594.241	528.31
594.692	536.91
595.142	526.71
595.593	527.61
596.043	539.71
596.493	547.01
596.943	535.91
597.394	555.71
597.844	540.51
598.294	551.21
598.744	580.31
599.195	594.51
599.645	621.91
600.095	644.51
600.545	700.11
600.995	725.91
601.445	767.51
601.895	819.21
602.345	862.51
602.795	855.71
603.245	816.01
603.695	771.01
604.145	732.61
604.594	693.21
605.044	652.01
605.494	600.31
605.944	564.31
606.393	557.41
606.843	547.21
607.293	552.01
607.743	544.01
608.192	555.11
608.642	569.71
609.091	572.11
609.541	569.71
609.99	573.71
610.44	563.21
610.889	540.91
611.339	516.71
611.788	510.51
612.238	516.81
612.687	531.31
613.136	538.01
613.586	545.51
614.035	540.91
614.484	548.61
614.933	550.41
615.383	555.01
615.832	535.71
616.281	525.61
616.73	507.31
617.179	494.51
617.628	484.41
618.077	471.41
618.526	460.61
618.975	460.51
619.424	467.61
619.873	450.51
620.322	459.61
620.771	451.11
621.22	454.21
621.669	442.81
622.118	436.11
622.567	418.61
623.015	417.91
623.464	413.61
623.913	411.71
624.361	407.91
624.81	408.81
625.259	407.21
625.707	416.01
626.156	400.31
626.604	418.91
627.053	405.01
627.501	412.31
627.95	417.01
628.398	425.11
628.847	417.31
629.295	420.51
629.744	419.51
630.192	416.91
630.64	417.61
631.089	399.41
631.537	408.51
631.985	409.41
632.433	413.81
632.881	415.01
633.33	441.41
633.778	430.11
634.226	402.11
634.674	403.41
635.122	402.91
635.57	416.21
636.018	436.91
636.466	417.11
636.914	409.01
637.362	429.61
637.81	419.31
638.258	426.01
638.705	418.81
639.153	439.51
639.601	442.81
640.049	464.91
640.497	486.01
640.944	511.31
641.392	471.01
641.84	455.51
642.287	433.21
642.735	420.11
643.182	417.21
643.63	412.71
644.078	406.21
644.525	420.61
644.973	428.81
645.42	430.21
645.867	455.41
646.315	451.21
646.762	474.61
647.21	491.41
647.657	506.11
648.104	537.71
648.551	556.41
648.999	594.91
649.446	653.21
649.893	695.01
650.34	824.41
650.787	966.91
651.234	1207.31
651.682	1548.31
652.129	2103.91
652.576	3011.91
653.023	4454.01
653.47	6230.21
653.917	7857.41
654.363	9248.81
654.81	10548.41
655.257	10023.81
655.704	6517.31
656.151	3797.01
656.598	2464.01
657.044	1751.61
657.491	1335.71
657.938	1063.91
658.385	886.51
658.831	767.51
659.278	686.91
659.724	613.21
660.171	561.71
660.618	510.41
661.064	489.51
661.511	459.41
661.957	451.31
662.404	436.21
662.85	438.61
663.296	433.61
663.743	399.51
664.189	384.41
664.635	378.81
665.082	379.81
665.528	365.31
665.974	359.21
666.42	365.71
666.867	355.31
667.313	341.41
667.759	334.91
668.205	334.91
668.651	340.31
669.097	342.81
669.543	345.91
669.989	333.01
670.435	322.01
670.881	315.71
671.327	315.81
671.773	338.01
672.219	348.71
672.665	389.91
673.11	407.01
673.556	454.11
674.002	480.71
674.448	466.61
674.893	395.51
675.339	340.51
675.785	311.31
676.23	302.11
676.676	285.01
677.122	266.91
677.567	264.91
678.013	262.21
678.458	254.91
678.904	250.61
679.349	245.91
679.794	244.71
680.24	246.31
680.685	242.71
681.131	240.91
681.576	245.91
682.021	241.01
682.466	247.31
682.912	250.41
683.357	243.71
683.802	270.01
684.247	286.61
684.692	318.51
685.137	341.11
685.583	380.31
686.028	397.41
686.473	373.81
686.918	315.01
687.363	290.21
687.807	272.91
688.252	252.01
688.697	250.41
689.142	235.31
689.587	233.31
690.032	228.51
690.477	235.51
690.921	239.51
691.366	269.71
691.811	276.71
692.255	303.11
692.7	326.71
693.145	344.01
693.589	474.41
694.034	770.11
694.478	1088.01
694.923	1271.71
695.367	1695.11
695.812	871.71
696.256	351.71
696.701	264.91
697.145	238.01
697.59	229.51
698.034	221.31
698.478	233.21
698.922	228.81
699.367	232.71
699.811	234.61
700.255	250.61
700.699	269.21
701.143	287.21
701.588	333.11
702.032	374.41
702.476	365.71
702.92	351.21
703.364	334.81
703.808	438.51
704.252	708.81
704.696	1010.31
705.14	1213.51
705.584	1581.41
706.027	780.01
706.471	364.81
706.915	275.81
707.359	244.21
707.803	218.21
708.246	213.21
708.69	221.11
709.134	228.41
709.577	220.81
710.021	218.61
710.465	214.41
710.908	207.31
711.352	204.41
711.795	210.71
712.239	242.91
712.682	261.71
713.126	291.31
713.569	335.41
714.012	258.51
714.456	223.91
714.899	209.91
715.342	189.11
715.786	179.21
716.229	177.31
716.672	180.21
717.115	171.51
717.558	165.41
718.002	176.81
718.445	183.71
718.888	196.31
719.331	204.41
719.774	217.81
720.217	211.21
720.66	194.91
721.103	189.11
721.546	175.81
721.989	172.61
722.432	161.71
722.874	163.11
723.317	159.71
723.76	159.61
724.203	172.31
724.645	215.51
725.088	302.61
725.531	402.21
725.974	459.71
726.416	392.31
726.859	209.71
727.301	169.41
727.744	161.41
728.187	157.31
728.629	164.31
729.071	165.51
729.514	184.31
729.956	186.61
730.399	193.01
730.841	197.91
731.283	193.11
731.726	180.91
732.168	187.11
732.61	183.91
733.053	189.91
733.495	215.41
733.937	235.21
734.379	269.21
734.821	300.01
735.263	367.71
735.705	565.51
736.148	1072.01
736.59	1837.21
737.032	2253.71
737.474	1855.51
737.916	590.01
738.357	297.61
738.799	229.21
739.241	207.51
739.683	189.61
740.125	200.41
740.567	208.21
741.008	228.71
741.45	220.31
741.892	220.21
742.334	247.51
742.775	256.91
743.217	246.51
743.658	190.21
744.1	176.31
744.542	189.51
744.983	220.21
745.425	257.31
745.866	252.41
746.307	199.71
746.749	189.21
747.19	224.21
747.632	305.61
748.073	578.01
748.514	1266.71
748.956	2039.61
749.397	2552.81
749.838	2131.81
750.279	2206.71
750.72	1109.91
751.162	399.21
751.603	222.11
752.044	172.81
752.485	145.81
752.926	138.51
753.367	137.01
753.808	135.21
754.249	127.51
754.69	126.01
755.131	121.91
755.572	121.01
756.013	123.41
756.453	125.21
756.894	121.41
757.335	126.51
757.776	125.91
758.216	135.31
758.657	142.01
759.098	131.31
759.538	153.01
759.979	174.31
760.42	246.41
760.86	471.81
761.301	1235.81
761.741	3100.01
762.182	4919.61
762.622	3485.51
763.063	967.01
763.503	389.31
763.943	238.41
764.384	225.51
764.824	271.81
765.264	295.41
765.705	204.51
766.145	143.71
766.585	123.51
767.025	121.71
767.465	117.91
767.906	159.31
768.346	206.11
768.786	226.21
769.226	176.11
769.666	219.01
770.106	413.81
770.546	1052.71
770.986	1940.01
771.426	1778.51
771.866	566.21
772.306	223.71
772.745	140.71
773.185	119.11
773.625	115.71
774.065	107.61
774.505	127.91
774.944	194.31
775.384	408.21
775.824	778.11
776.263	768.61
776.703	323.71
777.142	145.21
777.582	107.41
778.021	95.41
778.461	93.11
778.9	94.51
779.34	89.41
779.779	77.91
780.219	69.81
780.658	72.11
781.097	74.81
781.537	74.91
781.976	68.61
782.415	73.61
782.855	72.61
783.294	72.41
783.733	67.21
784.172	76.51
784.611	67.41
785.05	68.21
785.489	81.51
785.928	77.31
786.367	75.11
786.806	78.41
787.245	86.71
787.684	96.81
788.123	106.31
788.562	92.21
789.001	90.51
789.44	80.71
789.879	80.91
790.317	73.91
790.756	88.51
791.195	81.41
791.634	96.21
792.072	139.11
792.511	245.11
792.95	680.71
793.388	1556.81
793.827	1479.91
794.265	490.41
794.704	196.01
795.142	128.61
795.581	101.31
796.019	96.11
796.458	87.41
796.896	80.31
797.334	93.01
797.773	107.61
798.211	151.71
798.649	292.31
799.087	710.91
799.526	1134.11
799.964	1441.11
800.402	1521.61
800.84	552.01
801.278	208.31
801.716	123.11
802.154	104.21
802.592	100.81
803.03	95.91
803.468	94.71
803.906	101.51
804.344	105.31
804.782	95.71
805.22	87.31
805.658	90.01
806.096	110.01
806.533	113.41
806.971	119.21
807.409	152.21
807.847	224.11
808.284	456.91
808.722	1295.91
809.16	2450.31
809.597	2239.51
810.035	4028.11
810.472	4539.71
810.91	1601.31
811.347	576.71
811.785	289.61
812.222	181.51
812.66	136.91
813.097	119.51
813.535	103.21
813.972	84.91
814.409	78.31
814.846	73.51
815.284	77.81
815.721	73.61
816.158	66.51
816.595	73.81
817.032	121.11
817.47	136.71
817.907	122.81
818.344	94.11
818.781	81.91
819.218	62.31
819.655	81.41
820.092	136.81
820.529	164.51
820.966	131.01
821.403	96.81
821.839	75.21
822.276	63.71
822.713	81.81
823.15	98.41
823.587	83.31
824.023	101.11
824.46	201.71
824.897	624.21
825.333	1007.71
825.77	433.01
826.206	164.61
826.643	82.61
827.08	62.41
827.516	58.31
827.953	55.11
828.389	57.31
828.825	48.01
829.262	43.91
829.698	43.01
830.135	45.61
830.571	44.71
831.007	41.51
831.443	38.61
831.88	40.81
832.316	35.81
832.752	35.71
833.188	37.31
833.624	44.51
834.06	47.11
834.497	42.21
834.933	47.11
835.369	50.51
835.805	45.71
836.241	51.31
836.677	51.01
837.112	57.01
837.548	71.61
837.984	91.01
838.42	142.21
838.856	339.41
839.292	1080.51
839.727	1763.91
840.163	793.31
840.599	645.81
841.034	1496.41
841.47	1657.41
841.906	587.11
842.341	235.91
842.777	148.61
843.212	209.61
843.648	200.81
844.083	97.81
844.519	61.91
844.954	48.31
845.39	34.21
845.825	37.91
846.261	38.01
846.696	38.91
847.131	34.81
847.566	37.01
848.002	33.21
848.437	32.41
848.872	38.21
849.307	37.21
849.742	57.11
850.177	123.41
850.613	396.21
851.048	656.81
851.483	276.31
851.918	100.71
852.353	54.81
852.788	37.61
853.223	40.61
853.657	35.01
854.092	29.01
854.527	22.01
854.962	21.01
855.397	26.11
855.832	34.01
856.266	28.71
856.701	30.41
857.136	27.01
857.57	21.81
858.005	33.71
858.44	39.11
858.874	29.51
859.309	32.11
859.743	21.61
860.178	26.91
860.612	27.21
861.047	38.41
861.481	45.01
861.915	51.81
862.35	37.01
862.784	21.41
863.218	24.01
863.653	23.31
864.087	37.11
864.521	40.81
864.955	48.91
865.39	103.01
865.824	125.51
866.258	79.11
866.692	126.11
867.126	131.71
867.56	71.81
867.994	38.91
868.428	24.81
868.862	32.01
869.296	38.31
869.73	38.11
870.164	38.31
870.598	32.81
871.031	30.11
871.465	18.91
871.899	18.71
872.333	13.61
872.766	14.31
873.2	14.81
873.634	21.41
874.067	12.41
874.501	13.91
874.935	20.41
875.368	17.51
875.802	14.81
876.235	12.61
876.669	12.21
877.102	7.21
877.535	20.21
877.969	14.31
878.402	15.21
878.836	7.71
879.269	15.31
879.702	16.91
880.135	14.01
880.569	12.41
881.002	13.91
881.435	15.81
881.868	11.41
882.301	15.51
882.734	7.81
883.167	19.51
883.601	13.71
884.034	13.11
884.467	4.51
884.899	12.71
885.332	10.01
885.765	2.21
886.198	10.61
886.631	10.61
887.064	11.11
887.497	13.01
887.929	15.71
888.362	6.11
888.795	5.91
889.228	10.71
889.66	15.11
890.093	10.21
890.526	5.91
890.958	7.51
891.391	12.91
891.823	10.01
892.256	8.81
892.688	7.11
893.121	11.01
893.553	7.41
893.985	15.21
894.418	4.51
894.85	3.81
895.282	7.11
895.715	14.21
896.147	7.81
896.579	7.61
897.011	7.11
897.444	11.81
897.876	5.81
898.308	7.41
898.74	14.91
899.172	3.81
899.604	20.71
900.036	11.91
900.468	11.01
900.9	5.41
901.332	9.41
901.764	3.71
902.196	9.11
902.628	10.61
903.06	9.31
903.491	19.61
903.923	13.81
904.355	11.41
904.787	21.01
905.218	14.61
905.65	10.61
906.082	3.81
906.513	8.41
906.945	8.11
907.376	6.21
907.808	10.61
908.239	14.31
908.671	11.31
909.102	14.21
909.534	15.71
909.965	29.71
910.397	60.01
910.828	233.21
911.259	370.71
911.691	168.01
912.122	86.21
912.553	39.41
912.984	21.51
913.415	20.21
913.847	19.81
914.278	10.11
914.709	3.41
915.14	8.01
915.571	7.51
916.002	7.01
916.433	11.71
916.864	10.81
917.295	7.61
917.726	19.81
918.157	9.61
918.587	22.51
919.018	17.51
919.449	11.71
919.88	19.31
920.311	15.51
920.741	29.11
921.172	113.51
921.603	108.91
922.033	44.11
922.464	27.41
922.895	13.51
923.325	8.81
923.756	8.21
924.186	6.31
924.617	12.91
925.047	20.71
925.478	29.01
925.908	25.61
926.338	12.51
926.769	11.91
927.199	17.71
927.629	2.21
928.06	10.01
928.49	12.11
928.92	6.01
929.35	10.51
929.78	7.01
930.21	2.11
930.641	4.91
931.071	0.71
931.501	-0.69
931.931	7.41
932.361	-2.49
932.791	-1.79
933.221	0.31
933.651	-0.19
934.08	4.81
934.51	17.51
934.94	3.11
935.37	7.11
935.8	4.01
936.229	0.71
936.659	6.21
937.089	1.81
937.519	7.51
937.948	20.61
938.378	9.51
938.807	0.71
939.237	1.41
939.666	0.51
940.096	-6.79
940.525	-2.89
940.955	3.31
941.384	-0.99
941.814	-5.09
942.243	-5.79
942.672	3.41
943.102	-5.29
943.531	1.91
943.96	2.51
944.39	2.11
944.819	-5.99
945.248	-4.49
945.677	2.71
946.106	1.11
946.535	-0.09
946.964	-4.29
947.393	0.71
947.822	5.01
948.251	-1.59
948.68	1.81
949.109	7.51
949.538	0.71
949.967	0.81
950.396	3.01
950.825	2.91
951.254	-0.49
951.682	-9.59
952.111	-0.99
952.54	1.31
952.969	-5.89
953.397	-4.79
953.826	1.61
954.254	-7.29
954.683	-4.59
955.112	-6.79
955.54	-6.99
955.969	-7.09
956.397	0.41
956.826	-4.29
957.254	2.01
957.682	-0.89
958.111	6.31
958.539	-3.89
958.967	-1.19
959.396	-1.69
959.824	-5.49
960.252	4.01
960.68	-6.59
961.109	-3.49
961.537	-7.19
961.965	-1.99
962.393	-2.29
962.821	-6.99
963.249	-3.69
963.677	-4.69
964.105	0.81
964.533	32.91
964.961	31.21
965.389	12.51
965.817	4.41
966.245	2.01
966.672	0.51
967.1	-5.89
967.528	-2.39
967.956	-4.69
968.383	-1.79
968.811	-8.79
969.239	-5.49
969.666	-6.09
970.094	1.91
970.522	-3.99
970.949	-5.39
971.377	-4.79
971.804	-5.29
972.232	-5.19
972.659	-4.49
973.087	-2.89
973.514	-4.79
973.941	-5.99
974.369	2.51
974.796	-2.39
975.223	-1.99
975.651	-1.59
976.078	-4.39
976.505	-3.19
976.932	-1.89
977.359	11.11
977.786	7.71
978.214	0.01
978.641	-10.49
979.068	-2.89
979.495	-6.89
979.922	-6.89
980.349	-3.59
980.776	-2.09
981.202	-3.39
981.629	3.31
982.056	1.51
982.483	-4.99
982.91	-0.79
983.337	-9.79
983.763	-0.39
984.19	-7.99
984.617	-6.29
985.043	-9.39
985.47	-4.39
985.897	-6.49
986.323	-3.19
986.75	0.71
987.176	-4.29
987.603	0.21
988.029	-0.69
988.456	-9.19
988.882	1.71
989.308	-13.39
989.735	-7.39
990.161	-5.79
990.587	-9.59
991.014	-3.59
991.44	2.81
991.866	-5.59
992.292	-8.09
992.719	-4.29
993.145	1.01
993.571	-12.19
993.997	-5.79
994.423	-4.29
994.849	-6.09
995.275	-1.89
995.701	-0.19
996.127	-7.19
996.553	1.61
996.979	-8.29
997.405	-4.39
997.83	-5.99
998.256	-10.09
998.682	-4.19
999.108	-7.89
999.534	-3.79
999.959	-4.09
1000.385	-5.99
1000.811	-0.39
1001.236	-7.99
1001.662	-10.19
1002.087	-3.79
1002.513	1.81
1002.938	0.21
1003.364	-7.89
1003.789	-0.39
1004.215	2.41
1004.64	-7.89
1005.066	-2.79
1005.491	-0.79
1005.916	-6.59
1006.342	-4.19
1006.767	-8.79
1007.192	1.81
1007.617	-7.09
1008.042	-9.19
1008.468	-7.49
1008.893	-6.79
1009.318	-6.69
1009.743	-4.69
1010.168	0.51
1010.593	-4.09
1011.018	-8.69
1011.443	-1.09
1011.868	0.81
1012.293	2.31
1012.718	-11.09
1013.143	-7.39
1013.567	-4.99
1013.992	-4.39
1014.417	-19.59
1014.842	-0.29
1015.267	-5.59
1015.691	-5.39
1016.116	-2.39
1016.541	-2.19
1016.965	-3.19
1017.39	-7.29
1017.814	-2.59
1018.239	3.31
1018.663	-10.19
1019.088	-7.79
1019.512	-5.09
1019.937	-4.89
1020.361	-2.79
1020.785	-12.09
1021.21	-5.69
1021.634	-2.79
1022.058	-3.89
1022.483	-3.29
1022.907	-3.29
1023.331	-2.69
1023.755	-4.89
1024.179	-2.49
1024.604	-12.79
1025.028	-4.39
1025.452	-1.69
1025.876	-0.19
1026.3	-1.59
1026.724	-16.29
1027.148	-6.29
1027.572	-7.49
1027.996	-2.99
1028.42	1.61
1028.843	-3.99
1029.267	-10.59
1029.691	-3.99
1030.115	-1.89
1030.539	-4.89
1030.962	-8.39
1031.386	-8.89
1031.81	2.01
1032.233	-0.49
1032.657	-4.89
1033.08	-5.79
1033.504	-7.19
1033.927	-3.09
1034.351	-2.29
1034.774	-8.19
1035.198	0.01
1035.621	-4.89
1036.045	-12.39
1036.468	0.61
1036.891	-13.89
1037.315	-11.79
1037.738	-6.09
1038.161	-3.09
1038.584	-6.59
1039.008	-9.29
1039.431	-4.19
1039.854	-2.49
1040.277	-7.49
1040.7	-17.39
1041.123	1.61
1041.546	-13.49
1041.969	-2.69
1042.392	-12.19
1042.815	-4.19
1043.238	-0.09
1043.661	1.91
1044.084	-10.59
1044.507	-10.39
1044.93	-7.89
1045.352	-11.09
1045.775	-1.09
1046.198	-0.79
1046.621	-7.29
1047.043	-7.79
1047.466	2.41
1047.889	-7.79
1048.311	-8.49
1048.734	-5.09
1049.156	-9.29
1049.579	-6.69
1050.001	-7.79
1050.424	1.31
1050.846	-4.49
1051.269	-2.79
1051.691	-3.29
1052.113	-11.79
1052.536	-4.59
1052.958	-6.29
1053.38	-8.09
1053.802	-11.19
1054.225	-4.09
1054.647	-14.79
1055.069	-11.89
1055.491	7.01
1055.913	-12.19
1056.335	-2.09
1056.757	-8.59
1057.179	-9.29
1057.601	-6.09
1058.023	-1.49
1058.445	-6.49
1058.867	-9.09
1059.289	-4.69
1059.711	-9.29
1060.133	-6.29
1060.555	-5.59
1060.976	-8.69
1061.398	-4.29
1061.82	-7.59
1062.241	-10.09
1062.663	-8.89
1063.085	-10.29
1063.506	-7.39
1063.928	-2.89
1064.35	0.01
1064.771	-10.39
1065.193	-6.09
1065.614	-13.09
1066.035	2.01
1066.457	-6.49
1066.878	-8.19
1067.3	-7.59
1067.721	-3.59
1068.142	-2.29
1068.564	-12.09
1068.985	-4.29
1069.406	-8.09
1069.827	-2.29
1070.248	-2.19
1070.67	-6.19
1071.091	-7.39
1071.512	-2.89
1071.933	-10.09
1072.354	-13.39
1072.775	-4.79
1073.196	-12.79
1073.617	-6.39
1074.038	-13.39
1074.459	-2.49
1074.88	-9.89
1075.3	-2.39
1075.721	-6.59
1076.142	1.31
1076.563	-4.59
1076.983	-13.69
1077.404	-4.49
1077.825	-18.29
1078.246	-8.79
1078.666	-12.89
1079.087	-2.79
1079.507	-7.09
1079.928	3.61
1080.348	-4.89
1080.769	-12.49
1081.189	1.51
1081.61	-6.39
1082.03	-9.39
1082.451	-8.69
1082.871	-7.49
1083.291	-7.39
1083.711	-7.19
1084.132	-7.49
1084.552	-5.19
1084.972	-9.69
1085.392	-10.19
1085.813	-9.19
1086.233	-7.39
1086.653	-6.89
1087.073	-7.59
1087.493	-10.49
1087.913	-9.79
1088.333	-7.99
1088.753	-2.89
1089.173	-1.49
1089.593	-7.69
1090.013	-5.69
1090.433	-0.49
1090.852	-4.59
1091.272	-3.59
1091.692	-10.99
1092.112	-7.49
1092.531	-12.69
1092.951	-12.89
1093.371	-6.49
1093.79	-4.79
1094.21	-4.39
1094.63	-9.49
1095.049	-5.19
1095.469	-5.09
1095.888	-1.49
1096.308	-3.49
1096.727	1.11
1097.146	-4.19
1097.566	1.31
1097.985	-10.89
1098.405	-7.09
1098.824	-8.89
1099.243	-7.49
1099.662	-10.29
1100.082	-7.89
1100.501	-4.49
1100.92	-8.89
1101.339	-4.99
1101.758	-7.09
