Data from 20171114-ORNL-Ar_H_NY_Subt18_08-03-54-146.txt Node
Date: Tue Nov 14 08:03:54 EST 2017
User: Ender
Spectrometer: HR+D1039
Trigger mode: 0
Integration Time (sec): 2.730000E-2
Scans to average: 10
Electric dark correction enabled: true
Nonlinearity correction enabled: false
Boxcar width: 0
XAxis mode: Wavelengths
Number of Pixels in Spectrum: 2048
>>>>>Begin Spectral Data<<<<<
187.836	-7.89
188.309	-7.89
188.782	-7.89
189.255	0.61
189.728	0.71
190.201	6.71
190.674	0.81
191.147	2.31
191.619	-6.99
192.092	5.31
192.565	6.21
193.038	1.61
193.511	-1.99
193.984	0.51
194.456	-1.19
194.929	0.91
195.402	-3.09
195.874	-4.59
196.347	-0.09
196.82	-2.69
197.292	0.81
197.765	0.11
198.237	-4.59
198.71	-0.89
199.182	-2.99
199.655	-0.69
200.127	6.51
200.6	-0.99
201.072	-4.09
201.544	-8.39
202.017	-7.49
202.489	6.01
202.961	1.41
203.433	-0.19
203.906	-9.89
204.378	-8.39
204.85	-0.59
205.322	-5.79
205.794	0.51
206.266	1.41
206.739	-8.79
207.211	2.91
207.683	-13.99
208.155	-5.39
208.627	-3.69
209.099	1.51
209.57	-7.49
210.042	0.61
210.514	-1.09
210.986	-1.99
211.458	-9.69
211.93	-0.49
212.402	2.81
212.873	-6.99
213.345	-4.79
213.817	-9.59
214.288	-3.19
214.76	-12.59
215.232	0.71
215.703	-4.79
216.175	-0.09
216.646	-4.69
217.118	-8.79
217.589	-2.79
218.061	-4.29
218.532	-1.29
219.004	-7.69
219.475	-1.19
219.946	-1.59
220.418	-6.99
220.889	-2.99
221.36	2.21
221.832	-4.49
222.303	-8.09
222.774	-0.49
223.245	-6.69
223.717	-5.19
224.188	-4.79
224.659	-3.39
225.13	1.71
225.601	-1.79
226.072	-2.79
226.543	0.81
227.014	1.21
227.485	-4.59
227.956	-7.59
228.427	-0.59
228.898	-0.49
229.369	4.01
229.839	-2.39
230.31	-6.09
230.781	3.81
231.252	-10.09
231.722	-6.99
232.193	-7.59
232.664	-6.59
233.135	-3.49
233.605	-0.49
234.076	-5.89
234.546	-0.59
235.017	1.31
235.487	-4.89
235.958	2.71
236.428	-5.19
236.899	-3.79
237.369	0.11
237.84	-11.19
238.31	1.01
238.78	-6.69
239.251	-3.29
239.721	-10.59
240.191	-5.09
240.662	-6.59
241.132	-0.19
241.602	-1.69
242.072	-1.49
242.542	5.91
243.013	-5.19
243.483	-0.19
243.953	5.11
244.423	-7.29
244.893	-8.69
245.363	-1.89
245.833	-2.39
246.303	-5.39
246.773	7.41
247.243	-3.09
247.712	8.11
248.182	3.31
248.652	1.61
249.122	-5.99
249.592	-4.09
250.061	3.81
250.531	9.21
251.001	6.31
251.471	-0.39
251.94	11.01
252.41	-2.49
252.879	-7.69
253.349	3.41
253.818	10.01
254.288	2.11
254.757	-5.99
255.227	-1.69
255.696	-0.69
256.166	2.01
256.635	0.11
257.105	2.01
257.574	4.21
258.043	3.01
258.513	-6.89
258.982	2.11
259.451	-8.39
259.92	-0.49
260.389	-1.29
260.859	8.91
261.328	1.51
261.797	3.01
262.266	-2.19
262.735	4.91
263.204	2.21
263.673	3.11
264.142	0.11
264.611	-4.39
265.08	-8.89
265.549	-6.19
266.018	3.51
266.487	-4.19
266.955	-1.89
267.424	2.11
267.893	5.31
268.362	-5.99
268.83	2.51
269.299	4.41
269.768	5.61
270.236	1.61
270.705	-1.79
271.174	5.41
271.642	-0.79
272.111	0.61
272.579	-2.09
273.048	3.21
273.516	-2.19
273.985	0.11
274.453	0.61
274.922	11.41
275.39	1.11
275.858	-4.29
276.327	9.41
276.795	13.91
277.263	2.41
277.731	9.01
278.2	7.71
278.668	6.61
279.136	7.21
279.604	2.61
280.072	3.71
280.54	6.31
281.008	0.71
281.477	12.11
281.945	4.61
282.413	3.01
282.881	9.91
283.348	0.51
283.816	7.01
284.284	1.61
284.752	16.91
285.22	3.51
285.688	11.11
286.156	2.11
286.623	12.11
287.091	1.91
287.559	8.71
288.026	4.31
288.494	4.81
288.962	-0.29
289.429	3.21
289.897	11.21
290.364	2.41
290.832	12.61
291.3	8.11
291.767	12.11
292.234	8.81
292.702	9.41
293.169	11.91
293.637	5.51
294.104	10.31
294.571	5.31
295.039	6.21
295.506	6.81
295.973	11.21
296.44	7.11
296.908	5.21
297.375	6.51
297.842	6.11
298.309	8.41
298.776	-1.39
299.243	14.81
299.71	7.21
300.177	15.01
300.644	15.91
301.111	17.11
301.578	16.81
302.045	7.81
302.512	12.81
302.979	15.51
303.446	13.41
303.913	9.71
304.379	6.21
304.846	17.01
305.313	16.01
305.78	12.81
306.246	11.91
306.713	18.71
307.18	20.11
307.646	16.71
308.113	21.11
308.579	12.61
309.046	11.01
309.512	15.91
309.979	9.31
310.445	21.51
310.912	19.81
311.378	27.21
311.845	17.31
312.311	22.21
312.777	21.51
313.244	23.41
313.71	26.31
314.176	18.81
314.642	13.91
315.109	15.21
315.575	23.21
316.041	29.81
316.507	21.61
316.973	28.71
317.439	19.61
317.905	26.01
318.371	29.41
318.837	23.31
319.303	21.71
319.769	26.81
320.235	28.41
320.701	30.21
321.167	26.61
321.633	27.31
322.099	27.11
322.564	37.11
323.03	31.61
323.496	30.41
323.962	28.51
324.427	27.81
324.893	32.11
325.359	24.31
325.824	27.11
326.29	30.51
326.755	30.61
327.221	26.71
327.686	33.91
328.152	39.51
328.617	31.51
329.083	34.71
329.548	37.01
330.014	40.31
330.479	28.21
330.944	33.21
331.41	28.41
331.875	38.11
332.34	26.71
332.805	27.41
333.271	37.21
333.736	27.81
334.201	38.81
334.666	37.41
335.131	38.71
335.596	43.41
336.061	44.21
336.526	29.41
336.991	41.01
337.456	44.11
337.921	49.91
338.386	39.81
338.851	35.91
339.316	37.61
339.781	37.01
340.246	41.71
340.711	40.01
341.175	38.61
341.64	34.71
342.105	42.71
342.569	44.61
343.034	52.11
343.499	51.41
343.963	44.61
344.428	55.91
344.893	48.21
345.357	52.51
345.822	58.61
346.286	56.01
346.751	56.81
347.215	53.91
347.679	55.51
348.144	74.41
348.608	65.31
349.073	58.91
349.537	57.41
350.001	62.11
350.465	74.01
350.93	67.61
351.394	66.01
351.858	64.01
352.322	68.71
352.786	69.71
353.25	82.61
353.715	89.51
354.179	76.11
354.643	96.31
355.107	99.41
355.571	86.21
356.035	77.71
356.498	90.61
356.962	88.41
357.426	98.01
357.89	93.01
358.354	78.21
358.818	78.11
359.281	69.61
359.745	65.11
360.209	69.11
360.673	67.61
361.136	71.61
361.6	73.61
362.064	72.51
362.527	82.31
362.991	80.21
363.454	75.01
363.918	74.21
364.381	65.81
364.845	75.91
365.308	74.11
365.772	77.31
366.235	78.61
366.698	79.01
367.162	75.91
367.625	73.41
368.088	74.91
368.552	80.81
369.015	79.01
369.478	80.01
369.941	88.41
370.404	80.01
370.867	93.31
371.331	90.81
371.794	92.21
372.257	87.71
372.72	97.41
373.183	96.01
373.646	83.31
374.109	86.11
374.572	87.51
375.035	90.41
375.497	98.41
375.96	94.21
376.423	99.01
376.886	97.61
377.349	95.81
377.811	92.01
378.274	96.21
378.737	99.61
379.199	102.61
379.662	98.01
380.125	99.11
380.587	100.41
381.05	107.31
381.512	110.01
381.975	113.21
382.437	110.51
382.9	107.31
383.362	117.21
383.825	121.01
384.287	119.21
384.75	116.71
385.212	113.11
385.674	124.71
386.136	122.31
386.599	115.51
387.061	113.41
387.523	115.51
387.985	125.91
388.447	124.61
388.91	119.21
389.372	121.61
389.834	127.61
390.296	119.61
390.758	121.21
391.22	125.71
391.682	141.21
392.144	141.41
392.606	134.41
393.068	130.51
393.529	146.61
393.991	135.61
394.453	127.71
394.915	127.41
395.377	130.91
395.838	135.21
396.3	127.81
396.762	134.71
397.224	129.81
397.685	124.61
398.147	129.81
398.608	127.71
399.07	128.01
399.531	131.31
399.993	137.11
400.454	148.51
400.916	151.41
401.377	142.11
401.839	143.21
402.3	147.81
402.762	163.41
403.223	170.01
403.684	164.01
404.145	157.51
404.607	160.51
405.068	166.91
405.529	169.91
405.99	175.41
406.451	165.81
406.913	167.61
407.374	164.71
407.835	156.81
408.296	161.31
408.757	165.01
409.218	174.31
409.679	177.11
410.14	171.31
410.601	170.91
411.062	173.91
411.522	175.61
411.983	166.51
412.444	168.31
412.905	175.51
413.366	182.91
413.826	205.11
414.287	223.11
414.748	260.51
415.208	249.61
415.669	215.21
416.13	209.11
416.59	205.41
417.051	216.71
417.511	221.51
417.972	246.71
418.432	255.21
418.893	289.21
419.353	259.31
419.814	198.81
420.274	186.61
420.734	181.11
421.195	188.51
421.655	188.91
422.115	188.11
422.576	196.21
423.036	205.21
423.496	208.91
423.956	218.21
424.416	227.91
424.876	266.61
425.336	253.81
425.797	254.31
426.257	251.81
426.717	239.81
427.177	229.91
427.637	217.71
428.097	227.51
428.556	239.91
429.016	257.11
429.476	249.71
429.936	261.21
430.396	264.61
430.856	272.61
431.315	302.41
431.775	326.21
432.235	368.51
432.694	337.01
433.154	340.51
433.614	361.41
434.073	317.11
434.533	264.41
434.993	261.11
435.452	260.51
435.912	272.71
436.371	263.61
436.83	256.61
437.29	246.51
437.749	226.41
438.209	229.61
438.668	249.91
439.127	260.51
439.587	247.11
440.046	234.41
440.505	248.01
440.964	255.91
441.424	282.71
441.883	276.61
442.342	248.71
442.801	216.61
443.26	214.41
443.719	215.41
444.178	225.41
444.637	207.41
445.096	222.21
445.555	217.31
446.014	217.71
446.473	224.61
446.932	229.01
447.391	221.71
447.849	223.11
448.308	219.51
448.767	217.01
449.226	228.61
449.685	235.81
450.143	241.01
450.602	234.71
451.061	221.21
451.519	234.41
451.978	231.41
452.436	228.81
452.895	223.61
453.353	241.61
453.812	234.01
454.27	228.91
454.729	234.21
455.187	226.31
455.646	239.31
456.104	235.41
456.562	249.11
457.021	256.21
457.479	246.31
457.937	255.71
458.395	251.71
458.854	245.11
459.312	242.71
459.77	244.61
460.228	243.31
460.686	241.71
461.144	243.81
461.602	241.41
462.06	245.21
462.518	249.91
462.976	246.51
463.434	248.31
463.892	250.61
464.35	267.21
464.808	272.81
465.266	263.31
465.724	271.01
466.181	276.71
466.639	266.11
467.097	280.41
467.555	286.01
468.012	299.01
468.47	300.51
468.928	316.01
469.385	325.51
469.843	326.71
470.3	327.11
470.758	340.21
471.215	353.21
471.673	363.71
472.13	375.01
472.588	375.51
473.045	360.61
473.503	366.51
473.96	373.61
474.417	379.31
474.875	412.31
475.332	431.21
475.789	433.81
476.246	442.01
476.704	456.51
477.161	459.21
477.618	479.01
478.075	514.01
478.532	552.11
478.989	610.01
479.446	697.91
479.903	685.61
480.36	718.61
480.817	762.21
481.274	845.61
481.731	923.61
482.188	1004.31
482.645	1105.71
483.102	1203.21
483.558	1297.61
484.015	1335.51
484.472	1324.91
484.929	1293.71
485.385	1260.71
485.842	1227.91
486.299	1173.21
486.755	1118.91
487.212	974.61
487.668	836.81
488.125	791.71
488.582	721.31
489.038	693.61
489.494	656.11
489.951	625.51
490.407	619.91
490.864	597.31
491.32	595.01
491.776	590.81
492.233	592.41
492.689	559.51
493.145	568.81
493.602	552.51
494.058	565.61
494.514	566.01
494.97	571.61
495.426	581.71
495.882	566.31
496.338	565.71
496.794	570.61
497.251	566.51
497.707	575.71
498.163	580.01
498.618	583.51
499.074	567.51
499.53	588.71
499.986	595.71
500.442	589.61
500.898	562.61
501.354	568.11
501.809	569.51
502.265	576.81
502.721	574.81
503.177	584.71
503.632	591.21
504.088	590.51
504.543	602.61
504.999	618.81
505.455	589.81
505.91	584.91
506.366	587.31
506.821	578.71
507.277	572.51
507.732	582.91
508.187	581.41
508.643	592.31
509.098	582.11
509.553	610.31
510.009	608.21
510.464	610.61
510.919	627.01
511.375	627.81
511.83	640.51
512.285	649.51
512.74	672.71
513.195	690.21
513.65	687.41
514.105	695.61
514.56	687.51
515.015	694.71
515.47	707.31
515.925	707.01
516.38	700.21
516.835	712.71
517.29	697.61
517.745	697.51
518.2	689.11
518.655	678.81
519.109	674.91
519.564	669.41
520.019	659.01
520.474	641.21
520.928	651.21
521.383	647.51
521.838	639.61
522.292	634.61
522.747	627.71
523.201	638.11
523.656	622.31
524.11	621.81
524.565	614.31
525.019	616.41
525.474	620.81
525.928	614.51
526.382	614.71
526.837	626.41
527.291	623.11
527.745	618.81
528.2	629.91
528.654	611.21
529.108	605.01
529.562	605.21
530.016	597.21
530.47	604.41
530.925	607.61
531.379	616.21
531.833	623.11
532.287	623.61
532.741	611.81
533.195	601.41
533.649	619.91
534.103	620.91
534.556	609.11
535.01	606.81
535.464	599.11
535.918	625.91
536.372	616.61
536.826	612.71
537.279	610.21
537.733	610.61
538.187	606.11
538.64	616.81
539.094	632.21
539.548	631.81
540.001	626.11
540.455	619.61
540.908	629.81
541.362	632.51
541.815	636.81
542.269	650.31
542.722	659.71
543.175	660.81
543.629	663.11
544.082	690.61
544.536	681.21
544.989	675.81
545.442	685.11
545.895	683.11
546.349	685.41
546.802	675.81
547.255	686.61
547.708	694.31
548.161	688.01
548.614	693.81
549.067	712.01
549.52	696.11
549.973	696.51
550.426	696.71
550.879	679.81
551.332	681.61
551.785	678.11
552.238	685.51
552.691	700.31
553.144	714.61
553.596	709.81
554.049	728.11
554.502	744.81
554.955	764.21
555.407	761.91
555.86	750.21
556.313	751.11
556.765	739.11
557.218	736.01
557.67	736.01
558.123	728.51
558.576	727.61
559.028	730.31
559.48	744.31
559.933	739.31
560.385	710.61
560.838	682.61
561.29	653.21
561.742	656.51
562.195	644.21
562.647	639.91
563.099	644.11
563.551	641.01
564.004	649.31
564.456	633.71
564.908	628.31
565.36	614.71
565.812	609.91
566.264	598.01
566.716	593.51
567.168	574.41
567.62	591.61
568.072	573.51
568.524	570.41
568.976	575.51
569.428	553.01
569.88	551.81
570.332	559.41
570.784	558.71
571.235	562.71
571.687	568.11
572.139	580.11
572.59	585.81
573.042	577.71
573.494	580.91
573.945	569.91
574.397	550.61
574.849	560.01
575.3	564.41
575.752	548.51
576.203	534.51
576.655	559.31
577.106	542.31
577.557	531.61
578.009	542.21
578.46	530.41
578.912	531.71
579.363	537.01
579.814	534.21
580.265	523.51
580.717	534.41
581.168	537.51
581.619	539.71
582.07	543.51
582.521	532.21
582.972	527.61
583.423	541.11
583.875	531.61
584.326	531.31
584.777	556.31
585.227	568.61
585.678	584.91
586.129	590.91
586.58	618.21
587.031	629.21
587.482	666.41
587.933	690.61
588.384	671.11
588.834	630.31
589.285	618.21
589.736	614.91
590.186	614.71
590.637	601.81
591.088	590.81
591.538	593.01
591.989	577.81
592.439	573.61
592.89	562.31
593.34	543.81
593.791	556.91
594.241	556.21
594.692	542.71
595.142	557.61
595.593	540.41
596.043	547.41
596.493	549.41
596.943	553.41
597.394	561.51
597.844	552.61
598.294	574.41
598.744	585.11
599.195	605.11
599.645	638.31
600.095	666.81
600.545	697.31
600.995	741.61
601.445	788.01
601.895	847.11
602.345	886.01
602.795	860.91
603.245	828.31
603.695	783.81
604.145	743.11
604.594	699.21
605.044	665.01
605.494	608.31
605.944	577.91
606.393	569.31
606.843	552.51
607.293	561.81
607.743	551.91
608.192	557.31
608.642	563.31
609.091	574.31
609.541	572.81
609.99	576.21
610.44	568.21
610.889	536.01
611.339	534.51
611.788	514.41
612.238	524.81
612.687	527.11
613.136	530.01
613.586	534.61
614.035	530.61
614.484	537.11
614.933	537.61
615.383	521.01
615.832	530.01
616.281	525.01
616.73	511.71
617.179	502.41
617.628	489.51
618.077	474.61
618.526	461.01
618.975	465.21
619.424	460.11
619.873	456.31
620.322	465.31
620.771	457.91
621.22	453.51
621.669	442.41
622.118	444.31
622.567	434.91
623.015	416.31
623.464	416.21
623.913	421.91
624.361	412.61
624.81	409.81
625.259	417.71
625.707	417.71
626.156	416.81
626.604	426.21
627.053	420.01
627.501	416.71
627.95	423.81
628.398	426.41
628.847	429.51
629.295	430.41
629.744	425.01
630.192	427.51
630.64	415.61
631.089	408.01
631.537	396.21
631.985	394.21
632.433	397.11
632.881	382.91
633.33	386.51
633.778	379.01
634.226	382.41
634.674	401.61
635.122	403.71
635.57	409.91
636.018	420.21
636.466	418.11
636.914	407.81
637.362	420.11
637.81	426.41
638.258	422.61
638.705	423.81
639.153	442.41
639.601	445.41
640.049	466.71
640.497	499.11
640.944	511.21
641.392	473.81
641.84	452.01
642.287	428.41
642.735	414.51
643.182	409.31
643.63	406.41
644.078	414.61
644.525	424.41
644.973	421.61
645.42	437.81
645.867	437.11
646.315	453.71
646.762	465.51
647.21	490.91
647.657	496.41
648.104	528.41
648.551	536.11
648.999	578.41
649.446	633.11
649.893	682.21
650.34	779.01
650.787	918.71
651.234	1114.21
651.682	1440.01
652.129	1931.21
652.576	2717.91
653.023	3969.31
653.47	5499.61
653.917	6971.01
654.363	8166.81
654.81	9206.21
655.257	8810.61
655.704	5825.51
656.151	3452.01
656.598	2272.01
657.044	1616.31
657.491	1244.81
657.938	1010.61
658.385	846.31
658.831	735.61
659.278	670.71
659.724	596.81
660.171	552.71
660.618	500.41
661.064	475.41
661.511	452.11
661.957	445.21
662.404	437.71
662.85	451.81
663.296	418.51
663.743	397.01
664.189	382.91
664.635	382.21
665.082	377.31
665.528	373.61
665.974	365.81
666.42	357.31
666.867	356.31
667.313	329.11
667.759	321.51
668.205	322.41
668.651	317.11
669.097	321.31
669.543	315.51
669.989	320.31
670.435	316.41
670.881	322.21
671.327	319.71
671.773	335.61
672.219	352.21
672.665	394.51
673.11	420.41
673.556	450.21
674.002	493.81
674.448	480.41
674.893	399.71
675.339	340.01
675.785	318.81
676.23	312.91
676.676	279.01
677.122	271.61
677.567	265.31
678.013	261.61
678.458	250.31
678.904	256.01
679.349	247.61
679.794	258.61
680.24	251.81
680.685	247.91
681.131	249.61
681.576	247.91
682.021	252.51
682.466	252.01
682.912	246.51
683.357	251.11
683.802	268.31
684.247	296.01
684.692	325.51
685.137	357.21
685.583	376.51
686.028	407.71
686.473	376.11
686.918	319.51
687.363	305.11
687.807	277.71
688.252	256.51
688.697	257.31
689.142	236.91
689.587	224.11
690.032	225.11
690.477	238.41
690.921	245.11
691.366	269.21
691.811	276.31
692.255	297.61
692.7	328.71
693.145	351.41
693.589	478.01
694.034	783.91
694.478	1095.41
694.923	1279.51
695.367	1709.31
695.812	894.71
696.256	359.81
696.701	267.41
697.145	242.31
697.59	230.71
698.034	223.91
698.478	231.01
698.922	228.51
699.367	229.61
699.811	235.31
700.255	255.11
700.699	271.01
701.143	289.41
701.588	339.01
702.032	375.01
702.476	362.01
702.92	353.51
703.364	340.71
703.808	444.51
704.252	711.01
704.696	1033.31
705.14	1245.41
705.584	1595.41
706.027	790.81
706.471	372.51
706.915	285.31
707.359	250.81
707.803	226.81
708.246	221.41
708.69	224.31
709.134	222.01
709.577	221.91
710.021	220.21
710.465	213.51
710.908	212.01
711.352	212.21
711.795	213.91
712.239	243.31
712.682	260.31
713.126	293.31
713.569	329.21
714.012	255.91
714.456	207.61
714.899	204.51
715.342	193.21
715.786	186.71
716.229	176.81
716.672	182.11
717.115	179.81
717.558	171.81
718.002	168.51
718.445	183.91
718.888	199.41
719.331	200.91
719.774	222.51
720.217	221.31
720.66	200.81
721.103	193.91
721.546	175.21
721.989	165.61
722.432	161.51
722.874	166.11
723.317	156.91
723.76	162.81
724.203	178.81
724.645	218.51
725.088	300.41
725.531	398.91
725.974	468.81
726.416	392.81
726.859	222.11
727.301	169.91
727.744	167.91
728.187	165.41
728.629	167.81
729.071	169.91
729.514	180.71
729.956	189.21
730.399	199.41
730.841	205.61
731.283	195.21
731.726	192.11
732.168	180.31
732.61	189.61
733.053	197.91
733.495	217.51
733.937	238.11
734.379	279.31
734.821	305.61
735.263	377.61
735.705	577.01
736.148	1076.11
736.59	1829.41
737.032	2294.61
737.474	1873.81
737.916	601.01
738.357	301.41
738.799	232.41
739.241	211.31
739.683	194.51
740.125	204.31
740.567	212.71
741.008	232.71
741.45	233.11
741.892	230.01
742.334	255.41
742.775	262.21
743.217	256.91
743.658	201.01
744.1	181.91
744.542	190.41
744.983	229.51
745.425	261.91
745.866	257.41
746.307	203.11
746.749	199.71
747.19	222.01
747.632	313.71
748.073	591.71
748.514	1270.31
748.956	2049.31
749.397	2586.71
749.838	2165.01
750.279	2248.51
750.72	1131.71
751.162	396.91
751.603	231.41
752.044	178.01
752.485	150.61
752.926	149.71
753.367	142.51
753.808	138.11
754.249	136.41
754.69	129.91
755.131	125.61
755.572	123.01
756.013	127.91
756.453	132.01
756.894	126.51
757.335	129.91
757.776	132.71
758.216	137.41
758.657	136.21
759.098	139.41
759.538	153.71
759.979	188.91
760.42	254.61
760.86	473.21
761.301	1245.31
761.741	3157.81
762.182	5002.71
762.622	3541.91
763.063	990.91
763.503	390.61
763.943	237.31
764.384	199.41
764.824	181.21
765.264	183.61
765.705	151.41
766.145	128.51
766.585	120.21
767.025	124.31
767.465	118.81
767.906	124.21
768.346	143.01
768.786	155.01
769.226	145.11
769.666	207.21
770.106	403.61
770.546	1059.71
770.986	1949.21
771.426	1810.21
771.866	586.41
772.306	230.41
772.745	147.11
773.185	113.91
773.625	116.61
774.065	102.41
774.505	115.71
774.944	151.41
775.384	259.81
775.824	465.41
776.263	461.71
776.703	218.21
777.142	118.91
777.582	89.71
778.021	85.51
778.461	84.11
778.9	81.11
779.34	86.71
779.779	74.31
780.219	75.91
780.658	69.21
781.097	75.61
781.537	79.51
781.976	74.61
782.415	67.21
782.855	67.71
783.294	67.91
783.733	74.81
784.172	70.71
784.611	65.81
785.05	73.21
785.489	71.41
785.928	81.01
786.367	81.41
786.806	80.81
787.245	87.61
787.684	94.01
788.123	105.31
788.562	90.11
789.001	89.11
789.44	87.71
789.879	85.41
790.317	81.91
790.756	91.81
791.195	85.11
791.634	102.81
792.072	136.21
792.511	241.21
792.95	667.61
793.388	1550.81
793.827	1467.01
794.265	491.21
794.704	195.61
795.142	127.51
795.581	114.81
796.019	98.41
796.458	87.01
796.896	86.51
797.334	92.01
797.773	111.11
798.211	148.51
798.649	292.21
799.087	716.31
799.526	1157.41
799.964	1459.91
800.402	1542.51
800.84	569.11
801.278	220.41
801.716	133.21
802.154	103.11
802.592	112.01
803.03	105.61
803.468	90.51
803.906	100.21
804.344	107.81
804.782	94.61
805.22	83.81
805.658	88.71
806.096	102.01
806.533	116.31
806.971	121.21
807.409	151.31
807.847	214.21
808.284	457.81
808.722	1336.91
809.16	2465.31
809.597	2283.71
810.035	4078.51
810.472	4646.21
810.91	1644.01
811.347	601.81
811.785	296.51
812.222	186.91
812.66	140.31
813.097	123.51
813.535	98.41
813.972	86.31
814.409	81.11
814.846	78.71
815.284	74.91
815.721	65.71
816.158	80.21
816.595	78.71
817.032	113.81
817.47	136.71
817.907	105.91
818.344	71.11
818.781	63.61
819.218	66.01
819.655	86.81
820.092	140.71
820.529	170.31
820.966	130.71
821.403	93.71
821.839	69.01
822.276	69.51
822.713	90.41
823.15	100.71
823.587	85.41
824.023	106.81
824.46	204.01
824.897	634.11
825.333	1034.11
825.77	443.91
826.206	161.91
826.643	98.81
827.08	76.81
827.516	56.91
827.953	58.01
828.389	59.61
828.825	50.51
829.262	50.11
829.698	40.61
830.135	47.31
830.571	43.01
831.007	46.81
831.443	44.31
831.88	43.31
832.316	38.81
832.752	45.21
833.188	44.81
833.624	42.51
834.06	43.81
834.497	42.01
834.933	54.01
835.369	53.01
835.805	48.11
836.241	49.61
836.677	52.91
837.112	57.11
837.548	68.61
837.984	90.41
838.42	137.61
838.856	342.61
839.292	1093.11
839.727	1779.81
840.163	814.11
840.599	654.91
841.034	1505.71
841.47	1679.81
841.906	604.41
842.341	241.81
842.777	145.71
843.212	146.41
843.648	141.11
844.083	81.11
844.519	56.11
844.954	50.11
845.39	35.01
845.825	40.11
846.261	30.91
846.696	39.41
847.131	33.11
847.566	37.91
848.002	31.71
848.437	39.71
848.872	37.81
849.307	36.01
849.742	56.31
850.177	119.01
850.613	395.11
851.048	664.81
851.483	280.51
851.918	111.21
852.353	62.31
852.788	34.11
853.223	35.81
853.657	37.11
854.092	27.41
854.527	24.61
854.962	28.91
855.397	27.61
855.832	34.51
856.266	28.61
856.701	29.61
857.136	28.61
857.57	28.71
858.005	30.81
858.44	46.71
858.874	33.01
859.309	40.21
859.743	17.71
860.178	28.41
860.612	30.21
861.047	37.21
861.481	52.41
861.915	52.51
862.35	38.31
862.784	22.91
863.218	22.51
863.653	22.71
864.087	34.21
864.521	39.21
864.955	47.11
865.39	108.11
865.824	130.81
866.258	83.71
866.692	132.41
867.126	146.01
867.56	79.91
867.994	40.01
868.428	31.31
868.862	34.51
869.296	39.31
869.73	44.51
870.164	40.81
870.598	37.91
871.031	29.91
871.465	24.71
871.899	21.71
872.333	9.71
872.766	17.11
873.2	15.51
873.634	19.41
874.067	14.81
874.501	18.21
874.935	29.91
875.368	16.31
875.802	19.21
876.235	16.31
876.669	20.11
877.102	17.31
877.535	19.71
877.969	13.51
878.402	15.41
878.836	11.01
879.269	19.91
879.702	17.41
880.135	6.01
880.569	12.21
881.002	17.31
881.435	15.41
881.868	13.01
882.301	16.81
882.734	12.81
883.167	15.21
883.601	9.31
884.034	16.41
884.467	8.21
884.899	14.61
885.332	7.81
885.765	10.91
886.198	9.71
886.631	12.61
887.064	12.61
887.497	19.51
887.929	22.21
888.362	9.51
888.795	2.51
889.228	13.61
889.66	14.21
890.093	7.91
890.526	10.71
890.958	10.71
891.391	14.21
891.823	17.11
892.256	12.81
892.688	3.71
893.121	9.71
893.553	10.01
893.985	17.21
894.418	17.71
894.85	3.51
895.282	9.51
895.715	7.51
896.147	11.11
896.579	12.81
897.011	10.11
897.444	9.21
897.876	6.31
898.308	16.81
898.74	9.31
899.172	3.71
899.604	10.11
900.036	11.71
900.468	6.31
900.9	11.31
901.332	14.01
901.764	5.71
902.196	5.61
902.628	12.81
903.06	11.01
903.491	21.61
903.923	15.11
904.355	10.91
904.787	21.61
905.218	14.91
905.65	11.61
906.082	5.61
906.513	4.81
906.945	7.91
907.376	8.51
907.808	14.51
908.239	12.71
908.671	12.21
909.102	9.31
909.534	12.61
909.965	30.11
910.397	64.31
910.828	239.21
911.259	361.91
911.691	163.31
912.122	80.41
912.553	42.51
912.984	21.21
913.415	16.91
913.847	15.81
914.278	12.81
914.709	12.31
915.14	13.91
915.571	11.11
916.002	5.21
916.433	15.61
916.864	5.01
917.295	9.21
917.726	19.51
918.157	5.41
918.587	21.31
919.018	17.21
919.449	16.21
919.88	11.01
920.311	21.01
920.741	31.61
921.172	126.61
921.603	117.31
922.033	46.71
922.464	27.41
922.895	17.41
923.325	14.91
923.756	11.91
924.186	1.91
924.617	11.31
925.047	16.91
925.478	12.41
925.908	12.21
926.338	7.41
926.769	7.51
927.199	11.31
927.629	4.11
928.06	10.51
928.49	11.61
928.92	9.41
929.35	8.41
929.78	4.61
930.21	6.11
930.641	-1.19
931.071	9.71
931.501	0.21
931.931	4.11
932.361	3.41
932.791	-1.59
933.221	4.61
933.651	3.41
934.08	8.01
934.51	20.01
934.94	5.71
935.37	11.91
935.8	11.31
936.229	-3.09
936.659	11.01
937.089	3.31
937.519	12.81
937.948	18.91
938.378	19.51
938.807	2.91
939.237	-2.39
939.666	8.41
940.096	-6.69
940.525	-4.59
940.955	0.21
941.384	4.01
941.814	-3.19
942.243	-2.49
942.672	-1.99
943.102	-8.69
943.531	-2.99
943.96	3.21
944.39	1.51
944.819	-0.89
945.248	1.01
945.677	4.71
946.106	6.61
946.535	7.71
946.964	-1.29
947.393	5.81
947.822	-0.09
948.251	-4.79
948.68	-5.09
949.109	1.71
949.538	5.41
949.967	-2.39
950.396	-1.39
950.825	-9.19
951.254	-0.39
951.682	-6.09
952.111	0.11
952.54	7.51
952.969	-1.59
953.397	-10.79
953.826	-1.79
954.254	-6.69
954.683	2.91
955.112	0.21
955.54	0.01
955.969	7.91
956.397	1.11
956.826	0.31
957.254	4.11
957.682	7.11
958.111	1.51
958.539	-4.19
958.967	2.11
959.396	-1.59
959.824	4.11
960.252	-1.19
960.68	-4.39
961.109	-4.29
961.537	-2.89
961.965	0.81
962.393	-6.39
962.821	-5.09
963.249	1.41
963.677	5.31
964.105	-1.19
964.533	33.01
964.961	29.91
965.389	20.01
965.817	5.41
966.245	-3.09
966.672	5.41
967.1	-10.89
967.528	-3.19
967.956	-4.89
968.383	1.61
968.811	-8.99
969.239	-3.29
969.666	-9.79
970.094	-0.79
970.522	0.41
970.949	-0.59
971.377	-6.39
971.804	-3.89
972.232	-0.49
972.659	0.41
973.087	-3.59
973.514	-6.69
973.941	-7.39
974.369	5.01
974.796	2.11
975.223	-0.59
975.651	-4.09
976.078	4.61
976.505	-6.09
976.932	0.41
977.359	6.81
977.786	7.91
978.214	-0.39
978.641	-0.79
979.068	-4.49
979.495	-7.99
979.922	-1.89
980.349	0.31
980.776	9.21
981.202	-6.49
981.629	-3.29
982.056	6.31
982.483	-3.09
982.91	5.11
983.337	-8.19
983.763	-0.99
984.19	-8.49
984.617	-0.19
985.043	-1.39
985.47	-4.49
985.897	-0.79
986.323	-4.79
986.75	6.51
987.176	-1.59
987.603	-7.09
988.029	-1.89
988.456	-6.09
988.882	-6.29
989.308	-5.29
989.735	-4.29
990.161	-6.69
990.587	-10.59
991.014	-3.49
991.44	4.81
991.866	0.01
992.292	-10.09
992.719	-5.59
993.145	3.11
993.571	-12.09
993.997	-8.39
994.423	-0.19
994.849	-2.89
995.275	-2.59
995.701	-0.39
996.127	-3.59
996.553	-3.29
996.979	-1.09
997.405	-0.99
997.83	-7.39
998.256	-8.69
998.682	-0.59
999.108	-7.69
999.534	3.01
999.959	-2.49
1000.385	-5.09
1000.811	1.41
1001.236	-13.19
1001.662	-9.69
1002.087	-8.99
1002.513	4.21
1002.938	-5.19
1003.364	-3.39
1003.789	0.91
1004.215	2.71
1004.64	-5.39
1005.066	3.61
1005.491	-0.69
1005.916	2.11
1006.342	-2.99
1006.767	-7.99
1007.192	3.81
1007.617	-7.89
1008.042	-6.49
1008.468	-13.89
1008.893	-8.19
1009.318	-8.89
1009.743	0.61
1010.168	0.31
1010.593	0.01
1011.018	-10.89
1011.443	-1.29
1011.868	2.71
1012.293	-0.89
1012.718	-3.69
1013.143	-0.09
1013.567	3.11
1013.992	-5.89
1014.417	-12.39
1014.842	2.31
1015.267	1.41
1015.691	-5.19
1016.116	3.51
1016.541	0.51
1016.965	3.71
1017.39	-4.59
1017.814	2.61
1018.239	0.21
1018.663	-8.69
1019.088	-15.89
1019.512	-4.79
1019.937	-0.89
1020.361	-5.89
1020.785	-9.69
1021.21	-4.39
1021.634	-5.69
1022.058	2.21
1022.483	2.11
1022.907	-7.19
1023.331	-8.49
1023.755	-2.29
1024.179	-1.79
1024.604	-3.69
1025.028	-2.89
1025.452	-4.29
1025.876	-1.19
1026.3	0.51
1026.724	-8.19
1027.148	-2.39
1027.572	-12.99
1027.996	1.41
1028.42	2.31
1028.843	-2.29
1029.267	0.21
1029.691	-5.19
1030.115	-4.29
1030.539	-1.69
1030.962	-5.99
1031.386	-6.09
1031.81	1.71
1032.233	-1.99
1032.657	-0.09
1033.08	-0.49
1033.504	-6.29
1033.927	-8.19
1034.351	-5.49
1034.774	-3.99
1035.198	-3.39
1035.621	-7.59
1036.045	-2.99
1036.468	-3.69
1036.891	-10.19
1037.315	-4.09
1037.738	-8.29
1038.161	-2.29
1038.584	-6.19
1039.008	-8.99
1039.431	-6.79
1039.854	2.31
1040.277	-10.29
1040.7	-11.09
1041.123	-1.19
1041.546	-10.09
1041.969	-9.69
1042.392	-6.29
1042.815	-1.99
1043.238	8.11
1043.661	-1.09
1044.084	0.11
1044.507	-1.79
1044.93	-7.39
1045.352	-2.39
1045.775	-1.29
1046.198	-0.49
1046.621	-4.89
1047.043	-0.69
1047.466	6.21
1047.889	-4.09
1048.311	-2.89
1048.734	-6.09
1049.156	-5.89
1049.579	-0.39
1050.001	-3.49
1050.424	-6.39
1050.846	-4.69
1051.269	1.01
1051.691	-10.09
1052.113	-5.99
1052.536	1.51
1052.958	1.41
1053.38	-8.19
1053.802	-10.49
1054.225	4.11
1054.647	-10.49
1055.069	-3.79
1055.491	-3.09
1055.913	-6.39
1056.335	-6.59
1056.757	-3.69
1057.179	-9.39
1057.601	-5.49
1058.023	-3.39
1058.445	3.11
1058.867	-3.69
1059.289	-0.59
1059.711	-3.99
1060.133	-2.99
1060.555	-6.49
1060.976	-15.99
1061.398	-4.79
1061.82	-3.79
1062.241	-6.89
1062.663	-9.39
1063.085	-6.19
1063.506	0.91
1063.928	-0.79
1064.35	0.41
1064.771	-6.49
1065.193	-8.89
1065.614	-8.69
1066.035	-2.69
1066.457	-5.59
1066.878	-2.49
1067.3	-2.59
1067.721	-7.69
1068.142	-4.59
1068.564	-6.89
1068.985	-3.89
1069.406	-5.89
1069.827	-4.59
1070.248	-2.89
1070.67	-8.49
1071.091	-6.29
1071.512	0.11
1071.933	-0.59
1072.354	-9.99
1072.775	-8.29
1073.196	-11.29
1073.617	-4.49
1074.038	-7.59
1074.459	-1.29
1074.88	-9.19
1075.3	1.51
1075.721	-6.19
1076.142	-4.39
1076.563	4.71
1076.983	-12.79
1077.404	-7.39
1077.825	-10.39
1078.246	-3.19
1078.666	-13.79
1079.087	-5.99
1079.507	-6.39
1079.928	-0.09
1080.348	2.41
1080.769	-5.29
1081.189	0.21
1081.61	-2.99
1082.03	-4.09
1082.451	-6.19
1082.871	-5.79
1083.291	-15.09
1083.711	-9.99
1084.132	-0.79
1084.552	-2.29
1084.972	6.11
1085.392	-12.19
1085.813	-13.89
1086.233	-8.19
1086.653	-9.59
1087.073	-5.29
1087.493	-2.49
1087.913	-6.49
1088.333	-3.79
1088.753	0.21
1089.173	2.41
1089.593	0.11
1090.013	0.71
1090.433	-0.39
1090.852	-2.09
1091.272	-3.19
1091.692	-2.09
1092.112	-2.69
1092.531	-9.69
1092.951	-15.29
1093.371	-0.59
1093.79	-3.59
1094.21	-3.69
1094.63	-4.49
1095.049	1.71
1095.469	1.21
1095.888	-8.79
1096.308	3.01
1096.727	-0.39
1097.146	-2.29
1097.566	-6.69
1097.985	-5.39
1098.405	-2.89
1098.824	-6.69
1099.243	-5.19
1099.662	-9.39
1100.082	-4.49
1100.501	-1.79
1100.92	-10.19
1101.339	0.41
1101.758	-10.09
