Data from 20171114-ORNL-Ar_H_NY_Subt18_08-04-04-246.txt Node
Date: Tue Nov 14 08:04:04 EST 2017
User: Ender
Spectrometer: HR+D1039
Trigger mode: 0
Integration Time (sec): 2.730000E-2
Scans to average: 10
Electric dark correction enabled: true
Nonlinearity correction enabled: false
Boxcar width: 0
XAxis mode: Wavelengths
Number of Pixels in Spectrum: 2048
>>>>>Begin Spectral Data<<<<<
187.836	-1.99
188.309	-1.99
188.782	-1.99
189.255	3.41
189.728	1.01
190.201	4.31
190.674	2.41
191.147	1.41
191.619	-8.79
192.092	1.21
192.565	5.61
193.038	-5.19
193.511	2.91
193.984	5.31
194.456	-3.69
194.929	-0.59
195.402	-3.19
195.874	-4.09
196.347	-2.19
196.82	-6.29
197.292	3.41
197.765	-1.59
198.237	-5.19
198.71	2.61
199.182	0.81
199.655	4.41
200.127	-2.19
200.6	5.01
201.072	-3.79
201.544	-5.09
202.017	-4.19
202.489	2.11
202.961	-1.69
203.433	-5.39
203.906	-2.69
204.378	-8.59
204.85	-5.49
205.322	-8.69
205.794	-0.49
206.266	-2.59
206.739	-15.59
207.211	-4.99
207.683	-9.39
208.155	-1.89
208.627	-11.99
209.099	-3.39
209.57	-3.79
210.042	1.91
210.514	0.01
210.986	0.21
211.458	-10.09
211.93	-5.79
212.402	2.61
212.873	-6.79
213.345	-6.29
213.817	-16.59
214.288	-6.89
214.76	-12.59
215.232	-4.99
215.703	-5.19
216.175	-3.99
216.646	-6.29
217.118	-9.09
217.589	-3.99
218.061	-3.39
218.532	-1.19
219.004	-7.09
219.475	-4.69
219.946	-3.29
220.418	-4.79
220.889	1.21
221.36	1.71
221.832	-2.59
222.303	-8.19
222.774	0.31
223.245	-9.79
223.717	-2.39
224.188	-2.79
224.659	-5.29
225.13	-3.39
225.601	-0.19
226.072	-1.59
226.543	-4.99
227.014	-1.49
227.485	-4.69
227.956	-11.99
228.427	-8.09
228.898	0.21
229.369	2.11
229.839	-5.69
230.31	-8.69
230.781	1.41
231.252	-4.99
231.722	-3.99
232.193	-8.79
232.664	-2.59
233.135	-1.59
233.605	3.81
234.076	-7.99
234.546	3.71
235.017	1.51
235.487	4.21
235.958	-5.69
236.428	-4.29
236.899	-4.39
237.369	2.31
237.84	-2.99
238.31	5.71
238.78	-2.19
239.251	-6.29
239.721	-3.69
240.191	1.01
240.662	1.21
241.132	1.21
241.602	-6.19
242.072	-3.19
242.542	5.11
243.013	3.21
243.483	2.31
243.953	-2.59
244.423	-0.69
244.893	0.61
245.363	3.11
245.833	2.71
246.303	1.01
246.773	4.71
247.243	4.61
247.712	-3.09
248.182	7.81
248.652	2.41
249.122	-9.49
249.592	9.11
250.061	9.91
250.531	29.01
251.001	1.91
251.471	11.71
251.94	14.61
252.41	2.51
252.879	-5.69
253.349	7.51
253.818	6.91
254.288	-0.99
254.757	-4.59
255.227	-0.69
255.696	-2.89
256.166	-0.29
256.635	4.41
257.105	2.71
257.574	2.61
258.043	6.41
258.513	7.11
258.982	9.11
259.451	6.21
259.92	9.61
260.389	8.11
260.859	14.81
261.328	7.21
261.797	9.41
262.266	6.91
262.735	9.21
263.204	-0.09
263.673	-4.59
264.142	5.01
264.611	-2.89
265.08	-2.69
265.549	-1.99
266.018	2.91
266.487	-1.39
266.955	-0.19
267.424	-2.49
267.893	5.21
268.362	-5.59
268.83	-1.39
269.299	4.91
269.768	3.11
270.236	3.31
270.705	-5.69
271.174	2.61
271.642	2.41
272.111	-3.19
272.579	4.31
273.048	10.21
273.516	9.71
273.985	18.41
274.453	12.01
274.922	8.81
275.39	10.31
275.858	-2.59
276.327	8.91
276.795	10.71
277.263	1.21
277.731	15.61
278.2	25.01
278.668	36.11
279.136	28.61
279.604	12.81
280.072	9.81
280.54	7.41
281.008	3.21
281.477	11.31
281.945	8.91
282.413	8.61
282.881	10.31
283.348	0.81
283.816	15.61
284.284	8.11
284.752	15.21
285.22	7.11
285.688	8.81
286.156	8.71
286.623	31.31
287.091	29.41
287.559	17.81
288.026	10.51
288.494	9.51
288.962	0.91
289.429	3.11
289.897	10.81
290.364	6.41
290.832	11.21
291.3	9.61
291.767	6.41
292.234	20.71
292.702	3.91
293.169	12.91
293.637	17.41
294.104	15.21
294.571	4.01
295.039	-0.19
295.506	9.61
295.973	11.71
296.44	9.71
296.908	9.81
297.375	10.91
297.842	13.01
298.309	11.21
298.776	4.61
299.243	15.31
299.71	2.41
300.177	11.71
300.644	14.91
301.111	12.41
301.578	16.01
302.045	7.11
302.512	21.21
302.979	13.21
303.446	10.11
303.913	9.11
304.379	9.01
304.846	26.31
305.313	14.71
305.78	11.31
306.246	15.71
306.713	19.21
307.18	18.41
307.646	19.61
308.113	19.81
308.579	12.61
309.046	22.31
309.512	22.71
309.979	13.11
310.445	17.51
310.912	20.01
311.378	20.91
311.845	19.01
312.311	20.21
312.777	23.21
313.244	17.31
313.71	26.41
314.176	19.41
314.642	18.21
315.109	24.01
315.575	13.71
316.041	28.81
316.507	24.11
316.973	30.91
317.439	25.91
317.905	26.91
318.371	28.31
318.837	24.31
319.303	26.01
319.769	19.61
320.235	25.41
320.701	29.81
321.167	29.31
321.633	31.31
322.099	25.81
322.564	34.91
323.03	23.21
323.496	26.01
323.962	32.11
324.427	24.91
324.893	30.51
325.359	30.01
325.824	21.21
326.29	30.31
326.755	28.21
327.221	28.31
327.686	28.11
328.152	35.51
328.617	32.11
329.083	34.91
329.548	41.51
330.014	31.21
330.479	26.51
330.944	36.01
331.41	34.21
331.875	34.71
332.34	32.81
332.805	30.31
333.271	36.01
333.736	30.21
334.201	39.11
334.666	33.11
335.131	42.51
335.596	43.21
336.061	36.51
336.526	31.11
336.991	40.91
337.456	43.01
337.921	37.01
338.386	37.41
338.851	35.71
339.316	38.61
339.781	36.41
340.246	45.31
340.711	38.61
341.175	36.01
341.64	33.61
342.105	42.71
342.569	36.61
343.034	44.01
343.499	42.61
343.963	45.11
344.428	52.31
344.893	48.31
345.357	52.61
345.822	48.21
346.286	50.31
346.751	62.91
347.215	57.21
347.679	58.51
348.144	71.21
348.608	65.11
349.073	56.51
349.537	56.61
350.001	59.51
350.465	60.81
350.93	57.71
351.394	64.91
351.858	52.71
352.322	66.61
352.786	59.31
353.25	78.01
353.715	80.11
354.179	69.01
354.643	89.71
355.107	94.21
355.571	77.01
356.035	85.51
356.498	89.31
356.962	86.11
357.426	100.01
357.89	88.01
358.354	70.11
358.818	68.51
359.281	57.11
359.745	61.31
360.209	62.01
360.673	55.31
361.136	68.61
361.6	62.11
362.064	69.71
362.527	64.71
362.991	77.41
363.454	64.21
363.918	65.81
364.381	61.61
364.845	73.01
365.308	64.41
365.772	67.91
366.235	66.91
366.698	67.61
367.162	66.01
367.625	74.51
368.088	64.41
368.552	75.51
369.015	74.31
369.478	82.01
369.941	84.41
370.404	74.81
370.867	80.01
371.331	85.71
371.794	89.81
372.257	89.91
372.72	93.61
373.183	90.81
373.646	85.91
374.109	80.01
374.572	91.11
375.035	88.31
375.497	94.11
375.96	85.51
376.423	89.11
376.886	91.71
377.349	92.11
377.811	84.41
378.274	81.51
378.737	82.11
379.199	95.41
379.662	98.11
380.125	100.51
380.587	94.61
381.05	102.81
381.512	105.21
381.975	115.71
382.437	105.61
382.9	111.51
383.362	111.21
383.825	117.51
384.287	115.01
384.75	116.61
385.212	122.11
385.674	114.31
386.136	116.91
386.599	102.91
387.061	108.01
387.523	108.71
387.985	111.91
388.447	119.81
388.91	116.01
389.372	131.61
389.834	129.01
390.296	120.71
390.758	124.31
391.22	138.41
391.682	165.01
392.144	229.91
392.606	181.91
393.068	140.61
393.529	142.51
393.991	129.41
394.453	126.91
394.915	128.41
395.377	155.61
395.838	175.41
396.3	131.41
396.762	126.01
397.224	115.11
397.685	111.11
398.147	113.31
398.608	118.31
399.07	110.91
399.531	114.71
399.993	124.51
400.454	130.71
400.916	129.21
401.377	126.71
401.839	128.11
402.3	134.61
402.762	143.81
403.223	151.91
403.684	144.91
404.145	141.21
404.607	148.01
405.068	143.11
405.529	145.41
405.99	159.61
406.451	144.91
406.913	148.31
407.374	138.01
407.835	136.41
408.296	144.31
408.757	144.91
409.218	159.71
409.679	151.91
410.14	159.31
410.601	154.51
411.062	156.81
411.522	169.11
411.983	162.31
412.444	151.31
412.905	152.51
413.366	165.51
413.826	177.31
414.287	192.51
414.748	234.21
415.208	216.71
415.669	185.71
416.13	189.31
416.59	180.11
417.051	188.21
417.511	190.91
417.972	212.81
418.432	222.61
418.893	254.31
419.353	229.41
419.814	177.41
420.274	172.21
420.734	162.51
421.195	171.91
421.655	170.41
422.115	169.31
422.576	167.71
423.036	177.91
423.496	183.11
423.956	197.21
424.416	205.01
424.876	237.11
425.336	231.01
425.797	238.11
426.257	224.61
426.717	210.11
427.177	202.61
427.637	195.61
428.097	206.21
428.556	211.71
429.016	237.51
429.476	230.11
429.936	247.31
430.396	234.11
430.856	259.71
431.315	271.71
431.775	302.21
432.235	327.91
432.694	300.31
433.154	302.91
433.614	316.41
434.073	284.81
434.533	246.11
434.993	241.91
435.452	246.71
435.912	244.61
436.371	243.71
436.83	240.81
437.29	231.61
437.749	212.71
438.209	209.81
438.668	224.41
439.127	229.11
439.587	223.51
440.046	212.51
440.505	227.01
440.964	231.91
441.424	259.91
441.883	248.41
442.342	225.41
442.801	197.01
443.26	186.81
443.719	184.31
444.178	190.51
444.637	186.71
445.096	189.71
445.555	195.11
446.014	197.11
446.473	204.11
446.932	204.01
447.391	197.51
447.849	200.91
448.308	192.81
448.767	198.01
449.226	207.21
449.685	206.71
450.143	222.01
450.602	203.21
451.061	202.21
451.519	195.91
451.978	206.41
452.436	208.81
452.895	207.31
453.353	216.91
453.812	215.11
454.27	212.91
454.729	216.61
455.187	207.21
455.646	208.81
456.104	217.31
456.562	225.61
457.021	233.01
457.479	223.11
457.937	231.51
458.395	227.41
458.854	211.51
459.312	221.31
459.77	229.21
460.228	219.61
460.686	207.91
461.144	218.71
461.602	210.51
462.06	216.71
462.518	217.21
462.976	221.71
463.434	226.91
463.892	223.51
464.35	245.71
464.808	250.21
465.266	230.91
465.724	239.01
466.181	233.91
466.639	243.01
467.097	261.51
467.555	264.01
468.012	267.91
468.47	273.01
468.928	278.11
469.385	295.81
469.843	305.51
470.3	299.61
470.758	308.21
471.215	313.91
471.673	345.11
472.13	344.61
472.588	354.51
473.045	327.91
473.503	331.51
473.96	343.51
474.417	356.01
474.875	368.71
475.332	403.01
475.789	399.41
476.246	400.11
476.704	414.71
477.161	440.61
477.618	449.61
478.075	475.61
478.532	525.91
478.989	579.11
479.446	663.81
479.903	659.01
480.36	698.81
480.817	739.31
481.274	832.51
481.731	924.41
482.188	1002.11
482.645	1121.91
483.102	1217.91
483.558	1330.81
484.015	1382.51
484.472	1373.21
484.929	1344.71
485.385	1283.51
485.842	1262.51
486.299	1182.41
486.755	1110.41
487.212	951.61
487.668	815.01
488.125	738.81
488.582	680.81
489.038	652.11
489.494	621.71
489.951	590.21
490.407	574.51
490.864	566.71
491.32	562.41
491.776	555.31
492.233	559.01
492.689	535.31
493.145	527.31
493.602	516.21
494.058	528.41
494.514	526.51
494.97	544.21
495.426	543.61
495.882	530.51
496.338	530.51
496.794	533.21
497.251	526.71
497.707	549.01
498.163	537.91
498.618	546.21
499.074	555.11
499.53	574.41
499.986	576.21
500.442	552.21
500.898	545.61
501.354	543.71
501.809	551.91
502.265	549.91
502.721	564.51
503.177	579.91
503.632	563.21
504.088	576.61
504.543	599.91
504.999	604.81
505.455	563.21
505.91	552.41
506.366	552.61
506.821	549.11
507.277	537.41
507.732	536.81
508.187	536.41
508.643	547.61
509.098	555.31
509.553	568.51
510.009	571.31
510.464	567.91
510.919	586.71
511.375	592.01
511.83	601.71
512.285	624.51
512.74	646.21
513.195	665.81
513.65	648.71
514.105	656.01
514.56	665.21
515.015	678.51
515.47	692.41
515.925	668.11
516.38	677.21
516.835	679.01
517.29	672.11
517.745	670.61
518.2	652.01
518.655	637.11
519.109	640.01
519.564	642.31
520.019	607.51
520.474	615.81
520.928	617.11
521.383	619.31
521.838	611.31
522.292	607.61
522.747	609.71
523.201	602.31
523.656	597.21
524.11	587.41
524.565	591.51
525.019	580.51
525.474	602.61
525.928	588.41
526.382	584.21
526.837	593.01
527.291	600.51
527.745	599.91
528.2	587.91
528.654	582.81
529.108	582.81
529.562	575.91
530.016	577.51
530.47	576.91
530.925	581.11
531.379	590.31
531.833	594.91
532.287	591.91
532.741	583.11
533.195	589.61
533.649	594.51
534.103	604.01
534.556	600.81
535.01	596.81
535.464	600.41
535.918	613.51
536.372	603.11
536.826	595.51
537.279	593.41
537.733	599.21
538.187	599.51
538.64	592.01
539.094	603.81
539.548	617.21
540.001	601.61
540.455	597.41
540.908	615.91
541.362	611.91
541.815	631.11
542.269	633.21
542.722	641.91
543.175	647.31
543.629	660.31
544.082	657.71
544.536	651.11
544.989	649.91
545.442	666.71
545.895	660.61
546.349	658.81
546.802	664.21
547.255	667.81
547.708	676.91
548.161	682.31
548.614	687.41
549.067	690.71
549.52	682.91
549.973	667.91
550.426	677.61
550.879	657.21
551.332	664.81
551.785	665.61
552.238	663.31
552.691	673.91
553.144	677.21
553.596	702.21
554.049	707.91
554.502	735.51
554.955	757.71
555.407	746.81
555.86	742.51
556.313	729.41
556.765	729.21
557.218	726.01
557.67	728.21
558.123	719.81
558.576	717.11
559.028	717.61
559.48	721.51
559.933	721.01
560.385	693.91
560.838	671.81
561.29	639.21
561.742	637.91
562.195	627.51
562.647	623.91
563.099	625.01
563.551	629.71
564.004	636.41
564.456	631.71
564.908	620.71
565.36	606.41
565.812	597.11
566.264	586.21
566.716	590.61
567.168	583.91
567.62	582.71
568.072	571.61
568.524	567.81
568.976	570.61
569.428	537.81
569.88	545.41
570.332	560.51
570.784	548.71
571.235	552.41
571.687	557.11
572.139	566.21
572.59	571.51
573.042	571.81
573.494	570.71
573.945	573.41
574.397	551.11
574.849	550.81
575.3	553.91
575.752	540.71
576.203	544.11
576.655	547.01
577.106	542.61
577.557	525.71
578.009	532.21
578.46	524.51
578.912	518.41
579.363	529.51
579.814	530.31
580.265	518.91
580.717	532.81
581.168	528.11
581.619	547.11
582.07	538.41
582.521	538.51
582.972	529.11
583.423	537.31
583.875	548.51
584.326	555.91
584.777	584.71
585.227	650.41
585.678	717.31
586.129	775.21
586.58	837.71
587.031	910.61
587.482	1046.11
587.933	1198.11
588.384	1033.71
588.834	785.51
589.285	629.21
589.736	624.11
590.186	613.21
590.637	605.21
591.088	587.01
591.538	583.81
591.989	578.61
592.439	577.91
592.89	561.61
593.34	555.11
593.791	558.61
594.241	550.71
594.692	551.71
595.142	553.31
595.593	549.61
596.043	562.21
596.493	562.11
596.943	553.51
597.394	561.61
597.844	562.01
598.294	568.11
598.744	583.91
599.195	603.11
599.645	637.21
600.095	659.01
600.545	708.91
600.995	741.81
601.445	784.71
601.895	840.11
602.345	889.81
602.795	871.31
603.245	836.31
603.695	795.91
604.145	749.21
604.594	717.31
605.044	672.71
605.494	617.21
605.944	585.41
606.393	570.91
606.843	569.61
607.293	575.71
607.743	570.11
608.192	577.91
608.642	580.01
609.091	582.81
609.541	583.31
609.99	580.61
610.44	582.51
610.889	558.51
611.339	541.71
611.788	529.51
612.238	531.21
612.687	552.01
613.136	553.01
613.586	566.11
614.035	566.71
614.484	575.71
614.933	582.71
615.383	580.71
615.832	570.01
616.281	551.51
616.73	518.11
617.179	511.71
617.628	509.01
618.077	487.51
618.526	477.21
618.975	470.01
619.424	474.31
619.873	466.71
620.322	473.21
620.771	461.61
621.22	459.41
621.669	459.91
622.118	440.91
622.567	438.21
623.015	431.21
623.464	433.31
623.913	413.01
624.361	421.21
624.81	422.31
625.259	423.81
625.707	423.21
626.156	425.81
626.604	442.41
627.053	435.01
627.501	425.21
627.95	422.31
628.398	443.31
628.847	440.81
629.295	427.01
629.744	434.61
630.192	434.11
630.64	441.41
631.089	420.51
631.537	433.21
631.985	434.71
632.433	438.81
632.881	435.81
633.33	470.31
633.778	458.91
634.226	426.41
634.674	416.41
635.122	423.71
635.57	446.31
636.018	460.21
636.466	441.71
636.914	414.11
637.362	428.01
637.81	432.71
638.258	427.51
638.705	427.11
639.153	454.11
639.601	471.21
640.049	482.51
640.497	509.41
640.944	520.01
641.392	483.31
641.84	467.51
642.287	438.21
642.735	425.01
643.182	433.11
643.63	426.71
644.078	434.81
644.525	444.71
644.973	448.01
645.42	452.01
645.867	468.11
646.315	476.51
646.762	492.81
647.21	516.61
647.657	526.21
648.104	562.01
648.551	578.71
648.999	624.31
649.446	673.31
649.893	741.21
650.34	841.41
650.787	1014.11
651.234	1244.61
651.682	1617.11
652.129	2221.91
652.576	3193.91
653.023	4692.51
653.47	6592.11
653.917	8291.71
654.363	9768.81
654.81	11108.41
655.257	10585.61
655.704	6853.11
656.151	3975.21
656.598	2570.11
657.044	1815.21
657.491	1396.01
657.938	1110.41
658.385	932.71
658.831	805.31
659.278	723.51
659.724	638.31
660.171	584.61
660.618	528.21
661.064	509.11
661.511	487.71
661.957	474.61
662.404	470.11
662.85	472.91
663.296	444.21
663.743	409.21
664.189	401.81
664.635	400.31
665.082	393.41
665.528	390.71
665.974	383.41
666.42	379.61
666.867	369.31
667.313	352.21
667.759	352.41
668.205	350.21
668.651	365.51
669.097	362.01
669.543	368.91
669.989	354.61
670.435	330.31
670.881	335.51
671.327	331.51
671.773	347.81
672.219	360.91
672.665	400.61
673.11	425.01
673.556	463.91
674.002	507.81
674.448	486.21
674.893	407.11
675.339	350.51
675.785	331.11
676.23	313.61
676.676	286.31
677.122	280.31
677.567	276.61
678.013	272.81
678.458	265.61
678.904	269.81
679.349	259.21
679.794	257.11
680.24	255.61
680.685	252.01
681.131	240.91
681.576	263.11
682.021	258.21
682.466	251.81
682.912	254.01
683.357	258.11
683.802	275.91
684.247	300.41
684.692	321.41
685.137	362.21
685.583	391.81
686.028	421.01
686.473	385.71
686.918	323.21
687.363	304.81
687.807	283.91
688.252	267.61
688.697	257.71
689.142	246.71
689.587	237.61
690.032	234.91
690.477	251.71
690.921	244.21
691.366	281.51
691.811	298.21
692.255	314.31
692.7	336.41
693.145	360.51
693.589	496.01
694.034	809.51
694.478	1118.91
694.923	1301.61
695.367	1733.01
695.812	910.71
696.256	372.61
696.701	276.21
697.145	253.01
697.59	244.11
698.034	232.01
698.478	239.71
698.922	238.51
699.367	245.31
699.811	251.01
700.255	254.61
700.699	278.71
701.143	307.21
701.588	342.41
702.032	376.41
702.476	383.71
702.92	360.51
703.364	351.81
703.808	451.71
704.252	724.71
704.696	1050.71
705.14	1248.31
705.584	1631.41
706.027	800.61
706.471	391.61
706.915	290.31
707.359	257.01
707.803	230.61
708.246	222.51
708.69	228.61
709.134	233.21
709.577	229.21
710.021	230.81
710.465	222.81
710.908	221.51
711.352	217.51
711.795	227.91
712.239	253.61
712.682	273.91
713.126	304.01
713.569	346.71
714.012	275.31
714.456	232.71
714.899	218.21
715.342	202.31
715.786	191.71
716.229	190.21
716.672	189.01
717.115	178.31
717.558	182.71
718.002	183.81
718.445	197.61
718.888	209.61
719.331	211.31
719.774	220.01
720.217	223.81
720.66	210.21
721.103	191.81
721.546	180.41
721.989	179.71
722.432	170.31
722.874	177.51
723.317	166.61
723.76	172.31
724.203	189.51
724.645	226.31
725.088	318.21
725.531	416.11
725.974	478.31
726.416	406.81
726.859	226.71
727.301	180.91
727.744	166.51
728.187	173.11
728.629	173.71
729.071	176.61
729.514	185.91
729.956	193.61
730.399	204.41
730.841	206.01
731.283	196.41
731.726	191.51
732.168	187.91
732.61	185.51
733.053	207.51
733.495	225.51
733.937	249.91
734.379	280.71
734.821	315.91
735.263	389.01
735.705	587.91
736.148	1116.81
736.59	1874.31
737.032	2337.01
737.474	1894.71
737.916	601.01
738.357	313.01
738.799	227.91
739.241	215.11
739.683	205.51
740.125	214.61
740.567	218.21
741.008	233.01
741.45	234.61
741.892	232.61
742.334	253.01
742.775	266.11
743.217	260.51
743.658	191.51
744.1	181.21
744.542	189.61
744.983	226.31
745.425	263.31
745.866	255.81
746.307	203.01
746.749	196.41
747.19	229.51
747.632	318.31
748.073	607.31
748.514	1308.81
748.956	2114.11
749.397	2650.61
749.838	2194.61
750.279	2252.21
750.72	1146.11
751.162	407.21
751.603	231.91
752.044	183.71
752.485	159.01
752.926	155.61
753.367	150.11
753.808	141.61
754.249	130.71
754.69	131.81
755.131	136.81
755.572	134.31
756.013	125.11
756.453	123.41
756.894	135.21
757.335	137.71
757.776	143.21
758.216	141.01
758.657	140.01
759.098	144.71
759.538	162.21
759.979	191.11
760.42	267.31
760.86	483.31
761.301	1270.41
761.741	3212.11
762.182	5026.61
762.622	3541.91
763.063	991.51
763.503	401.31
763.943	254.81
764.384	248.91
764.824	301.51
765.264	331.61
765.705	230.41
766.145	151.81
766.585	130.51
767.025	125.21
767.465	127.71
767.906	170.41
768.346	233.41
768.786	253.11
769.226	192.91
769.666	227.11
770.106	431.51
770.546	1096.41
770.986	2001.91
771.426	1842.01
771.866	593.31
772.306	244.01
772.745	153.91
773.185	124.71
773.625	128.01
774.065	116.91
774.505	140.51
774.944	209.61
775.384	456.61
775.824	862.61
776.263	860.21
776.703	365.91
777.142	150.91
777.582	113.81
778.021	98.21
778.461	100.51
778.9	103.31
779.34	98.31
779.779	84.51
780.219	80.51
780.658	77.21
781.097	80.51
781.537	79.01
781.976	81.51
782.415	73.31
782.855	75.21
783.294	69.81
783.733	73.91
784.172	75.41
784.611	70.21
785.05	71.31
785.489	74.61
785.928	91.01
786.367	88.11
786.806	87.01
787.245	93.71
787.684	96.31
788.123	104.01
788.562	91.21
789.001	88.91
789.44	90.61
789.879	88.71
790.317	86.41
790.756	95.01
791.195	89.81
791.634	102.81
792.072	143.41
792.511	252.31
792.95	701.51
793.388	1605.41
793.827	1507.91
794.265	502.71
794.704	201.21
795.142	130.71
795.581	110.21
796.019	94.61
796.458	93.21
796.896	81.31
797.334	90.41
797.773	107.81
798.211	152.21
798.649	313.41
799.087	736.71
799.526	1169.71
799.964	1487.11
800.402	1581.41
800.84	566.81
801.278	223.41
801.716	141.41
802.154	119.01
802.592	103.41
803.03	105.61
803.468	96.21
803.906	103.21
804.344	109.91
804.782	100.71
805.22	88.11
805.658	85.01
806.096	113.81
806.533	114.11
806.971	131.11
807.409	153.41
807.847	219.21
808.284	464.31
808.722	1346.21
809.16	2509.01
809.597	2299.61
810.035	4117.21
810.472	4629.01
810.91	1633.31
811.347	606.11
811.785	299.91
812.222	185.21
812.66	146.61
813.097	125.61
813.535	100.71
813.972	97.21
814.409	84.71
814.846	80.31
815.284	79.11
815.721	76.01
816.158	76.41
816.595	86.41
817.032	129.51
817.47	147.71
817.907	127.41
818.344	103.11
818.781	80.41
819.218	70.61
819.655	93.71
820.092	142.71
820.529	165.91
820.966	136.81
821.403	97.01
821.839	78.01
822.276	74.51
822.713	91.51
823.15	106.61
823.587	83.41
824.023	103.21
824.46	207.21
824.897	640.01
825.333	1047.91
825.77	440.61
826.206	167.71
826.643	97.71
827.08	79.21
827.516	61.41
827.953	54.51
828.389	60.21
828.825	56.31
829.262	49.41
829.698	41.21
830.135	41.41
830.571	43.31
831.007	43.01
831.443	54.31
831.88	43.01
832.316	49.31
832.752	45.31
833.188	46.81
833.624	38.81
834.06	49.21
834.497	53.31
834.933	50.71
835.369	54.31
835.805	42.01
836.241	50.81
836.677	59.41
837.112	59.31
837.548	70.31
837.984	100.61
838.42	144.41
838.856	348.91
839.292	1114.61
839.727	1802.51
840.163	831.41
840.599	667.31
841.034	1522.81
841.47	1702.11
841.906	601.91
842.341	247.11
842.777	165.11
843.212	225.81
843.648	229.01
844.083	107.01
844.519	75.41
844.954	56.41
845.39	41.41
845.825	42.11
846.261	39.91
846.696	36.11
847.131	36.81
847.566	41.31
848.002	34.41
848.437	40.81
848.872	40.31
849.307	37.91
849.742	59.31
850.177	128.21
850.613	398.61
851.048	670.31
851.483	286.01
851.918	110.81
852.353	60.11
852.788	39.91
853.223	47.61
853.657	36.21
854.092	31.01
854.527	26.11
854.962	29.11
855.397	29.31
855.832	36.21
856.266	33.61
856.701	28.01
857.136	28.61
857.57	21.21
858.005	34.21
858.44	40.81
858.874	31.51
859.309	39.91
859.743	26.11
860.178	31.41
860.612	32.01
861.047	43.81
861.481	51.01
861.915	58.51
862.35	38.01
862.784	21.31
863.218	26.81
863.653	23.11
864.087	35.21
864.521	41.01
864.955	49.51
865.39	113.31
865.824	129.61
866.258	80.61
866.692	131.51
867.126	140.11
867.56	86.91
867.994	36.81
868.428	26.71
868.862	32.21
869.296	45.91
869.73	41.81
870.164	40.51
870.598	34.11
871.031	25.31
871.465	29.21
871.899	25.01
872.333	12.71
872.766	18.01
873.2	13.11
873.634	17.81
874.067	17.11
874.501	18.01
874.935	16.61
875.368	21.01
875.802	19.71
876.235	22.31
876.669	20.81
877.102	18.61
877.535	19.51
877.969	10.11
878.402	15.81
878.836	14.01
879.269	15.41
879.702	17.81
880.135	16.01
880.569	17.01
881.002	19.31
881.435	16.81
881.868	15.71
882.301	13.01
882.734	12.41
883.167	18.71
883.601	8.61
884.034	13.21
884.467	10.91
884.899	17.31
885.332	11.41
885.765	12.61
886.198	8.01
886.631	18.41
887.064	10.51
887.497	11.41
887.929	19.21
888.362	9.91
888.795	6.81
889.228	12.71
889.66	14.41
890.093	4.41
890.526	9.61
890.958	12.91
891.391	17.51
891.823	14.01
892.256	8.51
892.688	6.21
893.121	10.51
893.553	13.21
893.985	15.31
894.418	13.11
894.85	6.01
895.282	8.61
895.715	10.31
896.147	10.61
896.579	11.71
897.011	-0.99
897.444	10.71
897.876	10.11
898.308	13.31
898.74	8.71
899.172	6.41
899.604	18.11
900.036	12.31
900.468	11.31
900.9	12.01
901.332	14.71
901.764	7.11
902.196	12.41
902.628	10.01
903.06	17.61
903.491	23.61
903.923	16.41
904.355	10.51
904.787	14.11
905.218	17.91
905.65	10.01
906.082	1.91
906.513	5.11
906.945	12.81
907.376	9.51
907.808	10.51
908.239	15.91
908.671	16.81
909.102	14.81
909.534	16.81
909.965	29.01
910.397	69.51
910.828	234.31
911.259	378.71
911.691	159.91
912.122	80.01
912.553	32.61
912.984	25.21
913.415	17.21
913.847	22.71
914.278	15.11
914.709	8.91
915.14	15.31
915.571	14.31
916.002	9.01
916.433	17.41
916.864	10.51
917.295	6.61
917.726	10.91
918.157	9.91
918.587	18.21
919.018	13.71
919.449	16.31
919.88	20.51
920.311	20.61
920.741	35.31
921.172	120.11
921.603	116.01
922.033	55.31
922.464	37.41
922.895	17.31
923.325	13.61
923.756	14.21
924.186	15.51
924.617	16.41
925.047	31.91
925.478	32.61
925.908	28.21
926.338	15.61
926.769	12.11
927.199	13.21
927.629	5.71
928.06	7.51
928.49	9.31
928.92	11.21
929.35	8.51
929.78	11.51
930.21	5.71
930.641	5.81
931.071	6.51
931.501	2.71
931.931	3.11
932.361	9.51
932.791	-0.09
933.221	3.61
933.651	1.41
934.08	11.21
934.51	28.41
934.94	8.51
935.37	9.71
935.8	8.01
936.229	4.21
936.659	8.71
937.089	-2.29
937.519	12.71
937.948	25.31
938.378	16.81
938.807	-0.79
939.237	3.91
939.666	6.01
940.096	-7.89
940.525	0.71
940.955	2.71
941.384	1.81
941.814	-13.89
942.243	-0.49
942.672	-3.29
943.102	-5.39
943.531	-1.09
943.96	9.31
944.39	-3.69
944.819	-4.29
945.248	-1.29
945.677	0.31
946.106	8.71
946.535	3.01
946.964	-1.79
947.393	2.41
947.822	-1.79
948.251	-4.99
948.68	5.11
949.109	3.31
949.538	-0.89
949.967	-3.69
950.396	-3.19
950.825	-2.29
951.254	-3.49
951.682	-9.49
952.111	-1.29
952.54	5.21
952.969	-7.09
953.397	0.61
953.826	3.11
954.254	-9.09
954.683	2.81
955.112	-4.99
955.54	0.61
955.969	5.31
956.397	-1.59
956.826	-0.79
957.254	0.81
957.682	-2.19
958.111	6.31
958.539	1.01
958.967	1.51
959.396	-1.89
959.824	1.51
960.252	4.31
960.68	-9.39
961.109	-2.89
961.537	-4.29
961.965	-0.49
962.393	-1.69
962.821	-2.89
963.249	5.21
963.677	3.21
964.105	-4.79
964.533	29.81
964.961	26.51
965.389	15.41
965.817	-0.29
966.245	-1.49
966.672	-2.49
967.1	-2.39
967.528	-1.49
967.956	-6.39
968.383	-0.79
968.811	-2.49
969.239	-0.79
969.666	-5.59
970.094	2.01
970.522	0.01
970.949	-0.09
971.377	-5.69
971.804	-2.19
972.232	-6.79
972.659	-0.49
973.087	-0.69
973.514	-1.99
973.941	-10.49
974.369	1.11
974.796	-1.09
975.223	3.91
975.651	-3.19
976.078	-0.69
976.505	-1.59
976.932	-4.59
977.359	6.51
977.786	4.01
978.214	-1.49
978.641	-3.29
979.068	-8.29
979.495	-6.49
979.922	-0.89
980.349	-4.99
980.776	3.01
981.202	-1.19
981.629	0.71
982.056	5.31
982.483	-1.09
982.91	3.01
983.337	-5.79
983.763	4.91
984.19	-4.09
984.617	1.11
985.043	-9.89
985.47	0.11
985.897	-6.09
986.323	-10.59
986.75	-0.49
987.176	-4.79
987.603	-5.89
988.029	-5.79
988.456	0.31
988.882	5.11
989.308	-8.49
989.735	-1.09
990.161	-1.39
990.587	-3.89
991.014	-7.39
991.44	3.51
991.866	-5.09
992.292	-0.59
992.719	-5.59
993.145	2.31
993.571	-12.09
993.997	-1.79
994.423	-2.89
994.849	-5.19
995.275	0.71
995.701	4.51
996.127	-4.69
996.553	6.11
996.979	-3.09
997.405	-2.59
997.83	-5.49
998.256	-3.19
998.682	-6.99
999.108	-9.89
999.534	0.01
999.959	-4.59
1000.385	-5.59
1000.811	-0.69
1001.236	-6.29
1001.662	-7.69
1002.087	-9.49
1002.513	1.61
1002.938	-0.99
1003.364	-1.39
1003.789	-3.69
1004.215	3.21
1004.64	-2.29
1005.066	2.61
1005.491	-0.09
1005.916	-5.29
1006.342	-4.69
1006.767	-10.99
1007.192	3.01
1007.617	-10.09
1008.042	-1.69
1008.468	-7.69
1008.893	-5.49
1009.318	-0.89
1009.743	3.31
1010.168	1.41
1010.593	-1.49
1011.018	-9.49
1011.443	-7.39
1011.868	-3.39
1012.293	0.51
1012.718	-7.79
1013.143	-0.19
1013.567	-1.19
1013.992	-7.49
1014.417	-14.29
1014.842	3.91
1015.267	-6.19
1015.691	-0.59
1016.116	1.01
1016.541	0.71
1016.965	1.31
1017.39	-0.09
1017.814	-0.49
1018.239	4.91
1018.663	-5.49
1019.088	-12.49
1019.512	1.21
1019.937	-4.09
1020.361	-2.29
1020.785	-8.49
1021.21	3.71
1021.634	-1.69
1022.058	-3.19
1022.483	3.71
1022.907	-9.79
1023.331	-8.19
1023.755	-6.09
1024.179	-0.69
1024.604	-8.39
1025.028	-7.79
1025.452	-10.29
1025.876	-4.59
1026.3	-0.39
1026.724	-9.49
1027.148	-3.39
1027.572	-7.49
1027.996	-4.29
1028.42	1.51
1028.843	-5.39
1029.267	-1.09
1029.691	-4.39
1030.115	-7.99
1030.539	-9.29
1030.962	-8.79
1031.386	-11.59
1031.81	-4.19
1032.233	1.91
1032.657	-2.59
1033.08	-9.79
1033.504	-6.59
1033.927	0.91
1034.351	-3.19
1034.774	-1.19
1035.198	0.21
1035.621	-8.59
1036.045	-8.19
1036.468	3.81
1036.891	-10.29
1037.315	-10.59
1037.738	-10.09
1038.161	-1.39
1038.584	-6.79
1039.008	-1.29
1039.431	-2.09
1039.854	-5.89
1040.277	-9.29
1040.7	-7.49
1041.123	0.91
1041.546	-9.29
1041.969	-7.59
1042.392	-7.49
1042.815	-5.29
1043.238	2.71
1043.661	-2.89
1044.084	-9.49
1044.507	-5.79
1044.93	2.41
1045.352	-2.59
1045.775	-1.49
1046.198	-9.89
1046.621	-3.29
1047.043	-2.49
1047.466	10.41
1047.889	-1.99
1048.311	-7.09
1048.734	-1.69
1049.156	1.01
1049.579	-7.29
1050.001	0.01
1050.424	-3.89
1050.846	-1.79
1051.269	-4.49
1051.691	-7.99
1052.113	-9.59
1052.536	-1.49
1052.958	-3.29
1053.38	-10.39
1053.802	-5.69
1054.225	-2.89
1054.647	-5.19
1055.069	-6.09
1055.491	-1.89
1055.913	-9.89
1056.335	1.61
1056.757	-0.99
1057.179	-5.79
1057.601	-3.79
1058.023	-7.79
1058.445	0.91
1058.867	-10.59
1059.289	0.11
1059.711	-5.59
1060.133	-6.09
1060.555	-5.19
1060.976	-5.39
1061.398	-4.49
1061.82	-7.29
1062.241	-4.49
1062.663	-3.79
1063.085	-5.59
1063.506	-4.09
1063.928	-5.59
1064.35	2.91
1064.771	-7.69
1065.193	-6.99
1065.614	-12.29
1066.035	-1.19
1066.457	-10.59
1066.878	2.71
1067.3	-9.99
1067.721	-4.89
1068.142	-9.29
1068.564	-1.09
1068.985	-9.19
1069.406	-6.39
1069.827	-2.49
1070.248	-4.59
1070.67	-5.79
1071.091	-5.19
1071.512	-6.59
1071.933	-8.79
1072.354	-11.59
1072.775	-5.59
1073.196	-10.09
1073.617	-4.19
1074.038	-6.19
1074.459	0.21
1074.88	-10.69
1075.3	2.11
1075.721	-4.79
1076.142	-2.09
1076.563	0.61
1076.983	-9.09
1077.404	-9.29
1077.825	-10.89
1078.246	-3.49
1078.666	-11.09
1079.087	-6.49
1079.507	-5.79
1079.928	1.31
1080.348	-0.29
1080.769	-10.69
1081.189	-4.69
1081.61	-8.69
1082.03	-5.99
1082.451	-7.69
1082.871	-7.09
1083.291	-7.29
1083.711	-7.19
1084.132	-0.39
1084.552	-4.59
1084.972	-3.09
1085.392	-11.39
1085.813	-5.39
1086.233	-9.39
1086.653	-5.69
1087.073	0.11
1087.493	-7.29
1087.913	-9.19
1088.333	-10.69
1088.753	-8.19
1089.173	10.31
1089.593	-6.09
1090.013	0.81
1090.433	-1.89
1090.852	-4.39
1091.272	-0.59
1091.692	-7.19
1092.112	-4.79
1092.531	-9.79
1092.951	-16.59
1093.371	-4.29
1093.79	-0.69
1094.21	-8.19
1094.63	-2.09
1095.049	-6.79
1095.469	-1.49
1095.888	3.01
1096.308	5.31
1096.727	2.41
1097.146	-4.69
1097.566	-4.29
1097.985	0.41
1098.405	-1.69
1098.824	-2.09
1099.243	-10.09
1099.662	-11.49
1100.082	-3.29
1100.501	-1.29
1100.92	-7.29
1101.339	-3.99
1101.758	-5.99
