Data from 20171114-ORNL-Ar_H_NY_Subt18_08-03-59-332.txt Node
Date: Tue Nov 14 08:03:59 EST 2017
User: Ender
Spectrometer: HR+D1039
Trigger mode: 0
Integration Time (sec): 2.730000E-2
Scans to average: 10
Electric dark correction enabled: true
Nonlinearity correction enabled: false
Boxcar width: 0
XAxis mode: Wavelengths
Number of Pixels in Spectrum: 2048
>>>>>Begin Spectral Data<<<<<
187.836	-2.58
188.309	-2.58
188.782	-2.58
189.255	1.82
189.728	-1.67
190.201	9.12
190.674	-2.27
191.147	1.42
191.619	-5.27
192.092	-0.38
192.565	4.32
193.038	0.23
193.511	0.33
193.984	-0.98
194.456	-1.67
194.929	4.73
195.402	-4.38
195.874	-2.77
196.347	2.02
196.82	-5.27
197.292	-0.17
197.765	2.33
198.237	-10.67
198.71	3.12
199.182	-2.57
199.655	-0.08
200.127	2.42
200.6	0.43
201.072	-1.27
201.544	-5.47
202.017	-2.38
202.489	4.83
202.961	-2.27
203.433	2.02
203.906	-4.97
204.378	-4.77
204.85	-3.77
205.322	-12.58
205.794	-3.98
206.266	-7.27
206.739	-8.67
207.211	2.62
207.683	-10.27
208.155	-1.27
208.627	-9.48
209.099	-3.98
209.57	-4.97
210.042	-5.18
210.514	2.73
210.986	1.83
211.458	-6.98
211.93	-6.98
212.402	-3.17
212.873	-9.27
213.345	-8.57
213.817	-11.67
214.288	-6.18
214.76	-11.38
215.232	-0.17
215.703	1.83
216.175	-3.48
216.646	-1.67
217.118	-6.88
217.589	-3.67
218.061	-3.58
218.532	-0.67
219.004	0.12
219.475	-5.38
219.946	-5.38
220.418	-8.67
220.889	5.23
221.36	-3.77
221.832	-4.08
222.303	-6.57
222.774	-3.77
223.245	-8.17
223.717	-2.38
224.188	-0.47
224.659	-4.58
225.13	-7.07
225.601	-1.88
226.072	1.53
226.543	-2.58
227.014	-2.58
227.485	0.92
227.956	-3.77
228.427	-1.57
228.898	0.73
229.369	2.42
229.839	-10.27
230.31	-9.17
230.781	2.93
231.252	-6.27
231.722	-3.58
232.193	-5.47
232.664	-3.57
233.135	-3.08
233.605	-1.87
234.076	-9.38
234.546	6.23
235.017	0.83
235.487	-0.67
235.958	-0.67
236.428	-5.88
236.899	-2.07
237.369	-4.07
237.84	-4.57
238.31	2.83
238.78	1.03
239.251	-6.07
239.721	-6.67
240.191	-2.17
240.662	-7.37
241.132	0.93
241.602	1.73
242.072	0.23
242.542	-0.47
243.013	-3.48
243.483	1.12
243.953	2.13
244.423	-2.57
244.893	-6.77
245.363	2.02
245.833	1.02
246.303	-4.77
246.773	4.02
247.243	3.23
247.712	1.32
248.182	2.42
248.652	6.02
249.122	-15.38
249.592	11.33
250.061	10.02
250.531	12.83
251.001	4.53
251.471	8.43
251.94	6.42
252.41	0.93
252.879	-7.97
253.349	8.62
253.818	2.23
254.288	4.03
254.757	5.93
255.227	-2.87
255.696	-1.67
256.166	6.03
256.635	5.03
257.105	5.03
257.574	-0.38
258.043	5.73
258.513	0.52
258.982	11.83
259.451	-1.98
259.92	12.33
260.389	2.93
260.859	6.73
261.328	6.73
261.797	2.83
262.266	-1.88
262.735	10.93
263.204	3.83
263.673	-9.67
264.142	4.73
264.611	0.02
265.08	-3.48
265.549	-6.17
266.018	3.23
266.487	-7.98
266.955	-2.88
267.424	0.12
267.893	6.53
268.362	-0.57
268.83	-0.88
269.299	1.53
269.768	0.33
270.236	2.33
270.705	-1.17
271.174	-0.67
271.642	6.02
272.111	-0.17
272.579	10.12
273.048	4.02
273.516	12.03
273.985	9.03
274.453	11.62
274.922	11.33
275.39	5.73
275.858	-0.98
276.327	2.33
276.795	9.93
277.263	1.52
277.731	14.02
278.2	20.92
278.668	19.73
279.136	17.02
279.604	6.33
280.072	10.33
280.54	6.93
281.008	6.12
281.477	10.33
281.945	4.23
282.413	7.83
282.881	10.23
283.348	-0.47
283.816	8.92
284.284	4.52
284.752	19.32
285.22	6.43
285.688	7.62
286.156	11.62
286.623	19.62
287.091	16.83
287.559	13.02
288.026	10.93
288.494	6.12
288.962	-1.98
289.429	4.92
289.897	11.63
290.364	6.62
290.832	10.53
291.3	7.83
291.767	11.03
292.234	9.23
292.702	9.43
293.169	6.23
293.637	12.93
294.104	8.33
294.571	-2.08
295.039	5.12
295.506	6.12
295.973	12.73
296.44	10.73
296.908	10.83
297.375	13.33
297.842	12.02
298.309	5.83
298.776	3.93
299.243	15.52
299.71	4.62
300.177	10.53
300.644	11.03
301.111	8.53
301.578	17.42
302.045	9.03
302.512	11.62
302.979	19.83
303.446	13.73
303.913	16.23
304.379	14.83
304.846	22.73
305.313	12.83
305.78	15.82
306.246	19.12
306.713	23.12
307.18	13.43
307.646	20.73
308.113	20.02
308.579	11.83
309.046	13.33
309.512	19.73
309.979	11.42
310.445	19.33
310.912	23.92
311.378	28.93
311.845	17.23
312.311	23.62
312.777	20.73
313.244	25.23
313.71	34.02
314.176	22.43
314.642	20.93
315.109	17.43
315.575	24.43
316.041	24.43
316.507	21.73
316.973	29.83
317.439	27.12
317.905	25.73
318.371	29.02
318.837	24.83
319.303	24.92
319.769	21.63
320.235	22.12
320.701	27.62
321.167	27.52
321.633	21.53
322.099	26.73
322.564	30.52
323.03	27.73
323.496	29.23
323.962	30.23
324.427	23.52
324.893	32.32
325.359	25.02
325.824	25.73
326.29	22.92
326.755	26.52
327.221	29.23
327.686	29.62
328.152	37.53
328.617	33.12
329.083	40.12
329.548	38.33
330.014	34.73
330.479	30.02
330.944	27.42
331.41	30.92
331.875	36.93
332.34	33.83
332.805	33.32
333.271	33.93
333.736	34.02
334.201	38.03
334.666	35.82
335.131	45.33
335.596	38.82
336.061	37.42
336.526	30.92
336.991	43.53
337.456	49.93
337.921	41.12
338.386	32.83
338.851	36.82
339.316	38.73
339.781	39.53
340.246	43.12
340.711	38.83
341.175	42.73
341.64	30.53
342.105	32.73
342.569	44.32
343.034	55.12
343.499	44.52
343.963	37.73
344.428	57.53
344.893	54.23
345.357	47.42
345.822	49.62
346.286	55.43
346.751	57.23
347.215	49.23
347.679	55.12
348.144	64.83
348.608	62.03
349.073	58.62
349.537	59.43
350.001	56.52
350.465	65.33
350.93	62.62
351.394	67.12
351.858	56.73
352.322	68.43
352.786	66.63
353.25	69.83
353.715	83.03
354.179	76.62
354.643	94.73
355.107	92.43
355.571	84.33
356.035	75.33
356.498	86.12
356.962	97.73
357.426	90.73
357.89	85.33
358.354	67.83
358.818	67.43
359.281	66.33
359.745	70.23
360.209	65.73
360.673	60.63
361.136	70.13
361.6	72.52
362.064	67.43
362.527	65.12
362.991	77.73
363.454	71.12
363.918	61.83
364.381	70.62
364.845	73.62
365.308	68.92
365.772	80.52
366.235	84.02
366.698	71.02
367.162	73.92
367.625	76.83
368.088	79.42
368.552	78.83
369.015	78.93
369.478	80.93
369.941	89.52
370.404	82.73
370.867	90.52
371.331	88.73
371.794	96.62
372.257	94.53
372.72	97.62
373.183	90.93
373.646	86.52
374.109	82.33
374.572	91.42
375.035	88.92
375.497	93.52
375.96	90.03
376.423	97.73
376.886	98.93
377.349	99.42
377.811	94.03
378.274	91.83
378.737	90.42
379.199	95.13
379.662	97.93
380.125	102.43
380.587	100.53
381.05	108.63
381.512	105.62
381.975	111.42
382.437	105.73
382.9	104.23
383.362	114.33
383.825	121.83
384.287	124.33
384.75	125.42
385.212	119.73
385.674	117.12
386.136	119.43
386.599	113.92
387.061	112.23
387.523	116.43
387.985	117.42
388.447	128.33
388.91	127.43
389.372	136.73
389.834	128.52
390.296	126.52
390.758	129.83
391.22	142.62
391.682	163.62
392.144	219.53
392.606	180.73
393.068	137.03
393.529	145.23
393.991	133.83
394.453	131.52
394.915	135.82
395.377	151.83
395.838	170.42
396.3	131.52
396.762	124.43
397.224	127.83
397.685	124.92
398.147	118.93
398.608	123.03
399.07	118.12
399.531	122.93
399.993	127.93
400.454	135.12
400.916	133.02
401.377	132.23
401.839	136.82
402.3	130.73
402.762	150.73
403.223	153.92
403.684	158.32
404.145	146.62
404.607	155.73
405.068	146.73
405.529	151.83
405.99	156.93
406.451	152.12
406.913	157.23
407.374	154.52
407.835	158.03
408.296	158.93
408.757	153.12
409.218	172.62
409.679	163.83
410.14	162.73
410.601	161.02
411.062	176.73
411.522	176.12
411.983	181.62
412.444	162.83
412.905	163.33
413.366	170.33
413.826	187.93
414.287	203.62
414.748	242.73
415.208	234.32
415.669	204.73
416.13	196.82
416.59	190.73
417.051	207.73
417.511	205.12
417.972	228.23
418.432	234.12
418.893	277.33
419.353	241.33
419.814	192.02
420.274	169.32
420.734	172.32
421.195	182.52
421.655	185.23
422.115	177.42
422.576	183.02
423.036	181.52
423.496	197.23
423.956	198.02
424.416	215.52
424.876	249.02
425.336	240.93
425.797	242.32
426.257	241.93
426.717	220.02
427.177	213.33
427.637	209.13
428.097	217.12
428.556	220.53
429.016	247.92
429.476	241.43
429.936	241.23
430.396	252.12
430.856	260.52
431.315	287.43
431.775	313.32
432.235	339.33
432.694	323.63
433.154	327.53
433.614	336.52
434.073	295.63
434.533	263.73
434.993	248.42
435.452	254.92
435.912	259.52
436.371	255.73
436.83	251.52
437.29	240.23
437.749	221.03
438.209	221.22
438.668	242.22
439.127	247.83
439.587	230.52
440.046	221.92
440.505	229.43
440.964	236.43
441.424	260.23
441.883	260.73
442.342	234.63
442.801	209.53
443.26	195.83
443.719	208.92
444.178	204.53
444.637	196.43
445.096	205.93
445.555	213.62
446.014	215.43
446.473	212.62
446.932	210.63
447.391	206.83
447.849	211.23
448.308	201.33
448.767	206.43
449.226	216.52
449.685	223.72
450.143	234.42
450.602	218.62
451.061	219.33
451.519	216.73
451.978	211.72
452.436	209.42
452.895	221.02
453.353	232.32
453.812	217.23
454.27	224.42
454.729	217.63
455.187	218.03
455.646	220.23
456.104	215.12
456.562	228.93
457.021	236.42
457.479	236.33
457.937	240.02
458.395	238.73
458.854	219.62
459.312	224.12
459.77	235.12
460.228	228.43
460.686	221.53
461.144	232.42
461.602	224.93
462.06	230.23
462.518	233.82
462.976	236.32
463.434	238.62
463.892	240.53
464.35	247.32
464.808	259.03
465.266	241.12
465.724	251.63
466.181	256.33
466.639	250.12
467.097	261.03
467.555	273.53
468.012	278.72
468.47	275.23
468.928	292.62
469.385	297.52
469.843	312.92
470.3	313.63
470.758	324.73
471.215	333.33
471.673	355.33
472.13	358.82
472.588	369.73
473.045	335.73
473.503	346.33
473.96	353.83
474.417	359.33
474.875	388.43
475.332	414.73
475.789	410.02
476.246	412.43
476.704	440.63
477.161	448.42
477.618	463.42
478.075	492.73
478.532	531.73
478.989	590.83
479.446	674.43
479.903	673.83
480.36	704.22
480.817	746.43
481.274	842.12
481.731	940.82
482.188	1019.23
482.645	1141.12
483.102	1225.22
483.558	1338.62
484.015	1390.22
484.472	1381.42
484.929	1347.72
485.385	1286.12
485.842	1260.62
486.299	1190.83
486.755	1122.83
487.212	975.12
487.668	832.43
488.125	770.72
488.582	701.73
489.038	664.62
489.494	640.93
489.951	614.73
490.407	606.13
490.864	575.23
491.32	571.03
491.776	556.53
492.233	567.32
492.689	542.23
493.145	539.52
493.602	533.62
494.058	534.62
494.514	540.43
494.97	557.23
495.426	553.23
495.882	542.23
496.338	533.12
496.794	552.12
497.251	541.03
497.707	554.33
498.163	554.72
498.618	562.43
499.074	561.03
499.53	577.73
499.986	586.43
500.442	573.52
500.898	549.93
501.354	550.32
501.809	552.23
502.265	556.92
502.721	566.32
503.177	574.13
503.632	569.92
504.088	584.13
504.543	596.43
504.999	599.03
505.455	582.52
505.91	559.62
506.366	562.62
506.821	559.73
507.277	550.82
507.732	551.73
508.187	558.22
508.643	563.83
509.098	559.03
509.553	577.93
510.009	575.63
510.464	586.72
510.919	600.33
511.375	609.23
511.83	611.02
512.285	625.62
512.74	644.83
513.195	664.92
513.65	667.93
514.105	660.12
514.56	672.43
515.015	687.52
515.47	686.12
515.925	683.33
516.38	681.53
516.835	691.72
517.29	675.73
517.745	666.02
518.2	662.23
518.655	647.62
519.109	633.43
519.564	633.32
520.019	631.42
520.474	621.23
520.928	630.13
521.383	620.52
521.838	613.03
522.292	618.83
522.747	608.83
523.201	615.52
523.656	608.53
524.11	598.23
524.565	592.92
525.019	596.43
525.474	604.03
525.928	595.13
526.382	592.03
526.837	603.33
527.291	600.53
527.745	603.12
528.2	594.43
528.654	583.42
529.108	587.22
529.562	584.03
530.016	595.23
530.47	586.12
530.925	590.92
531.379	588.92
531.833	594.43
532.287	583.93
532.741	587.73
533.195	597.73
533.649	607.12
534.103	603.73
534.556	602.52
535.01	596.23
535.464	583.92
535.918	598.43
536.372	602.23
536.826	607.63
537.279	588.23
537.733	596.42
538.187	587.03
538.64	600.12
539.094	602.23
539.548	598.63
540.001	598.52
540.455	596.12
540.908	616.22
541.362	625.33
541.815	624.42
542.269	633.52
542.722	634.72
543.175	643.53
543.629	647.12
544.082	655.12
544.536	654.12
544.989	663.02
545.442	663.42
545.895	649.82
546.349	651.02
546.802	660.23
547.255	670.12
547.708	674.23
548.161	670.43
548.614	689.43
549.067	691.33
549.52	686.62
549.973	678.42
550.426	665.02
550.879	656.83
551.332	659.73
551.785	667.03
552.238	673.12
552.691	686.43
553.144	676.02
553.596	690.83
554.049	705.12
554.502	724.33
554.955	742.43
555.407	739.62
555.86	733.92
556.313	733.83
556.765	719.73
557.218	720.52
557.67	719.32
558.123	713.82
558.576	710.22
559.028	719.93
559.48	719.73
559.933	713.83
560.385	690.23
560.838	663.23
561.29	643.53
561.742	631.52
562.195	624.92
562.647	622.63
563.099	633.02
563.551	630.42
564.004	651.23
564.456	627.13
564.908	612.62
565.36	598.53
565.812	584.13
566.264	580.23
566.716	578.33
567.168	562.12
567.62	567.73
568.072	555.73
568.524	560.23
568.976	554.02
569.428	538.42
569.88	541.22
570.332	547.43
570.784	539.73
571.235	555.02
571.687	555.83
572.139	562.52
572.59	567.82
573.042	565.82
573.494	560.63
573.945	568.02
574.397	544.62
574.849	544.62
575.3	547.23
575.752	536.42
576.203	537.02
576.655	534.32
577.106	528.03
577.557	516.52
578.009	528.93
578.46	520.13
578.912	517.73
579.363	516.73
579.814	535.02
580.265	520.43
580.717	523.33
581.168	524.83
581.619	539.23
582.07	538.23
582.521	534.82
582.972	519.52
583.423	526.13
583.875	529.53
584.326	544.62
584.777	572.13
585.227	622.22
585.678	681.92
586.129	737.32
586.58	776.93
587.031	837.92
587.482	941.42
587.933	1062.03
588.384	934.02
588.834	728.53
589.285	615.73
589.736	608.62
590.186	603.82
590.637	599.83
591.088	583.43
591.538	574.73
591.989	557.92
592.439	557.93
592.89	552.62
593.34	549.72
593.791	543.82
594.241	535.63
594.692	531.12
595.142	535.83
595.593	524.62
596.043	530.73
596.493	532.83
596.943	547.02
597.394	549.53
597.844	540.42
598.294	562.33
598.744	567.12
599.195	587.92
599.645	631.23
600.095	652.52
600.545	709.52
600.995	729.52
601.445	790.23
601.895	831.63
602.345	873.23
602.795	850.12
603.245	814.63
603.695	781.23
604.145	730.42
604.594	698.23
605.044	659.33
605.494	616.13
605.944	570.92
606.393	559.43
606.843	538.72
607.293	548.73
607.743	546.42
608.192	550.12
608.642	572.83
609.091	571.93
609.541	574.42
609.99	575.43
610.44	565.13
610.889	538.93
611.339	527.93
611.788	515.43
612.238	524.82
612.687	535.02
613.136	532.92
613.586	539.43
614.035	537.73
614.484	547.92
614.933	552.03
615.383	548.62
615.832	542.93
616.281	528.43
616.73	518.42
617.179	495.93
617.628	482.93
618.077	475.62
618.526	461.52
618.975	464.23
619.424	457.82
619.873	462.83
620.322	460.03
620.771	450.33
621.22	446.93
621.669	440.33
622.118	436.02
622.567	421.63
623.015	418.53
623.464	427.33
623.913	422.32
624.361	404.43
624.81	410.62
625.259	408.02
625.707	415.83
626.156	405.72
626.604	422.12
627.053	417.62
627.501	418.93
627.95	416.73
628.398	422.82
628.847	425.02
629.295	418.53
629.744	420.43
630.192	420.52
630.64	417.23
631.089	409.93
631.537	403.42
631.985	411.03
632.433	415.23
632.881	409.93
633.33	438.73
633.778	427.03
634.226	397.52
634.674	405.83
635.122	403.02
635.57	416.43
636.018	435.72
636.466	420.23
636.914	402.83
637.362	419.43
637.81	419.63
638.258	427.33
638.705	422.22
639.153	445.42
639.601	436.03
640.049	460.93
640.497	492.82
640.944	502.13
641.392	469.22
641.84	444.82
642.287	423.23
642.735	411.93
643.182	420.43
643.63	424.83
644.078	416.33
644.525	418.62
644.973	430.92
645.42	432.73
645.867	443.92
646.315	466.13
646.762	476.43
647.21	491.43
647.657	515.73
648.104	537.92
648.551	552.83
648.999	595.42
649.446	653.33
649.893	710.13
650.34	810.52
650.787	962.23
651.234	1183.53
651.682	1561.12
652.129	2097.22
652.576	2998.12
653.023	4402.02
653.47	6148.22
653.917	7738.82
654.363	9183.12
654.81	10409.83
655.257	9923.33
655.704	6443.43
656.151	3776.52
656.598	2443.43
657.044	1740.42
657.491	1324.43
657.938	1070.22
658.385	884.33
658.831	770.43
659.278	681.53
659.724	602.52
660.171	554.52
660.618	507.12
661.064	482.33
661.511	461.12
661.957	457.13
662.404	440.03
662.85	437.23
663.296	427.22
663.743	402.73
664.189	389.52
664.635	386.33
665.082	375.33
665.528	375.43
665.974	371.83
666.42	364.43
666.867	357.42
667.313	336.73
667.759	338.43
668.205	326.43
668.651	337.23
669.097	338.93
669.543	346.23
669.989	329.42
670.435	316.13
670.881	321.52
671.327	321.53
671.773	334.12
672.219	353.43
672.665	387.93
673.11	412.52
673.556	449.12
674.002	480.62
674.448	477.23
674.893	400.62
675.339	338.13
675.785	316.92
676.23	293.73
676.676	283.62
677.122	271.63
677.567	264.33
678.013	256.12
678.458	249.53
678.904	251.33
679.349	243.62
679.794	252.33
680.24	245.82
680.685	245.53
681.131	248.53
681.576	248.23
682.021	251.92
682.466	247.73
682.912	241.52
683.357	246.23
683.802	266.52
684.247	283.73
684.692	315.73
685.137	346.62
685.583	380.83
686.028	408.23
686.473	372.93
686.918	314.52
687.363	296.43
687.807	281.52
688.252	256.02
688.697	254.93
689.142	234.62
689.587	230.43
690.032	230.73
690.477	240.02
690.921	239.63
691.366	264.83
691.811	286.43
692.255	306.12
692.7	332.73
693.145	348.13
693.589	479.93
694.034	773.12
694.478	1080.23
694.923	1280.53
695.367	1704.12
695.812	889.52
696.256	361.52
696.701	257.23
697.145	241.42
697.59	233.02
698.034	221.93
698.478	233.52
698.922	226.93
699.367	229.73
699.811	231.03
700.255	251.23
700.699	269.42
701.143	299.23
701.588	333.82
702.032	361.62
702.476	358.63
702.92	344.52
703.364	345.12
703.808	441.23
704.252	707.03
704.696	1013.02
705.14	1218.02
705.584	1590.53
706.027	780.62
706.471	373.73
706.915	276.82
707.359	247.42
707.803	218.32
708.246	219.13
708.69	212.23
709.134	217.22
709.577	219.33
710.021	225.52
710.465	225.02
710.908	213.72
711.352	208.12
711.795	218.12
712.239	247.62
712.682	262.23
713.126	296.43
713.569	332.12
714.012	270.03
714.456	223.52
714.899	206.03
715.342	194.33
715.786	182.73
716.229	177.43
716.672	175.52
717.115	169.53
717.558	174.03
718.002	174.23
718.445	181.93
718.888	193.02
719.331	200.93
719.774	212.53
720.217	218.72
720.66	200.13
721.103	189.73
721.546	173.33
721.989	173.62
722.432	160.03
722.874	173.82
723.317	156.23
723.76	162.33
724.203	182.82
724.645	216.92
725.088	303.52
725.531	408.02
725.974	462.73
726.416	398.02
726.859	215.82
727.301	175.03
727.744	170.53
728.187	159.83
728.629	172.42
729.071	167.53
729.514	183.02
729.956	185.52
730.399	203.83
730.841	206.13
731.283	190.02
731.726	187.53
732.168	182.62
732.61	185.32
733.053	198.02
733.495	215.83
733.937	240.73
734.379	274.43
734.821	297.23
735.263	369.43
735.705	560.33
736.148	1066.43
736.59	1816.92
737.032	2277.22
737.474	1869.22
737.916	584.33
738.357	308.22
738.799	227.83
739.241	207.53
739.683	201.73
740.125	205.33
740.567	205.12
741.008	220.52
741.45	226.33
741.892	223.73
742.334	249.83
742.775	258.52
743.217	252.43
743.658	197.23
744.1	179.93
744.542	179.73
744.983	226.92
745.425	255.23
745.866	259.33
746.307	197.73
746.749	201.53
747.19	231.63
747.632	302.23
748.073	591.52
748.514	1267.42
748.956	2049.72
749.397	2569.82
749.838	2133.73
750.279	2232.82
750.72	1115.12
751.162	390.53
751.603	225.23
752.044	174.02
752.485	147.33
752.926	147.52
753.367	139.73
753.808	136.23
754.249	127.23
754.69	132.23
755.131	129.62
755.572	125.02
756.013	121.92
756.453	129.73
756.894	123.63
757.335	128.03
757.776	142.83
758.216	137.62
758.657	138.83
759.098	137.83
759.538	155.53
759.979	180.52
760.42	258.12
760.86	475.53
761.301	1239.52
761.741	3149.12
762.182	4929.83
762.622	3488.23
763.063	977.03
763.503	390.82
763.943	239.13
764.384	230.93
764.824	263.43
765.264	277.22
765.705	207.32
766.145	139.62
766.585	127.02
767.025	125.12
767.465	114.23
767.906	160.83
768.346	213.23
768.786	218.93
769.226	168.12
769.666	220.52
770.106	408.12
770.546	1056.12
770.986	1956.42
771.426	1795.83
771.866	573.93
772.306	227.92
772.745	138.62
773.185	124.23
773.625	124.93
774.065	105.43
774.505	128.92
774.944	183.52
775.384	389.43
775.824	739.02
776.263	742.53
776.703	319.63
777.142	144.12
777.582	101.23
778.021	91.03
778.461	95.13
778.9	90.23
779.34	98.73
779.779	77.12
780.219	70.33
780.658	72.93
781.097	71.53
781.537	76.23
781.976	79.02
782.415	71.23
782.855	63.02
783.294	66.73
783.733	69.12
784.172	75.73
784.611	71.23
785.05	70.52
785.489	73.93
785.928	77.52
786.367	80.62
786.806	77.02
787.245	89.52
787.684	88.42
788.123	105.12
788.562	90.83
789.001	89.83
789.44	84.73
789.879	78.23
790.317	82.12
790.756	88.93
791.195	86.73
791.634	97.73
792.072	133.73
792.511	242.93
792.95	681.32
793.388	1556.22
793.827	1477.53
794.265	492.33
794.704	195.23
795.142	130.93
795.581	109.33
796.019	93.43
796.458	90.12
796.896	84.33
797.334	87.73
797.773	107.33
798.211	151.33
798.649	298.12
799.087	706.43
799.526	1137.93
799.964	1443.32
800.402	1533.32
800.84	554.23
801.278	212.53
801.716	129.62
802.154	110.73
802.592	105.13
803.03	98.03
803.468	87.03
803.906	93.53
804.344	103.33
804.782	97.43
805.22	88.92
805.658	82.83
806.096	102.63
806.533	106.12
806.971	121.02
807.409	156.62
807.847	222.23
808.284	458.63
808.722	1317.62
809.16	2463.43
809.597	2249.43
810.035	4024.12
810.472	4567.12
810.91	1609.43
811.347	594.52
811.785	298.43
812.222	185.92
812.66	146.93
813.097	119.82
813.535	101.82
813.972	92.83
814.409	83.62
814.846	73.03
815.284	83.93
815.721	68.83
816.158	73.13
816.595	79.83
817.032	125.12
817.47	148.42
817.907	111.33
818.344	84.62
818.781	80.63
819.218	67.03
819.655	90.83
820.092	140.73
820.529	165.82
820.966	136.23
821.403	96.73
821.839	74.23
822.276	70.03
822.713	85.42
823.15	96.63
823.587	81.23
824.023	97.12
824.46	196.93
824.897	629.83
825.333	1013.43
825.77	434.62
826.206	166.23
826.643	98.92
827.08	70.03
827.516	58.53
827.953	48.12
828.389	58.73
828.825	46.62
829.262	49.73
829.698	40.02
830.135	45.62
830.571	37.73
831.007	44.12
831.443	43.73
831.88	47.63
832.316	38.92
832.752	44.23
833.188	44.43
833.624	46.23
834.06	43.83
834.497	44.12
834.933	53.63
835.369	52.23
835.805	42.73
836.241	55.23
836.677	51.23
837.112	60.23
837.548	77.73
837.984	99.52
838.42	137.73
838.856	335.12
839.292	1084.82
839.727	1762.12
840.163	802.73
840.599	655.03
841.034	1491.03
841.47	1663.32
841.906	592.63
842.341	242.72
842.777	162.53
843.212	200.73
843.648	203.62
844.083	96.42
844.519	61.03
844.954	52.03
845.39	41.73
845.825	46.23
846.261	41.93
846.696	41.73
847.131	38.43
847.566	42.12
848.002	38.43
848.437	36.53
848.872	45.23
849.307	38.53
849.742	57.33
850.177	113.63
850.613	396.63
851.048	661.13
851.483	273.63
851.918	108.42
852.353	58.32
852.788	35.62
853.223	36.52
853.657	38.62
854.092	30.43
854.527	27.83
854.962	29.83
855.397	32.33
855.832	35.73
856.266	25.93
856.701	27.33
857.136	25.62
857.57	28.13
858.005	35.33
858.44	43.02
858.874	31.83
859.309	35.23
859.743	21.92
860.178	30.32
860.612	32.33
861.047	32.42
861.481	53.62
861.915	52.53
862.35	37.93
862.784	22.42
863.218	26.93
863.653	19.83
864.087	34.73
864.521	40.73
864.955	47.23
865.39	109.73
865.824	122.53
866.258	86.23
866.692	120.83
867.126	143.83
867.56	84.12
867.994	35.23
868.428	27.23
868.862	36.83
869.296	42.83
869.73	44.73
870.164	43.02
870.598	37.93
871.031	25.42
871.465	23.02
871.899	23.33
872.333	14.63
872.766	17.73
873.2	12.73
873.634	21.73
874.067	18.23
874.501	18.92
874.935	20.02
875.368	22.62
875.802	19.23
876.235	19.52
876.669	13.23
877.102	12.83
877.535	16.53
877.969	18.12
878.402	16.42
878.836	7.93
879.269	15.93
879.702	17.33
880.135	12.92
880.569	16.23
881.002	16.23
881.435	17.02
881.868	8.43
882.301	23.33
882.734	11.33
883.167	16.23
883.601	11.03
884.034	6.02
884.467	2.73
884.899	13.23
885.332	10.23
885.765	7.53
886.198	13.23
886.631	15.23
887.064	11.93
887.497	12.92
887.929	16.12
888.362	6.52
888.795	5.33
889.228	8.52
889.66	14.52
890.093	8.62
890.526	16.82
890.958	11.13
891.391	12.43
891.823	15.23
892.256	1.33
892.688	3.02
893.121	9.43
893.553	10.42
893.985	17.23
894.418	12.73
894.85	6.62
895.282	7.62
895.715	17.73
896.147	11.53
896.579	15.42
897.011	8.13
897.444	12.62
897.876	1.03
898.308	11.73
898.74	9.73
899.172	6.03
899.604	16.03
900.036	10.32
900.468	8.93
900.9	12.23
901.332	15.92
901.764	10.52
902.196	14.13
902.628	15.83
903.06	6.42
903.491	24.52
903.923	13.02
904.355	13.93
904.787	18.62
905.218	14.53
905.65	12.12
906.082	4.02
906.513	2.23
906.945	12.42
907.376	6.62
907.808	9.43
908.239	13.03
908.671	10.33
909.102	15.93
909.534	18.23
909.965	37.43
910.397	70.82
910.828	224.83
911.259	364.02
911.691	167.62
912.122	77.73
912.553	31.33
912.984	29.33
913.415	21.23
913.847	17.12
914.278	10.02
914.709	12.52
915.14	13.33
915.571	11.23
916.002	12.43
916.433	17.63
916.864	19.62
917.295	10.52
917.726	15.02
918.157	10.82
918.587	18.33
919.018	12.43
919.449	16.03
919.88	12.62
920.311	20.93
920.741	31.32
921.172	123.23
921.603	111.92
922.033	46.83
922.464	33.63
922.895	15.12
923.325	12.62
923.756	8.62
924.186	8.33
924.617	15.73
925.047	22.83
925.478	31.12
925.908	25.12
926.338	15.03
926.769	8.63
927.199	17.53
927.629	0.03
928.06	8.23
928.49	8.43
928.92	7.02
929.35	3.43
929.78	5.92
930.21	2.73
930.641	7.93
931.071	8.83
931.501	3.12
931.931	2.53
932.361	4.62
932.791	4.93
933.221	5.33
933.651	6.23
934.08	9.23
934.51	21.73
934.94	7.53
935.37	4.63
935.8	7.12
936.229	3.42
936.659	4.73
937.089	1.93
937.519	10.62
937.948	20.42
938.378	13.03
938.807	2.73
939.237	8.63
939.666	4.13
940.096	-4.98
940.525	-4.98
940.955	3.53
941.384	-0.97
941.814	-4.98
942.243	1.93
942.672	0.93
943.102	-7.97
943.531	-4.47
943.96	-2.98
944.39	1.32
944.819	-3.38
945.248	-2.27
945.677	-1.07
946.106	3.62
946.535	2.32
946.964	0.43
947.393	2.93
947.822	2.43
948.251	-2.48
948.68	0.03
949.109	1.62
949.538	6.83
949.967	-4.88
950.396	-0.27
950.825	-4.27
951.254	0.03
951.682	-7.67
952.111	-0.27
952.54	7.23
952.969	-4.57
953.397	-10.98
953.826	-0.08
954.254	-13.38
954.683	2.32
955.112	-6.57
955.54	-4.87
955.969	-1.97
956.397	-0.27
956.826	-3.17
957.254	4.73
957.682	-4.88
958.111	6.92
958.539	3.33
958.967	0.83
959.396	-0.88
959.824	1.33
960.252	5.12
960.68	-5.58
961.109	-9.27
961.537	-3.97
961.965	-2.08
962.393	0.33
962.821	-7.67
963.249	1.42
963.677	-1.07
964.105	-4.67
964.533	27.13
964.961	26.92
965.389	12.23
965.817	10.92
966.245	0.12
966.672	0.03
967.1	-8.67
967.528	-1.58
967.956	-3.77
968.383	4.12
968.811	-1.97
969.239	-0.58
969.666	-7.47
970.094	-1.47
970.522	1.23
970.949	-0.08
971.377	-5.77
971.804	-4.88
972.232	-1.38
972.659	4.62
973.087	-0.58
973.514	-5.38
973.941	-9.48
974.369	4.73
974.796	0.83
975.223	0.73
975.651	-4.57
976.078	0.12
976.505	-2.98
976.932	-1.07
977.359	8.02
977.786	8.62
978.214	1.73
978.641	-5.38
979.068	-5.48
979.495	-9.67
979.922	-7.77
980.349	-8.38
980.776	-1.27
981.202	0.42
981.629	2.23
982.056	3.23
982.483	1.23
982.91	-3.97
983.337	-7.17
983.763	1.23
984.19	-1.48
984.617	-6.07
985.043	-2.38
985.47	-3.67
985.897	-1.88
986.323	-8.17
986.75	3.43
987.176	-0.67
987.603	-1.08
988.029	0.92
988.456	-3.77
988.882	0.03
989.308	-8.77
989.735	-3.88
990.161	-0.98
990.587	-3.27
991.014	-0.17
991.44	6.33
991.866	-3.77
992.292	-2.27
992.719	-3.67
993.145	6.33
993.571	-1.77
993.997	-7.07
994.423	4.12
994.849	-3.08
995.275	1.13
995.701	-0.67
996.127	-8.48
996.553	3.53
996.979	-8.27
997.405	-5.97
997.83	-3.58
998.256	-2.18
998.682	-5.17
999.108	-5.98
999.534	-1.27
999.959	-1.38
1000.385	-8.48
1000.811	-4.38
1001.236	-8.18
1001.662	-8.77
1002.087	-10.47
1002.513	-6.08
1002.938	-0.07
1003.364	-3.77
1003.789	2.53
1004.215	5.53
1004.64	-3.38
1005.066	4.33
1005.491	0.73
1005.916	-1.38
1006.342	-1.27
1006.767	-7.07
1007.192	5.73
1007.617	-2.98
1008.042	-2.77
1008.468	-3.67
1008.893	-1.57
1009.318	-0.77
1009.743	-5.88
1010.168	3.92
1010.593	-0.38
1011.018	-5.88
1011.443	-0.67
1011.868	2.43
1012.293	-1.37
1012.718	-4.67
1013.143	-2.38
1013.567	2.83
1013.992	-2.07
1014.417	-11.77
1014.842	3.82
1015.267	-8.27
1015.691	-2.67
1016.116	4.23
1016.541	2.52
1016.965	0.42
1017.39	3.73
1017.814	-2.47
1018.239	-3.77
1018.663	-5.77
1019.088	-11.08
1019.512	-0.48
1019.937	1.52
1020.361	-3.98
1020.785	-5.98
1021.21	-0.77
1021.634	-3.57
1022.058	3.73
1022.483	0.12
1022.907	-4.58
1023.331	-5.87
1023.755	-5.58
1024.179	-3.98
1024.604	-12.38
1025.028	-7.68
1025.452	-12.38
1025.876	-4.08
1026.3	0.73
1026.724	-7.38
1027.148	-4.38
1027.572	-8.38
1027.996	-4.27
1028.42	-0.77
1028.843	-6.48
1029.267	-4.27
1029.691	-3.38
1030.115	-7.88
1030.539	-6.08
1030.962	-8.98
1031.386	-9.77
1031.81	0.73
1032.233	2.12
1032.657	-3.07
1033.08	3.83
1033.504	-5.27
1033.927	-7.67
1034.351	2.93
1034.774	-9.07
1035.198	-4.98
1035.621	-5.67
1036.045	-7.17
1036.468	-0.38
1036.891	-12.27
1037.315	-6.88
1037.738	-9.88
1038.161	0.52
1038.584	-8.98
1039.008	-0.77
1039.431	-0.88
1039.854	-3.08
1040.277	-8.57
1040.7	-7.77
1041.123	-0.17
1041.546	-11.37
1041.969	-2.77
1042.392	-8.08
1042.815	-4.98
1043.238	5.92
1043.661	2.73
1044.084	-7.77
1044.507	-3.67
1044.93	-6.57
1045.352	-5.58
1045.775	-1.77
1046.198	-4.17
1046.621	-2.37
1047.043	0.63
1047.466	12.33
1047.889	-1.98
1048.311	-15.88
1048.734	-5.27
1049.156	-4.97
1049.579	-0.77
1050.001	-3.38
1050.424	-1.08
1050.846	-5.48
1051.269	-10.87
1051.691	-12.47
1052.113	-5.27
1052.536	-1.38
1052.958	4.02
1053.38	-1.38
1053.802	-6.48
1054.225	3.02
1054.647	-8.67
1055.069	-4.88
1055.491	-3.88
1055.913	-6.38
1056.335	-6.38
1056.757	-7.67
1057.179	-5.77
1057.601	-5.07
1058.023	-1.67
1058.445	-1.77
1058.867	-1.67
1059.289	-2.88
1059.711	-0.47
1060.133	4.02
1060.555	-6.98
1060.976	-4.27
1061.398	-7.88
1061.82	-11.27
1062.241	-5.48
1062.663	-3.58
1063.085	-5.27
1063.506	2.93
1063.928	-6.88
1064.35	-2.38
1064.771	-11.08
1065.193	-7.77
1065.614	-3.77
1066.035	-4.37
1066.457	-1.27
1066.878	-2.48
1067.3	-6.48
1067.721	-8.88
1068.142	-0.08
1068.564	-5.27
1068.985	-2.88
1069.406	-6.17
1069.827	-2.07
1070.248	-1.27
1070.67	-5.07
1071.091	-11.07
1071.512	-4.18
1071.933	-8.08
1072.354	-11.77
1072.775	-5.88
1073.196	-9.97
1073.617	-0.68
1074.038	-6.07
1074.459	-2.57
1074.88	-9.38
1075.3	0.43
1075.721	-7.58
1076.142	-2.27
1076.563	-1.48
1076.983	-4.57
1077.404	-11.47
1077.825	-4.27
1078.246	-8.17
1078.666	-9.27
1079.087	-4.77
1079.507	-3.48
1079.928	1.62
1080.348	-0.57
1080.769	-3.98
1081.189	-3.17
1081.61	-3.77
1082.03	-4.98
1082.451	-5.17
1082.871	-3.97
1083.291	-3.08
1083.711	-4.57
1084.132	-5.27
1084.552	-3.27
1084.972	-4.97
1085.392	-6.48
1085.813	-10.48
1086.233	-11.17
1086.653	-11.38
1087.073	-2.47
1087.493	-3.98
1087.913	-4.98
1088.333	-7.27
1088.753	-6.27
1089.173	5.82
1089.593	-4.67
1090.013	2.62
1090.433	2.42
1090.852	-6.38
1091.272	-0.58
1091.692	-1.48
1092.112	-2.17
1092.531	-6.58
1092.951	-13.38
1093.371	-6.98
1093.79	4.43
1094.21	-2.97
1094.63	-6.07
1095.049	-4.97
1095.469	-2.27
1095.888	-4.77
1096.308	5.73
1096.727	7.43
1097.146	-8.97
1097.566	-2.17
1097.985	-8.07
1098.405	-0.27
1098.824	-3.57
1099.243	-6.57
1099.662	-3.17
1100.082	-1.17
1100.501	-1.98
1100.92	-6.48
1101.339	-5.68
1101.758	-9.07
