Data from 20171114-ORNL-Ar_H_NY_Subt18_08-03-46-230.txt Node
Date: Tue Nov 14 08:03:46 EST 2017
User: Ender
Spectrometer: HR+D1039
Trigger mode: 0
Integration Time (sec): 2.730000E-2
Scans to average: 10
Electric dark correction enabled: true
Nonlinearity correction enabled: false
Boxcar width: 0
XAxis mode: Wavelengths
Number of Pixels in Spectrum: 2048
>>>>>Begin Spectral Data<<<<<
187.836	-3.78
188.309	-3.78
188.782	-3.78
189.255	3.72
189.728	-3.48
190.201	3.42
190.674	3.12
191.147	2.52
191.619	-7.98
192.092	-0.48
192.565	3.72
193.038	0.12
193.511	3.92
193.984	-0.88
194.456	-2.18
194.929	1.02
195.402	-0.98
195.874	-1.78
196.347	-1.38
196.82	-8.18
197.292	2.72
197.765	-2.58
198.237	-6.58
198.71	1.32
199.182	-3.28
199.655	-0.98
200.127	-2.58
200.6	-4.88
201.072	-5.98
201.544	-8.48
202.017	0.52
202.489	1.02
202.961	-3.78
203.433	-7.38
203.906	-6.08
204.378	-5.58
204.85	-3.08
205.322	-8.58
205.794	-2.38
206.266	-2.98
206.739	-8.18
207.211	3.22
207.683	-8.58
208.155	0.12
208.627	-8.78
209.099	-8.38
209.57	-11.38
210.042	-2.68
210.514	-4.68
210.986	-5.48
211.458	-9.68
211.93	-2.38
212.402	4.42
212.873	-7.98
213.345	-12.58
213.817	-13.28
214.288	-7.58
214.76	-9.88
215.232	0.82
215.703	1.82
216.175	-1.48
216.646	-3.18
217.118	-7.28
217.589	-12.18
218.061	-2.38
218.532	-5.48
219.004	-3.68
219.475	-3.88
219.946	-3.18
220.418	-2.58
220.889	5.82
221.36	4.62
221.832	-7.18
222.303	-10.58
222.774	0.52
223.245	-9.78
223.717	-7.28
224.188	-0.48
224.659	-5.98
225.13	-4.78
225.601	-3.08
226.072	-2.28
226.543	-5.48
227.014	-0.58
227.485	-2.08
227.956	-0.98
228.427	-2.68
228.898	-2.98
229.369	-1.98
229.839	-4.48
230.31	-5.88
230.781	-2.98
231.252	-7.28
231.722	-5.38
232.193	-4.98
232.664	-3.58
233.135	1.92
233.605	-3.18
234.076	-2.98
234.546	3.02
235.017	0.12
235.487	-5.48
235.958	-1.58
236.428	-2.58
236.899	1.12
237.369	-0.78
237.84	-4.28
238.31	7.82
238.78	-1.18
239.251	-8.08
239.721	-2.78
240.191	-7.58
240.662	-2.08
241.132	-5.78
241.602	-3.58
242.072	-2.38
242.542	0.32
243.013	-3.68
243.483	-6.38
243.953	-3.28
244.423	-1.58
244.893	-3.38
245.363	2.12
245.833	-2.38
246.303	-1.98
246.773	-2.48
247.243	-3.38
247.712	-2.58
248.182	-0.38
248.652	5.02
249.122	-6.28
249.592	2.92
250.061	-1.98
250.531	10.12
251.001	-0.78
251.471	5.02
251.94	7.72
252.41	-1.18
252.879	-1.28
253.349	5.62
253.818	9.22
254.288	-2.98
254.757	-0.58
255.227	-7.18
255.696	1.92
256.166	1.32
256.635	-1.08
257.105	2.42
257.574	-5.08
258.043	2.62
258.513	-4.18
258.982	8.52
259.451	-4.88
259.92	-0.08
260.389	-5.88
260.859	4.52
261.328	1.62
261.797	1.92
262.266	-0.78
262.735	5.62
263.204	1.32
263.673	-7.08
264.142	3.82
264.611	-5.98
265.08	1.12
265.549	-1.78
266.018	6.02
266.487	-0.28
266.955	-2.68
267.424	-0.58
267.893	-4.48
268.362	2.42
268.83	-2.28
269.299	5.32
269.768	2.02
270.236	-0.28
270.705	-0.78
271.174	-0.68
271.642	-0.08
272.111	-3.38
272.579	-0.58
273.048	-1.98
273.516	2.22
273.985	0.92
274.453	3.32
274.922	12.22
275.39	5.32
275.858	2.12
276.327	3.92
276.795	7.12
277.263	7.02
277.731	10.32
278.2	3.32
278.668	7.92
279.136	4.62
279.604	-3.48
280.072	5.52
280.54	7.22
281.008	9.32
281.477	8.62
281.945	3.92
282.413	9.72
282.881	10.22
283.348	0.62
283.816	7.12
284.284	7.02
284.752	13.22
285.22	8.62
285.688	6.42
286.156	11.02
286.623	19.22
287.091	4.72
287.559	11.32
288.026	10.72
288.494	6.72
288.962	-1.48
289.429	2.82
289.897	16.82
290.364	8.32
290.832	9.62
291.3	10.72
291.767	18.72
292.234	8.42
292.702	7.92
293.169	10.92
293.637	13.42
294.104	9.72
294.571	3.92
295.039	3.32
295.506	11.22
295.973	8.82
296.44	8.52
296.908	12.42
297.375	12.22
297.842	9.32
298.309	11.22
298.776	5.42
299.243	18.62
299.71	13.02
300.177	12.72
300.644	16.02
301.111	14.82
301.578	12.52
302.045	7.42
302.512	17.72
302.979	21.82
303.446	12.32
303.913	11.62
304.379	14.42
304.846	21.82
305.313	19.62
305.78	15.82
306.246	17.72
306.713	19.62
307.18	17.32
307.646	26.02
308.113	20.22
308.579	15.22
309.046	15.42
309.512	14.02
309.979	17.02
310.445	24.72
310.912	16.02
311.378	28.32
311.845	25.32
312.311	24.92
312.777	22.62
313.244	25.82
313.71	30.42
314.176	23.52
314.642	14.32
315.109	18.62
315.575	26.52
316.041	23.22
316.507	23.22
316.973	25.82
317.439	25.82
317.905	25.62
318.371	24.42
318.837	25.52
319.303	27.62
319.769	29.02
320.235	21.62
320.701	26.92
321.167	30.82
321.633	27.72
322.099	27.82
322.564	36.32
323.03	29.62
323.496	27.22
323.962	33.52
324.427	28.62
324.893	30.92
325.359	27.62
325.824	30.42
326.29	31.02
326.755	29.32
327.221	31.32
327.686	38.32
328.152	39.82
328.617	34.72
329.083	39.22
329.548	38.62
330.014	40.92
330.479	35.02
330.944	36.52
331.41	39.32
331.875	39.82
332.34	35.92
332.805	37.82
333.271	36.92
333.736	34.22
334.201	39.02
334.666	43.92
335.131	48.82
335.596	47.92
336.061	48.32
336.526	31.92
336.991	38.42
337.456	51.62
337.921	45.82
338.386	37.82
338.851	38.12
339.316	47.82
339.781	36.02
340.246	41.72
340.711	37.62
341.175	48.82
341.64	38.82
342.105	47.22
342.569	52.52
343.034	52.52
343.499	54.92
343.963	45.12
344.428	64.12
344.893	54.72
345.357	55.92
345.822	52.62
346.286	56.82
346.751	62.02
347.215	56.22
347.679	58.92
348.144	86.22
348.608	70.82
349.073	60.72
349.537	66.12
350.001	68.22
350.465	79.32
350.93	70.72
351.394	74.52
351.858	67.22
352.322	79.82
352.786	72.12
353.25	83.72
353.715	94.12
354.179	82.72
354.643	97.42
355.107	102.92
355.571	91.22
356.035	88.62
356.498	98.42
356.962	105.42
357.426	107.12
357.89	95.72
358.354	81.22
358.818	75.92
359.281	78.42
359.745	71.02
360.209	80.92
360.673	66.22
361.136	77.02
361.6	80.62
362.064	80.92
362.527	79.52
362.991	92.62
363.454	73.72
363.918	77.82
364.381	76.92
364.845	82.32
365.308	88.42
365.772	86.72
366.235	87.72
366.698	83.02
367.162	88.12
367.625	85.62
368.088	89.42
368.552	93.52
369.015	89.52
369.478	95.52
369.941	94.22
370.404	90.42
370.867	100.12
371.331	103.72
371.794	107.42
372.257	97.72
372.72	104.42
373.183	102.12
373.646	102.62
374.109	100.32
374.572	100.82
375.035	104.62
375.497	106.12
375.96	106.02
376.423	100.12
376.886	117.12
377.349	109.72
377.811	106.92
378.274	108.22
378.737	109.02
379.199	116.42
379.662	113.52
380.125	118.02
380.587	109.32
381.05	118.32
381.512	121.02
381.975	132.12
382.437	115.92
382.9	116.62
383.362	124.62
383.825	132.22
384.287	130.42
384.75	127.02
385.212	130.92
385.674	129.82
386.136	132.02
386.599	128.52
387.061	128.62
387.523	125.02
387.985	133.22
388.447	141.12
388.91	133.12
389.372	134.22
389.834	141.12
390.296	128.22
390.758	137.82
391.22	144.42
391.682	150.12
392.144	163.92
392.606	151.22
393.068	147.52
393.529	162.22
393.991	153.72
394.453	140.22
394.915	146.12
395.377	146.62
395.838	149.02
396.3	143.72
396.762	143.12
397.224	143.82
397.685	144.52
398.147	147.62
398.608	142.52
399.07	139.82
399.531	149.22
399.993	148.32
400.454	166.62
400.916	159.72
401.377	162.32
401.839	159.12
402.3	161.12
402.762	178.12
403.223	196.52
403.684	186.32
404.145	178.92
404.607	174.22
405.068	169.72
405.529	177.32
405.99	189.12
406.451	182.62
406.913	185.62
407.374	180.42
407.835	173.82
408.296	181.62
408.757	187.22
409.218	196.72
409.679	190.22
410.14	186.82
410.601	188.42
411.062	189.42
411.522	198.32
411.983	192.42
412.444	188.92
412.905	199.72
413.366	195.22
413.826	217.62
414.287	246.82
414.748	290.62
415.208	276.42
415.669	231.92
416.13	228.52
416.59	223.82
417.051	246.32
417.511	251.72
417.972	264.92
418.432	277.12
418.893	329.32
419.353	285.52
419.814	224.72
420.274	203.52
420.734	197.12
421.195	214.82
421.655	205.62
422.115	214.12
422.576	208.62
423.036	217.52
423.496	222.62
423.956	234.32
424.416	249.22
424.876	283.62
425.336	280.62
425.797	284.62
426.257	278.72
426.717	256.62
427.177	249.62
427.637	249.52
428.097	250.42
428.556	254.82
429.016	291.62
429.476	284.22
429.936	293.62
430.396	296.62
430.856	296.22
431.315	326.12
431.775	351.22
432.235	385.42
432.694	366.42
433.154	362.52
433.614	388.52
434.073	346.62
434.533	299.12
434.993	284.92
435.452	287.72
435.912	292.22
436.371	292.22
436.83	282.02
437.29	267.02
437.749	257.32
438.209	258.32
438.668	279.12
439.127	282.92
439.587	273.42
440.046	244.62
440.505	268.52
440.964	276.72
441.424	310.12
441.883	301.12
442.342	266.42
442.801	245.92
443.26	237.82
443.719	237.42
444.178	238.22
444.637	232.22
445.096	241.02
445.555	239.12
446.014	245.12
446.473	243.12
446.932	260.92
447.391	239.32
447.849	245.72
448.308	231.92
448.767	240.02
449.226	256.22
449.685	254.22
450.143	267.92
450.602	253.32
451.061	235.02
451.519	252.22
451.978	241.72
452.436	241.62
452.895	248.82
453.353	254.72
453.812	249.12
454.27	254.72
454.729	245.42
455.187	254.72
455.646	247.22
456.104	258.62
456.562	268.42
457.021	274.32
457.479	266.02
457.937	281.62
458.395	281.12
458.854	257.82
459.312	273.62
459.77	272.92
460.228	265.32
460.686	259.82
461.144	264.62
461.602	260.22
462.06	259.62
462.518	266.52
462.976	266.02
463.434	270.62
463.892	270.82
464.35	277.62
464.808	288.32
465.266	281.22
465.724	284.12
466.181	296.42
466.639	286.32
467.097	295.32
467.555	305.52
468.012	306.92
468.47	315.22
468.928	340.62
469.385	351.02
469.843	347.42
470.3	358.82
470.758	363.72
471.215	376.42
471.673	401.22
472.13	405.02
472.588	415.62
473.045	382.22
473.503	391.22
473.96	397.32
474.417	416.42
474.875	433.52
475.332	464.32
475.789	456.12
476.246	463.52
476.704	479.92
477.161	500.62
477.618	518.52
478.075	547.12
478.532	596.32
478.989	652.82
479.446	742.82
479.903	726.72
480.36	767.02
480.817	809.82
481.274	900.22
481.731	982.12
482.188	1077.82
482.645	1188.62
483.102	1272.92
483.558	1390.22
484.015	1434.72
484.472	1421.72
484.929	1383.12
485.385	1331.62
485.842	1303.52
486.299	1256.52
486.755	1201.42
487.212	1037.32
487.668	893.22
488.125	834.02
488.582	764.62
489.038	742.32
489.494	693.92
489.951	669.22
490.407	648.42
490.864	632.12
491.32	633.82
491.776	625.22
492.233	622.72
492.689	601.52
493.145	601.02
493.602	595.02
494.058	604.22
494.514	589.32
494.97	604.42
495.426	615.02
495.882	598.92
496.338	588.02
496.794	603.82
497.251	587.42
497.707	593.22
498.163	602.22
498.618	599.02
499.074	613.62
499.53	632.02
499.986	636.22
500.442	621.82
500.898	593.82
501.354	596.02
501.809	603.92
502.265	598.82
502.721	604.32
503.177	616.32
503.632	622.52
504.088	626.12
504.543	628.42
504.999	646.12
505.455	631.12
505.91	613.22
506.366	618.32
506.821	607.52
507.277	613.32
507.732	608.62
508.187	620.32
508.643	629.32
509.098	621.52
509.553	636.62
510.009	637.12
510.464	642.52
510.919	657.52
511.375	661.42
511.83	664.02
512.285	670.42
512.74	703.22
513.195	720.72
513.65	711.42
514.105	718.72
514.56	720.92
515.015	732.12
515.47	743.02
515.925	731.82
516.38	731.32
516.835	744.62
517.29	736.82
517.745	731.52
518.2	736.72
518.655	705.82
519.109	698.02
519.564	690.62
520.019	683.42
520.474	680.32
520.928	677.82
521.383	669.82
521.838	664.42
522.292	665.52
522.747	677.32
523.201	652.92
523.656	654.82
524.11	649.92
524.565	654.82
525.019	647.02
525.474	649.52
525.928	638.52
526.382	637.02
526.837	632.92
527.291	653.02
527.745	634.02
528.2	632.52
528.654	636.92
529.108	630.02
529.562	625.42
530.016	634.82
530.47	640.12
530.925	630.32
531.379	635.32
531.833	641.42
532.287	630.52
532.741	634.22
533.195	628.92
533.649	641.22
534.103	648.32
534.556	640.52
535.01	631.72
535.464	633.52
535.918	636.02
536.372	643.42
536.826	639.82
537.279	628.82
537.733	640.92
538.187	640.22
538.64	637.12
539.094	639.02
539.548	650.72
540.001	643.72
540.455	644.92
540.908	664.82
541.362	665.92
541.815	665.02
542.269	674.42
542.722	671.82
543.175	680.52
543.629	693.92
544.082	704.82
544.536	701.92
544.989	696.92
545.442	707.22
545.895	701.72
546.349	696.82
546.802	707.32
547.255	714.42
547.708	709.12
548.161	719.82
548.614	722.92
549.067	726.32
549.52	723.42
549.973	710.72
550.426	705.12
550.879	698.32
551.332	712.12
551.785	707.72
552.238	703.62
552.691	711.32
553.144	709.02
553.596	729.92
554.049	755.32
554.502	770.52
554.955	782.42
555.407	786.62
555.86	772.32
556.313	764.42
556.765	756.32
557.218	752.92
557.67	748.12
558.123	744.72
558.576	739.62
559.028	745.42
559.48	761.32
559.933	748.12
560.385	720.22
560.838	696.72
561.29	677.42
561.742	679.52
562.195	668.52
562.647	666.42
563.099	663.22
563.551	659.32
564.004	672.22
564.456	653.12
564.908	649.62
565.36	630.72
565.812	613.92
566.264	608.82
566.716	607.72
567.168	592.02
567.62	599.82
568.072	596.82
568.524	584.32
568.976	574.82
569.428	570.42
569.88	571.82
570.332	566.62
570.784	571.42
571.235	575.82
571.687	580.72
572.139	592.62
572.59	591.22
573.042	596.82
573.494	591.72
573.945	579.72
574.397	563.02
574.849	574.12
575.3	564.62
575.752	566.12
576.203	566.42
576.655	568.42
577.106	549.22
577.557	551.82
578.009	546.52
578.46	544.02
578.912	542.22
579.363	538.12
579.814	543.12
580.265	540.02
580.717	550.72
581.168	542.72
581.619	554.12
582.07	548.32
582.521	548.92
582.972	542.42
583.423	543.12
583.875	543.52
584.326	543.92
584.777	565.72
585.227	588.42
585.678	619.02
586.129	637.42
586.58	650.62
587.031	669.52
587.482	714.42
587.933	760.52
588.384	729.52
588.834	652.42
589.285	632.62
589.736	628.72
590.186	622.92
590.637	619.02
591.088	601.12
591.538	591.72
591.989	589.42
592.439	588.72
592.89	566.42
593.34	564.32
593.791	556.82
594.241	549.42
594.692	552.62
595.142	552.22
595.593	542.02
596.043	558.32
596.493	558.42
596.943	557.42
597.394	567.52
597.844	570.22
598.294	574.82
598.744	606.82
599.195	615.02
599.645	644.42
600.095	675.72
600.545	719.72
600.995	761.62
601.445	799.72
601.895	841.92
602.345	882.42
602.795	871.72
603.245	843.72
603.695	798.62
604.145	749.92
604.594	720.02
605.044	672.42
605.494	635.12
605.944	588.82
606.393	586.52
606.843	568.82
607.293	562.22
607.743	558.82
608.192	569.92
608.642	577.82
609.091	583.82
609.541	584.32
609.99	582.42
610.44	570.82
610.889	544.62
611.339	536.52
611.788	526.12
612.238	538.12
612.687	543.62
613.136	546.02
613.586	545.62
614.035	534.62
614.484	540.12
614.933	549.12
615.383	540.32
615.832	537.62
616.281	542.12
616.73	521.22
617.179	510.32
617.628	493.12
618.077	484.32
618.526	475.22
618.975	477.12
619.424	480.92
619.873	464.12
620.322	465.02
620.771	464.82
621.22	458.42
621.669	454.92
622.118	446.92
622.567	440.22
623.015	432.62
623.464	433.72
623.913	422.62
624.361	417.42
624.81	410.12
625.259	411.52
625.707	423.52
626.156	421.72
626.604	428.82
627.053	425.52
627.501	430.12
627.95	428.52
628.398	428.82
628.847	434.22
629.295	429.72
629.744	432.92
630.192	428.32
630.64	427.92
631.089	411.22
631.537	406.42
631.985	399.92
632.433	398.92
632.881	388.92
633.33	402.72
633.778	392.02
634.226	395.82
634.674	396.72
635.122	402.42
635.57	411.32
636.018	408.02
636.466	421.92
636.914	411.52
637.362	424.52
637.81	435.92
638.258	421.42
638.705	425.92
639.153	448.22
639.601	456.92
640.049	472.22
640.497	505.92
640.944	523.62
641.392	479.32
641.84	451.72
642.287	428.82
642.735	415.02
643.182	416.72
643.63	415.92
644.078	408.92
644.525	427.82
644.973	434.52
645.42	431.72
645.867	449.82
646.315	461.42
646.762	485.72
647.21	499.42
647.657	518.92
648.104	534.22
648.551	549.22
648.999	588.42
649.446	641.62
649.893	695.62
650.34	784.92
650.787	942.72
651.234	1147.52
651.682	1450.72
652.129	1960.92
652.576	2753.62
653.023	4028.12
653.47	5607.92
653.917	7060.92
654.363	8351.82
654.81	9407.12
655.257	8975.42
655.704	5931.82
656.151	3508.12
656.598	2309.62
657.044	1646.22
657.491	1269.22
657.938	1022.42
658.385	861.52
658.831	746.72
659.278	674.42
659.724	600.52
660.171	556.32
660.618	507.42
661.064	476.22
661.511	465.02
661.957	445.02
662.404	436.52
662.85	446.72
663.296	429.12
663.743	397.82
664.189	389.62
664.635	384.92
665.082	379.22
665.528	381.62
665.974	370.92
666.42	362.82
666.867	361.72
667.313	344.82
667.759	334.32
668.205	328.42
668.651	325.62
669.097	324.62
669.543	327.72
669.989	321.32
670.435	332.32
670.881	318.52
671.327	326.52
671.773	347.72
672.219	352.92
672.665	389.02
673.11	423.72
673.556	458.62
674.002	488.32
674.448	478.92
674.893	408.02
675.339	344.02
675.785	318.22
676.23	304.72
676.676	289.22
677.122	272.82
677.567	278.02
678.013	263.72
678.458	264.82
678.904	261.32
679.349	248.52
679.794	257.12
680.24	254.22
680.685	258.02
681.131	248.52
681.576	249.52
682.021	262.92
682.466	256.22
682.912	252.72
683.357	248.92
683.802	272.82
684.247	286.62
684.692	323.12
685.137	355.32
685.583	389.92
686.028	406.92
686.473	386.62
686.918	319.82
687.363	301.32
687.807	284.72
688.252	267.52
688.697	257.52
689.142	245.92
689.587	235.82
690.032	231.62
690.477	241.52
690.921	248.52
691.366	275.12
691.811	292.72
692.255	305.72
692.7	326.02
693.145	352.72
693.589	478.32
694.034	778.32
694.478	1091.52
694.923	1292.82
695.367	1698.62
695.812	897.02
696.256	369.32
696.701	268.22
697.145	249.62
697.59	232.92
698.034	226.12
698.478	241.42
698.922	229.02
699.367	230.02
699.811	238.72
700.255	242.02
700.699	265.32
701.143	299.42
701.588	342.82
702.032	367.82
702.476	367.42
702.92	353.52
703.364	351.42
703.808	437.52
704.252	714.52
704.696	1017.32
705.14	1242.02
705.584	1603.02
706.027	788.42
706.471	386.72
706.915	285.32
707.359	255.62
707.803	230.42
708.246	222.72
708.69	220.92
709.134	224.42
709.577	225.62
710.021	223.32
710.465	220.82
710.908	211.12
711.352	209.02
711.795	229.02
712.239	239.72
712.682	265.12
713.126	289.32
713.569	327.42
714.012	258.12
714.456	217.82
714.899	202.42
715.342	191.62
715.786	178.62
716.229	184.32
716.672	189.32
717.115	173.02
717.558	176.32
718.002	180.52
718.445	188.92
718.888	205.72
719.331	208.32
719.774	220.42
720.217	215.92
720.66	203.22
721.103	190.12
721.546	183.12
721.989	179.22
722.432	162.62
722.874	158.32
723.317	164.42
723.76	165.42
724.203	177.42
724.645	218.82
725.088	294.02
725.531	398.22
725.974	463.02
726.416	399.12
726.859	218.22
727.301	172.42
727.744	173.42
728.187	165.62
728.629	169.42
729.071	172.02
729.514	178.82
729.956	181.92
730.399	199.72
730.841	203.42
731.283	191.42
731.726	186.72
732.168	179.52
732.61	185.82
733.053	197.22
733.495	212.92
733.937	241.62
734.379	280.92
734.821	297.32
735.263	370.32
735.705	571.22
736.148	1077.42
736.59	1832.62
737.032	2301.32
737.474	1890.72
737.916	602.52
738.357	301.52
738.799	225.32
739.241	213.82
739.683	192.32
740.125	202.62
740.567	213.42
741.008	221.42
741.45	230.12
741.892	226.52
742.334	259.22
742.775	265.72
743.217	260.52
743.658	198.92
744.1	185.12
744.542	188.72
744.983	235.62
745.425	266.22
745.866	255.82
746.307	197.92
746.749	189.42
747.19	227.62
747.632	310.62
748.073	587.72
748.514	1262.52
748.956	2064.52
749.397	2582.02
749.838	2155.22
750.279	2237.92
750.72	1125.72
751.162	406.52
751.603	233.62
752.044	182.02
752.485	151.82
752.926	151.02
753.367	140.92
753.808	137.52
754.249	134.72
754.69	131.72
755.131	129.22
755.572	125.22
756.013	121.82
756.453	130.62
756.894	127.62
757.335	134.92
757.776	135.82
758.216	139.02
758.657	134.72
759.098	141.82
759.538	162.12
759.979	180.62
760.42	263.22
760.86	482.62
761.301	1240.32
761.741	3126.42
762.182	4974.22
762.622	3531.12
763.063	991.32
763.503	398.12
763.943	244.12
764.384	201.62
764.824	198.72
765.264	194.42
765.705	164.82
766.145	126.82
766.585	122.72
767.025	116.02
767.465	113.72
767.906	133.82
768.346	149.92
768.786	162.72
769.226	151.12
769.666	213.22
770.106	412.22
770.546	1049.52
770.986	1942.22
771.426	1805.02
771.866	587.02
772.306	234.22
772.745	141.22
773.185	121.22
773.625	113.72
774.065	100.52
774.505	115.92
774.944	143.92
775.384	269.62
775.824	488.22
776.263	491.42
776.703	222.72
777.142	114.12
777.582	94.82
778.021	85.42
778.461	81.62
778.9	95.52
779.34	89.22
779.779	80.82
780.219	74.12
780.658	70.12
781.097	73.92
781.537	80.72
781.976	73.92
782.415	65.92
782.855	69.92
783.294	69.02
783.733	74.52
784.172	74.82
784.611	73.62
785.05	78.72
785.489	72.52
785.928	81.62
786.367	84.02
786.806	86.42
787.245	92.42
787.684	87.92
788.123	103.32
788.562	97.12
789.001	82.92
789.44	86.32
789.879	82.32
790.317	84.42
790.756	87.92
791.195	90.12
791.634	104.12
792.072	136.92
792.511	248.62
792.95	676.02
793.388	1546.82
793.827	1477.42
794.265	500.22
794.704	204.32
795.142	134.42
795.581	109.12
796.019	99.12
796.458	85.22
796.896	83.02
797.334	87.22
797.773	109.42
798.211	158.22
798.649	289.62
799.087	706.62
799.526	1158.82
799.964	1460.12
800.402	1553.52
800.84	557.32
801.278	218.22
801.716	138.32
802.154	112.42
802.592	107.52
803.03	104.12
803.468	93.42
803.906	95.82
804.344	102.62
804.782	94.12
805.22	96.72
805.658	95.22
806.096	112.72
806.533	109.12
806.971	125.22
807.409	154.22
807.847	220.32
808.284	457.42
808.722	1309.42
809.16	2456.42
809.597	2275.52
810.035	4078.52
810.472	4631.12
810.91	1643.72
811.347	591.12
811.785	294.62
812.222	188.22
812.66	144.92
813.097	122.02
813.535	101.12
813.972	91.32
814.409	80.82
814.846	76.32
815.284	79.62
815.721	71.12
816.158	71.42
816.595	78.62
817.032	119.92
817.47	144.72
817.907	109.22
818.344	73.02
818.781	74.62
819.218	69.42
819.655	91.82
820.092	152.02
820.529	177.02
820.966	133.72
821.403	108.02
821.839	72.62
822.276	74.02
822.713	86.72
823.15	100.02
823.587	87.62
824.023	107.92
824.46	205.32
824.897	626.52
825.333	1023.42
825.77	443.62
826.206	163.72
826.643	90.62
827.08	71.12
827.516	56.82
827.953	51.82
828.389	60.42
828.825	45.72
829.262	47.52
829.698	45.22
830.135	47.02
830.571	34.52
831.007	41.72
831.443	37.92
831.88	34.32
832.316	38.52
832.752	44.02
833.188	41.42
833.624	44.52
834.06	43.22
834.497	46.62
834.933	52.12
835.369	54.02
835.805	46.52
836.241	52.22
836.677	47.72
837.112	59.52
837.548	71.42
837.984	98.32
838.42	137.82
838.856	338.12
839.292	1082.72
839.727	1771.72
840.163	821.72
840.599	654.92
841.034	1502.52
841.47	1691.02
841.906	601.92
842.341	233.42
842.777	145.22
843.212	153.22
843.648	150.52
844.083	80.12
844.519	59.82
844.954	49.62
845.39	38.32
845.825	35.82
846.261	38.32
846.696	38.02
847.131	42.42
847.566	41.32
848.002	39.72
848.437	39.62
848.872	39.22
849.307	40.22
849.742	58.42
850.177	129.62
850.613	393.02
851.048	659.72
851.483	289.62
851.918	105.42
852.353	55.62
852.788	39.22
853.223	29.32
853.657	35.22
854.092	34.72
854.527	28.82
854.962	30.72
855.397	28.02
855.832	40.92
856.266	31.92
856.701	28.92
857.136	33.32
857.57	30.32
858.005	32.92
858.44	43.52
858.874	34.32
859.309	35.42
859.743	21.52
860.178	33.72
860.612	31.12
861.047	39.52
861.481	51.22
861.915	52.52
862.35	35.62
862.784	20.42
863.218	29.72
863.653	20.02
864.087	32.22
864.521	36.82
864.955	43.82
865.39	103.62
865.824	129.72
866.258	82.72
866.692	136.82
867.126	157.42
867.56	93.32
867.994	40.72
868.428	30.12
868.862	34.62
869.296	46.92
869.73	45.92
870.164	42.12
870.598	32.92
871.031	27.62
871.465	25.52
871.899	21.92
872.333	18.62
872.766	19.32
873.2	17.02
873.634	20.22
874.067	17.92
874.501	16.52
874.935	27.02
875.368	17.12
875.802	16.72
876.235	19.02
876.669	18.12
877.102	12.42
877.535	14.12
877.969	18.52
878.402	16.82
878.836	11.92
879.269	19.82
879.702	14.02
880.135	12.82
880.569	13.22
881.002	20.32
881.435	13.82
881.868	10.72
882.301	16.82
882.734	13.02
883.167	15.62
883.601	9.02
884.034	18.92
884.467	1.82
884.899	9.92
885.332	7.32
885.765	2.82
886.198	8.02
886.631	7.32
887.064	15.62
887.497	14.42
887.929	19.22
888.362	8.12
888.795	8.82
889.228	10.92
889.66	11.72
890.093	13.72
890.526	6.32
890.958	12.22
891.391	11.52
891.823	15.12
892.256	12.02
892.688	8.52
893.121	7.22
893.553	11.72
893.985	14.12
894.418	9.12
894.85	8.42
895.282	9.02
895.715	10.02
896.147	10.62
896.579	12.92
897.011	10.62
897.444	12.92
897.876	7.62
898.308	8.02
898.74	9.42
899.172	7.92
899.604	23.12
900.036	14.52
900.468	8.82
900.9	7.42
901.332	4.72
901.764	6.02
902.196	14.32
902.628	12.92
903.06	14.92
903.491	23.52
903.923	15.12
904.355	14.12
904.787	19.82
905.218	12.42
905.65	16.32
906.082	4.42
906.513	7.62
906.945	3.42
907.376	6.52
907.808	10.92
908.239	12.12
908.671	8.12
909.102	10.82
909.534	21.22
909.965	32.22
910.397	62.82
910.828	232.72
911.259	365.32
911.691	171.42
912.122	75.42
912.553	30.92
912.984	28.12
913.415	17.32
913.847	20.92
914.278	9.22
914.709	14.42
915.14	15.42
915.571	11.12
916.002	8.02
916.433	13.12
916.864	10.82
917.295	13.52
917.726	13.72
918.157	10.32
918.587	19.82
919.018	14.82
919.449	14.22
919.88	19.42
920.311	20.62
920.741	31.32
921.172	116.12
921.603	115.42
922.033	46.02
922.464	32.22
922.895	17.12
923.325	12.42
923.756	6.82
924.186	0.12
924.617	8.32
925.047	9.52
925.478	17.92
925.908	16.12
926.338	4.92
926.769	4.82
927.199	10.72
927.629	4.02
928.06	7.32
928.49	7.62
928.92	7.32
929.35	4.92
929.78	3.42
930.21	5.02
930.641	5.52
931.071	8.82
931.501	6.22
931.931	5.82
932.361	0.72
932.791	1.82
933.221	8.82
933.651	2.62
934.08	13.22
934.51	19.12
934.94	4.52
935.37	5.22
935.8	5.02
936.229	7.62
936.659	0.92
937.089	3.72
937.519	9.42
937.948	24.02
938.378	11.82
938.807	2.52
939.237	5.32
939.666	5.12
940.096	-6.88
940.525	-6.68
940.955	-2.58
941.384	5.62
941.814	-0.78
942.243	1.62
942.672	2.82
943.102	-0.18
943.531	-4.38
943.96	5.02
944.39	3.52
944.819	2.02
945.248	0.62
945.677	-0.38
946.106	5.72
946.535	1.12
946.964	4.82
947.393	-2.08
947.822	-0.28
948.251	-5.68
948.68	3.02
949.109	3.52
949.538	4.42
949.967	-2.38
950.396	1.62
950.825	1.22
951.254	-4.68
951.682	-0.38
952.111	3.12
952.54	5.92
952.969	-5.88
953.397	-5.58
953.826	-0.98
954.254	-1.68
954.683	3.02
955.112	-10.08
955.54	-0.28
955.969	3.22
956.397	4.12
956.826	-6.88
957.254	3.52
957.682	1.92
958.111	2.32
958.539	0.42
958.967	2.62
959.396	-2.58
959.824	3.32
960.252	-0.38
960.68	-8.38
961.109	-2.48
961.537	-5.58
961.965	0.02
962.393	4.02
962.821	-5.08
963.249	0.72
963.677	0.52
964.105	1.52
964.533	36.82
964.961	33.42
965.389	10.62
965.817	6.82
966.245	-1.48
966.672	-6.48
967.1	-6.38
967.528	-1.18
967.956	-0.88
968.383	-4.78
968.811	-0.58
969.239	-5.68
969.666	0.32
970.094	4.22
970.522	0.62
970.949	-1.58
971.377	-1.48
971.804	-1.38
972.232	-5.18
972.659	-2.98
973.087	-3.08
973.514	-7.88
973.941	-7.28
974.369	5.72
974.796	-4.18
975.223	-5.68
975.651	-1.88
976.078	-2.58
976.505	-3.38
976.932	1.62
977.359	9.42
977.786	8.82
978.214	3.22
978.641	-1.58
979.068	-0.28
979.495	-3.48
979.922	-1.88
980.349	2.52
980.776	-0.58
981.202	-3.48
981.629	0.02
982.056	2.32
982.483	-0.38
982.91	-3.28
983.337	-8.68
983.763	-1.68
984.19	-5.48
984.617	-3.58
985.043	-4.38
985.47	1.92
985.897	-1.48
986.323	-9.08
986.75	-2.28
987.176	-4.88
987.603	-3.98
988.029	-3.08
988.456	-7.58
988.882	4.22
989.308	-6.08
989.735	-3.38
990.161	-5.28
990.587	-8.68
991.014	-0.98
991.44	9.82
991.866	-2.08
992.292	-7.08
992.719	-5.48
993.145	4.12
993.571	-3.28
993.997	-3.58
994.423	-10.78
994.849	-3.38
995.275	-0.18
995.701	-0.88
996.127	-7.88
996.553	6.32
996.979	0.02
997.405	1.02
997.83	-8.98
998.256	-5.58
998.682	-8.88
999.108	-19.08
999.534	-3.68
999.959	-0.58
1000.385	-1.28
1000.811	-0.58
1001.236	-5.98
1001.662	-8.68
1002.087	-4.28
1002.513	-0.58
1002.938	5.72
1003.364	-5.18
1003.789	-3.88
1004.215	7.72
1004.64	-4.98
1005.066	4.62
1005.491	0.42
1005.916	-5.18
1006.342	-6.18
1006.767	-8.08
1007.192	5.02
1007.617	-4.48
1008.042	-5.38
1008.468	-12.18
1008.893	-3.58
1009.318	-4.48
1009.743	-1.48
1010.168	1.82
1010.593	-4.28
1011.018	-10.98
1011.443	-2.48
1011.868	-1.48
1012.293	-5.58
1012.718	-6.28
1013.143	1.72
1013.567	1.02
1013.992	-0.18
1014.417	-13.18
1014.842	1.72
1015.267	-2.78
1015.691	1.12
1016.116	1.42
1016.541	1.12
1016.965	3.52
1017.39	2.62
1017.814	-1.08
1018.239	6.72
1018.663	-7.38
1019.088	-9.98
1019.512	-2.78
1019.937	-5.98
1020.361	-2.38
1020.785	-13.38
1021.21	-1.98
1021.634	-4.18
1022.058	-1.38
1022.483	-3.68
1022.907	-5.28
1023.331	-7.68
1023.755	-4.38
1024.179	-1.38
1024.604	-5.18
1025.028	-4.08
1025.452	-0.48
1025.876	0.72
1026.3	-3.58
1026.724	-14.18
1027.148	-6.28
1027.572	-6.78
1027.996	-8.08
1028.42	0.92
1028.843	-5.88
1029.267	-5.78
1029.691	-0.78
1030.115	0.32
1030.539	-8.58
1030.962	-10.08
1031.386	-9.58
1031.81	2.72
1032.233	0.52
1032.657	-6.88
1033.08	-6.98
1033.504	-6.28
1033.927	-1.28
1034.351	1.32
1034.774	-1.58
1035.198	-8.98
1035.621	-4.38
1036.045	-2.98
1036.468	-0.68
1036.891	-9.58
1037.315	-7.88
1037.738	-5.08
1038.161	-2.38
1038.584	-4.48
1039.008	-8.28
1039.431	-1.48
1039.854	-3.28
1040.277	-7.78
1040.7	-12.38
1041.123	0.12
1041.546	-6.28
1041.969	-1.28
1042.392	-9.08
1042.815	-5.08
1043.238	-2.78
1043.661	-1.68
1044.084	-3.48
1044.507	0.92
1044.93	-1.18
1045.352	-6.18
1045.775	-5.88
1046.198	0.22
1046.621	-5.68
1047.043	-1.38
1047.466	6.72
1047.889	-0.18
1048.311	-10.18
1048.734	-2.28
1049.156	-6.68
1049.579	-4.48
1050.001	-8.78
1050.424	-7.68
1050.846	-6.78
1051.269	-7.78
1051.691	-5.88
1052.113	-6.98
1052.536	0.22
1052.958	-7.28
1053.38	-4.38
1053.802	-10.68
1054.225	-0.28
1054.647	-3.68
1055.069	-8.08
1055.491	0.32
1055.913	-4.98
1056.335	2.22
1056.757	-4.28
1057.179	-8.28
1057.601	-10.48
1058.023	-9.08
1058.445	-7.98
1058.867	-1.18
1059.289	-4.88
1059.711	-1.48
1060.133	-6.98
1060.555	-9.48
1060.976	-8.18
1061.398	-7.58
1061.82	-8.98
1062.241	-0.18
1062.663	-11.28
1063.085	-3.58
1063.506	2.02
1063.928	-5.08
1064.35	1.52
1064.771	-10.58
1065.193	-11.38
1065.614	-6.58
1066.035	-2.18
1066.457	-5.28
1066.878	-3.68
1067.3	2.02
1067.721	-1.68
1068.142	-9.18
1068.564	-10.88
1068.985	-7.58
1069.406	-6.38
1069.827	-3.48
1070.248	0.22
1070.67	-1.58
1071.091	-7.08
1071.512	-6.28
1071.933	-3.98
1072.354	-6.48
1072.775	-5.68
1073.196	-3.18
1073.617	-3.38
1074.038	-7.78
1074.459	-3.98
1074.88	-6.58
1075.3	1.32
1075.721	-6.48
1076.142	-0.28
1076.563	-5.08
1076.983	-12.78
1077.404	-4.38
1077.825	-10.98
1078.246	-3.38
1078.666	-9.28
1079.087	-2.78
1079.507	-6.58
1079.928	-2.78
1080.348	-5.38
1080.769	-5.18
1081.189	0.92
1081.61	-4.58
1082.03	-9.18
1082.451	-9.48
1082.871	-3.48
1083.291	-9.78
1083.711	-6.08
1084.132	-1.38
1084.552	-8.58
1084.972	3.92
1085.392	-2.68
1085.813	-11.18
1086.233	-9.78
1086.653	-6.88
1087.073	-1.18
1087.493	-5.08
1087.913	-7.78
1088.333	-5.18
1088.753	1.32
1089.173	5.22
1089.593	-6.08
1090.013	-0.68
1090.433	0.92
1090.852	-6.18
1091.272	-5.58
1091.692	-6.88
1092.112	-2.68
1092.531	-11.28
1092.951	-12.88
1093.371	-5.88
1093.79	5.12
1094.21	-11.78
1094.63	-4.48
1095.049	-1.38
1095.469	-5.68
1095.888	-4.58
1096.308	0.62
1096.727	3.62
1097.146	-3.58
1097.566	-2.48
1097.985	-7.98
1098.405	-4.88
1098.824	-1.78
1099.243	-6.88
1099.662	-13.18
1100.082	-6.78
1100.501	0.42
1100.92	-8.68
1101.339	-7.78
1101.758	-1.78
