Data from 20171114-ORNL-Ar_H_NY_Subt18_08-03-34-765.txt Node
Date: Tue Nov 14 08:03:34 EST 2017
User: Ender
Spectrometer: HR+D1039
Trigger mode: 0
Integration Time (sec): 2.730000E-2
Scans to average: 10
Electric dark correction enabled: true
Nonlinearity correction enabled: false
Boxcar width: 0
XAxis mode: Wavelengths
Number of Pixels in Spectrum: 2048
>>>>>Begin Spectral Data<<<<<
187.836	1.82
188.309	1.82
188.782	1.82
189.255	-1.28
189.728	-5.17
190.201	2.92
190.674	2.22
191.147	1.02
191.619	-1.68
192.092	-0.58
192.565	3.02
193.038	-1.98
193.511	2.42
193.984	0.32
194.456	-1.48
194.929	2.23
195.402	-3.78
195.874	-0.08
196.347	-3.28
196.82	-5.38
197.292	3.12
197.765	-4.17
198.237	-1.27
198.71	0.72
199.182	-1.58
199.655	0.32
200.127	6.42
200.6	-6.27
201.072	-10.48
201.544	-3.48
202.017	-0.88
202.489	4.22
202.961	-0.17
203.433	-3.98
203.906	-6.17
204.378	-6.07
204.85	-4.58
205.322	-6.68
205.794	-3.38
206.266	-7.77
206.739	-12.58
207.211	1.83
207.683	-6.17
208.155	-6.98
208.627	-10.68
209.099	-8.38
209.57	-7.27
210.042	-2.58
210.514	-8.77
210.986	-3.17
211.458	-4.38
211.93	-1.58
212.402	6.52
212.873	-8.98
213.345	-13.08
213.817	-10.38
214.288	-6.38
214.76	-10.98
215.232	-1.98
215.703	-5.08
216.175	-2.68
216.646	-6.08
217.118	-12.78
217.589	-2.48
218.061	0.22
218.532	-4.57
219.004	1.82
219.475	-8.27
219.946	-5.78
220.418	-0.77
220.889	0.82
221.36	-0.77
221.832	-7.18
222.303	-8.77
222.774	-1.27
223.245	-12.67
223.717	-7.98
224.188	-3.88
224.659	-10.18
225.13	-2.27
225.601	-1.78
226.072	-10.08
226.543	-8.78
227.014	-3.88
227.485	-4.78
227.956	-10.98
228.427	-2.48
228.898	-2.48
229.369	6.62
229.839	-12.27
230.31	-11.28
230.781	5.12
231.252	-5.18
231.722	-8.28
232.193	-8.88
232.664	-4.08
233.135	-1.78
233.605	-5.17
234.076	-11.98
234.546	-3.08
235.017	-4.48
235.487	-5.48
235.958	-2.98
236.428	-8.27
236.899	-3.88
237.369	-3.88
237.84	-6.68
238.31	-1.88
238.78	-5.98
239.251	-4.98
239.721	-5.38
240.191	-1.98
240.662	-8.17
241.132	-0.98
241.602	-8.18
242.072	-5.68
242.542	0.42
243.013	-2.38
243.483	-0.27
243.953	3.12
244.423	-6.67
244.893	-4.98
245.363	0.82
245.833	-0.27
246.303	-6.38
246.773	-0.38
247.243	-3.78
247.712	-5.38
248.182	6.42
248.652	-0.98
249.122	-8.68
249.592	-2.27
250.061	-1.48
250.531	7.83
251.001	-6.67
251.471	2.82
251.94	3.82
252.41	-5.48
252.879	-4.98
253.349	3.02
253.818	5.73
254.288	-1.77
254.757	-4.88
255.227	-4.17
255.696	-3.58
256.166	-7.57
256.635	-3.08
257.105	-1.88
257.574	-6.78
258.043	-5.67
258.513	-6.98
258.982	-7.88
259.451	-10.18
259.92	-5.58
260.389	-5.27
260.859	2.73
261.328	-7.07
261.797	-2.98
262.266	-3.38
262.735	4.52
263.204	0.12
263.673	-5.27
264.142	1.02
264.611	-10.28
265.08	-4.98
265.549	-7.57
266.018	1.12
266.487	-9.38
266.955	-3.77
267.424	-6.77
267.893	-2.98
268.362	-7.17
268.83	-8.38
269.299	3.43
269.768	-1.18
270.236	0.73
270.705	-6.08
271.174	-6.27
271.642	-7.78
272.111	-9.77
272.579	-7.28
273.048	-4.48
273.516	-9.58
273.985	-1.58
274.453	-4.48
274.922	4.92
275.39	0.92
275.858	-7.88
276.327	0.12
276.795	-2.38
277.263	-6.18
277.731	4.12
278.2	-5.88
278.668	-1.98
279.136	0.23
279.604	-5.88
280.072	-0.38
280.54	-3.77
281.008	-1.58
281.477	-1.28
281.945	-1.08
282.413	0.42
282.881	8.33
283.348	-7.67
283.816	-0.58
284.284	3.52
284.752	6.52
285.22	1.92
285.688	0.02
286.156	-1.77
286.623	-1.77
287.091	-3.88
287.559	3.23
288.026	-1.88
288.494	2.73
288.962	-11.18
289.429	-4.68
289.897	-3.57
290.364	1.22
290.832	2.52
291.3	-0.48
291.767	3.33
292.234	1.62
292.702	-1.17
293.169	-0.57
293.637	8.52
294.104	1.73
294.571	-8.48
295.039	-4.48
295.506	-4.27
295.973	2.52
296.44	0.12
296.908	-0.17
297.375	-2.58
297.842	-2.08
298.309	-4.08
298.776	-0.38
299.243	2.82
299.71	-2.18
300.177	1.73
300.644	-2.67
301.111	-2.98
301.578	1.92
302.045	-4.58
302.512	4.52
302.979	4.83
303.446	0.82
303.913	-1.48
304.379	-0.58
304.846	2.52
305.313	5.12
305.78	1.12
306.246	5.42
306.713	0.22
307.18	6.83
307.646	8.22
308.113	5.32
308.579	-2.28
309.046	-0.88
309.512	2.62
309.979	-3.08
310.445	-1.18
310.912	1.32
311.378	3.62
311.845	4.12
312.311	1.52
312.777	7.32
313.244	8.23
313.71	13.42
314.176	5.73
314.642	4.82
315.109	-2.77
315.575	5.42
316.041	12.33
316.507	4.22
316.973	5.82
317.439	7.52
317.905	4.33
318.371	8.52
318.837	6.33
319.303	1.22
319.769	7.73
320.235	4.02
320.701	7.12
321.167	11.92
321.633	1.93
322.099	-1.48
322.564	7.32
323.03	11.52
323.496	8.83
323.962	11.12
324.427	1.52
324.893	9.92
325.359	3.92
325.824	3.32
326.29	7.82
326.755	10.12
327.221	7.12
327.686	8.92
328.152	19.02
328.617	7.33
329.083	17.12
329.548	17.12
330.014	9.12
330.479	4.22
330.944	13.42
331.41	7.82
331.875	13.12
332.34	8.92
332.805	11.12
333.271	8.32
333.736	3.32
334.201	9.12
334.666	11.12
335.131	15.22
335.596	20.02
336.061	13.52
336.526	10.82
336.991	9.52
337.456	21.73
337.921	9.62
338.386	8.82
338.851	4.72
339.316	11.12
339.781	9.42
340.246	9.92
340.711	11.32
341.175	10.23
341.64	5.52
342.105	9.62
342.569	16.52
343.034	18.02
343.499	16.42
343.963	12.62
344.428	22.83
344.893	16.92
345.357	21.02
345.822	21.02
346.286	17.02
346.751	18.73
347.215	16.02
347.679	17.83
348.144	27.12
348.608	21.33
349.073	18.32
349.537	19.42
350.001	19.02
350.465	26.33
350.93	28.82
351.394	26.12
351.858	16.33
352.322	24.83
352.786	20.43
353.25	28.62
353.715	33.62
354.179	28.82
354.643	32.52
355.107	35.52
355.571	30.42
356.035	29.02
356.498	35.02
356.962	29.22
357.426	36.32
357.89	32.42
358.354	23.72
358.818	23.73
359.281	20.73
359.745	19.33
360.209	19.83
360.673	16.12
361.136	23.73
361.6	29.12
362.064	23.93
362.527	29.92
362.991	25.23
363.454	29.23
363.918	19.12
364.381	19.92
364.845	23.32
365.308	30.42
365.772	25.92
366.235	32.42
366.698	32.32
367.162	26.22
367.625	26.32
368.088	28.62
368.552	30.22
369.015	24.73
369.478	31.33
369.941	36.52
370.404	21.32
370.867	28.52
371.331	34.12
371.794	31.32
372.257	27.52
372.72	36.32
373.183	28.33
373.646	22.92
374.109	25.02
374.572	23.72
375.035	27.22
375.497	23.52
375.96	27.02
376.423	30.12
376.886	37.23
377.349	32.72
377.811	35.02
378.274	33.12
378.737	36.92
379.199	34.52
379.662	32.12
380.125	36.23
380.587	26.52
381.05	31.52
381.512	37.12
381.975	47.82
382.437	34.23
382.9	38.42
383.362	39.73
383.825	40.52
384.287	43.82
384.75	37.12
385.212	37.92
385.674	44.92
386.136	44.73
386.599	43.32
387.061	44.02
387.523	43.32
387.985	43.02
388.447	48.82
388.91	38.42
389.372	47.83
389.834	41.42
390.296	41.02
390.758	43.32
391.22	46.32
391.682	46.52
392.144	59.02
392.606	48.92
393.068	53.33
393.529	61.42
393.991	41.33
394.453	44.92
394.915	43.02
395.377	44.02
395.838	42.12
396.3	51.22
396.762	54.73
397.224	43.42
397.685	42.52
398.147	45.62
398.608	42.73
399.07	44.02
399.531	48.73
399.993	48.83
400.454	57.82
400.916	49.12
401.377	53.52
401.839	53.72
402.3	49.22
402.762	60.32
403.223	64.02
403.684	59.52
404.145	54.42
404.607	57.02
405.068	56.42
405.529	50.42
405.99	55.83
406.451	53.22
406.913	62.92
407.374	46.82
407.835	57.33
408.296	60.33
408.757	54.23
409.218	64.82
409.679	56.73
410.14	55.93
410.601	66.42
411.062	63.83
411.522	67.52
411.983	55.72
412.444	58.83
412.905	61.52
413.366	71.73
413.826	80.02
414.287	91.33
414.748	117.92
415.208	110.52
415.669	92.22
416.13	91.52
416.59	80.52
417.051	101.02
417.511	99.62
417.972	109.43
418.432	111.62
418.893	134.83
419.353	114.23
419.814	86.22
420.274	78.92
420.734	65.72
421.195	84.42
421.655	73.33
422.115	75.82
422.576	77.72
423.036	81.73
423.496	89.32
423.956	89.12
424.416	93.32
424.876	109.32
425.336	100.32
425.797	99.82
426.257	101.02
426.717	84.33
427.177	80.92
427.637	75.62
428.097	76.22
428.556	76.92
429.016	91.42
429.476	83.02
429.936	84.02
430.396	85.42
430.856	88.82
431.315	97.42
431.775	100.92
432.235	114.32
432.694	103.92
433.154	108.42
433.614	111.92
434.073	90.73
434.533	87.23
434.993	80.12
435.452	88.52
435.912	84.82
436.371	96.33
436.83	86.93
437.29	88.12
437.749	82.62
438.209	76.32
438.668	98.62
439.127	100.33
439.587	94.62
440.046	87.02
440.505	96.43
440.964	93.92
441.424	108.12
441.883	107.73
442.342	93.02
442.801	83.02
443.26	87.32
443.719	90.12
444.178	84.12
444.637	82.23
445.096	88.73
445.555	88.42
446.014	82.73
446.473	92.33
446.932	92.12
447.391	91.62
447.849	89.02
448.308	85.73
448.767	81.32
449.226	96.42
449.685	100.92
450.143	107.02
450.602	94.12
451.061	89.12
451.519	94.93
451.978	89.02
452.436	88.52
452.895	87.93
453.353	95.62
453.812	97.33
454.27	97.12
454.729	97.93
455.187	92.72
455.646	97.62
456.104	94.73
456.562	94.92
457.021	105.72
457.479	101.42
457.937	101.62
458.395	100.02
458.854	96.73
459.312	103.02
459.77	97.33
460.228	93.42
460.686	87.92
461.144	99.92
461.602	101.12
462.06	91.02
462.518	98.92
462.976	95.62
463.434	101.23
463.892	101.12
464.35	102.32
464.808	108.92
465.266	97.33
465.724	102.93
466.181	106.62
466.639	101.92
467.097	113.42
467.555	112.42
468.012	111.42
468.47	117.42
468.928	127.22
469.385	132.43
469.843	126.92
470.3	130.73
470.758	128.62
471.215	131.92
471.673	143.62
472.13	144.62
472.588	148.92
473.045	135.43
473.503	144.23
473.96	133.82
474.417	144.32
474.875	151.92
475.332	169.02
475.789	160.32
476.246	154.32
476.704	158.82
477.161	162.02
477.618	160.22
478.075	159.02
478.532	181.33
478.989	176.73
479.446	198.23
479.903	189.93
480.36	170.92
480.817	165.12
481.274	173.22
481.731	187.62
482.188	181.23
482.645	190.42
483.102	186.22
483.558	202.62
484.015	203.33
484.472	201.02
484.929	206.23
485.385	204.52
485.842	216.72
486.299	210.82
486.755	236.12
487.212	216.93
487.668	194.42
488.125	194.22
488.582	200.63
489.038	196.12
489.494	195.32
489.951	191.42
490.407	191.52
490.864	197.73
491.32	205.83
491.776	198.22
492.233	206.42
492.689	192.62
493.145	195.43
493.602	200.22
494.058	207.62
494.514	207.52
494.97	214.13
495.426	204.62
495.882	211.62
496.338	202.42
496.794	207.22
497.251	201.92
497.707	213.43
498.163	208.12
498.618	214.92
499.074	211.92
499.53	216.32
499.986	228.73
500.442	220.63
500.898	214.32
501.354	212.23
501.809	219.02
502.265	216.33
502.721	223.23
503.177	224.43
503.632	226.02
504.088	222.52
504.543	232.02
504.999	236.72
505.455	217.73
505.91	220.03
506.366	221.12
506.821	214.42
507.277	233.62
507.732	213.73
508.187	216.62
508.643	217.33
509.098	219.53
509.553	233.12
510.009	232.02
510.464	235.22
510.919	239.53
511.375	242.23
511.83	236.92
512.285	247.92
512.74	258.83
513.195	267.92
513.65	261.63
514.105	259.62
514.56	268.73
515.015	272.32
515.47	281.62
515.925	264.23
516.38	270.72
516.835	285.02
517.29	268.93
517.745	269.23
518.2	265.42
518.655	253.52
519.109	243.82
519.564	258.62
520.019	242.83
520.474	238.52
520.928	237.82
521.383	240.92
521.838	233.92
522.292	234.53
522.747	238.92
523.201	239.52
523.656	242.22
524.11	233.63
524.565	229.03
525.019	225.43
525.474	230.33
525.928	233.93
526.382	221.42
526.837	219.12
527.291	221.83
527.745	228.23
528.2	227.93
528.654	227.72
529.108	222.33
529.562	219.92
530.016	220.43
530.47	220.92
530.925	229.72
531.379	221.72
531.833	219.32
532.287	216.42
532.741	211.82
533.195	216.52
533.649	219.42
534.103	222.53
534.556	217.12
535.01	218.82
535.464	214.42
535.918	225.73
536.372	213.43
536.826	228.82
537.279	221.62
537.733	216.03
538.187	220.62
538.64	223.62
539.094	219.12
539.548	224.93
540.001	225.52
540.455	223.52
540.908	225.12
541.362	233.83
541.815	237.72
542.269	241.92
542.722	240.52
543.175	240.22
543.629	243.73
544.082	258.62
544.536	248.22
544.989	250.63
545.442	250.02
545.895	247.42
546.349	244.13
546.802	251.42
547.255	263.62
547.708	256.92
548.161	263.02
548.614	267.42
549.067	267.42
549.52	258.03
549.973	257.22
550.426	255.12
550.879	243.62
551.332	244.82
551.785	243.42
552.238	239.83
552.691	256.43
553.144	256.23
553.596	259.73
554.049	268.92
554.502	276.42
554.955	292.92
555.407	278.92
555.86	273.42
556.313	281.72
556.765	273.23
557.218	270.23
557.67	264.92
558.123	266.82
558.576	266.22
559.028	275.52
559.48	273.82
559.933	270.22
560.385	254.82
560.838	249.52
561.29	233.92
561.742	240.43
562.195	231.22
562.647	229.82
563.099	242.23
563.551	232.53
564.004	240.12
564.456	232.62
564.908	228.73
565.36	222.02
565.812	212.52
566.264	208.73
566.716	211.02
567.168	207.52
567.62	205.62
568.072	205.22
568.524	203.23
568.976	198.02
569.428	192.22
569.88	196.33
570.332	195.82
570.784	202.12
571.235	195.52
571.687	201.83
572.139	206.73
572.59	209.92
573.042	198.12
573.494	200.32
573.945	199.12
574.397	186.53
574.849	188.42
575.3	190.53
575.752	189.42
576.203	195.52
576.655	196.62
577.106	184.52
577.557	191.32
578.009	196.93
578.46	184.92
578.912	180.52
579.363	188.33
579.814	187.92
580.265	180.82
580.717	193.33
581.168	186.42
581.619	185.83
582.07	190.23
582.521	178.92
582.972	186.23
583.423	185.92
583.875	186.62
584.326	186.92
584.777	192.82
585.227	199.33
585.678	191.72
586.129	195.12
586.58	208.82
587.031	211.72
587.482	218.23
587.933	224.62
588.384	217.43
588.834	221.42
589.285	216.02
589.736	216.52
590.186	214.23
590.637	218.83
591.088	205.52
591.538	203.53
591.989	202.12
592.439	209.93
592.89	203.32
593.34	189.02
593.791	192.92
594.241	186.82
594.692	187.52
595.142	186.62
595.593	189.03
596.043	194.73
596.493	190.62
596.943	189.43
597.394	194.92
597.844	186.62
598.294	196.32
598.744	209.83
599.195	218.42
599.645	225.42
600.095	241.93
600.545	259.43
600.995	283.43
601.445	309.12
601.895	334.02
602.345	355.33
602.795	324.12
603.245	309.23
603.695	284.82
604.145	268.22
604.594	255.93
605.044	233.33
605.494	208.02
605.944	196.12
606.393	195.93
606.843	189.83
607.293	195.13
607.743	194.03
608.192	199.62
608.642	207.53
609.091	207.02
609.541	212.42
609.99	208.32
610.44	204.43
610.889	184.12
611.339	181.32
611.788	167.73
612.238	184.52
612.687	204.42
613.136	189.02
613.586	193.93
614.035	182.62
614.484	189.52
614.933	181.12
615.383	191.83
615.832	188.83
616.281	188.83
616.73	179.12
617.179	170.02
617.628	167.92
618.077	166.62
618.526	158.62
618.975	159.12
619.424	156.82
619.873	155.52
620.322	161.32
620.771	154.52
621.22	156.92
621.669	153.83
622.118	148.32
622.567	136.83
623.015	139.82
623.464	142.62
623.913	140.32
624.361	138.72
624.81	131.92
625.259	137.93
625.707	131.73
626.156	140.32
626.604	147.62
627.053	139.82
627.501	140.62
627.95	143.02
628.398	144.42
628.847	134.73
629.295	140.42
629.744	150.62
630.192	143.32
630.64	139.02
631.089	123.92
631.537	132.52
631.985	125.73
632.433	129.83
632.881	122.52
633.33	130.42
633.778	122.42
634.226	118.83
634.674	123.02
635.122	128.12
635.57	131.72
636.018	130.12
636.466	139.52
636.914	131.12
637.362	138.93
637.81	140.92
638.258	139.43
638.705	137.82
639.153	155.32
639.601	143.32
640.049	153.22
640.497	168.62
640.944	178.73
641.392	149.52
641.84	138.82
642.287	125.42
642.735	113.73
643.182	118.52
643.63	119.72
644.078	118.23
644.525	119.72
644.973	112.72
645.42	113.82
645.867	122.62
646.315	127.12
646.762	118.23
647.21	124.23
647.657	117.72
648.104	122.42
648.551	109.33
648.999	104.92
649.446	110.12
649.893	104.62
650.34	108.52
650.787	108.83
651.234	112.62
651.682	116.83
652.129	113.62
652.576	116.62
653.023	142.73
653.47	146.72
653.917	141.62
654.363	156.83
654.81	161.23
655.257	153.02
655.704	146.43
656.151	115.42
656.598	109.32
657.044	99.62
657.491	105.52
657.938	102.42
658.385	115.83
658.831	114.02
659.278	122.02
659.724	111.92
660.171	104.82
660.618	109.42
661.064	109.43
661.511	103.12
661.957	103.73
662.404	112.02
662.85	118.23
663.296	112.52
663.743	106.22
664.189	108.82
664.635	105.42
665.082	100.32
665.528	110.23
665.974	107.72
666.42	103.42
666.867	111.72
667.313	100.83
667.759	105.23
668.205	99.92
668.651	97.12
669.097	96.02
669.543	97.02
669.989	97.52
670.435	99.33
670.881	91.52
671.327	97.82
671.773	110.92
672.219	113.12
672.665	134.73
673.11	138.82
673.556	155.32
674.002	176.02
674.448	170.82
674.893	133.33
675.339	113.12
675.785	112.83
676.23	100.42
676.676	82.33
677.122	93.82
677.567	82.22
678.013	81.82
678.458	80.52
678.904	77.43
679.349	74.62
679.794	84.23
680.24	76.73
680.685	80.22
681.131	72.22
681.576	82.82
682.021	86.73
682.466	80.32
682.912	75.52
683.357	77.62
683.802	90.83
684.247	99.52
684.692	115.02
685.137	123.02
685.583	142.82
686.028	151.22
686.473	131.62
686.918	102.22
687.363	99.12
687.807	101.02
688.252	88.23
688.697	88.23
689.142	78.72
689.587	76.23
690.032	72.02
690.477	83.42
690.921	77.52
691.366	95.72
691.811	100.12
692.255	113.83
692.7	119.73
693.145	130.43
693.589	179.92
694.034	304.62
694.478	448.32
694.923	533.92
695.367	713.62
695.812	350.43
696.256	127.22
696.701	85.02
697.145	85.52
697.59	74.32
698.034	73.42
698.478	79.33
698.922	77.12
699.367	77.83
699.811	79.12
700.255	91.43
700.699	90.62
701.143	111.23
701.588	130.62
702.032	146.42
702.476	137.23
702.92	117.73
703.364	120.32
703.808	164.72
704.252	278.02
704.696	415.32
705.14	507.62
705.584	674.42
706.027	314.42
706.471	131.52
706.915	100.12
707.359	83.82
707.803	62.82
708.246	67.62
708.69	71.02
709.134	82.52
709.577	78.33
710.021	75.42
710.465	72.52
710.908	72.52
711.352	71.92
711.795	68.22
712.239	85.52
712.682	89.22
713.126	97.72
713.569	123.22
714.012	92.23
714.456	72.83
714.899	68.42
715.342	56.23
715.786	46.83
716.229	62.02
716.672	60.12
717.115	58.33
717.558	60.83
718.002	55.52
718.445	62.92
718.888	74.02
719.331	75.73
719.774	84.42
720.217	77.92
720.66	66.52
721.103	59.73
721.546	54.02
721.989	59.02
722.432	45.62
722.874	49.82
723.317	49.83
723.76	46.82
724.203	61.62
724.645	74.62
725.088	118.42
725.531	149.32
725.974	181.62
726.416	151.22
726.859	74.62
727.301	59.33
727.744	52.43
728.187	48.02
728.629	56.32
729.071	51.62
729.514	67.72
729.956	64.62
730.399	62.92
730.841	69.62
731.283	64.62
731.726	57.12
732.168	58.12
732.61	59.92
733.053	61.43
733.495	68.43
733.937	83.73
734.379	101.22
734.821	110.33
735.263	138.02
735.705	219.72
736.148	451.33
736.59	746.02
737.032	951.33
737.474	762.12
737.916	222.22
738.357	113.32
738.799	79.22
739.241	73.02
739.683	69.52
740.125	76.72
740.567	70.62
741.008	80.12
741.45	79.42
741.892	78.23
742.334	89.02
742.775	88.62
743.217	87.22
743.658	64.32
744.1	60.62
744.542	55.33
744.983	74.62
745.425	85.32
745.866	85.72
746.307	66.02
746.749	66.12
747.19	78.62
747.632	112.23
748.073	231.12
748.514	526.32
748.956	862.82
749.397	1059.03
749.838	882.73
750.279	941.22
750.72	442.42
751.162	153.02
751.603	81.62
752.044	59.92
752.485	43.92
752.926	49.23
753.367	47.22
753.808	44.82
754.249	39.02
754.69	38.52
755.131	41.62
755.572	33.92
756.013	37.52
756.453	32.02
756.894	39.43
757.335	38.23
757.776	45.32
758.216	46.32
758.657	46.02
759.098	41.12
759.538	45.52
759.979	67.52
760.42	84.52
760.86	177.12
761.301	495.22
761.741	1272.73
762.182	1989.93
762.622	1414.23
763.063	383.23
763.503	145.32
763.943	82.02
764.384	65.42
764.824	54.73
765.264	43.02
765.705	43.42
766.145	32.12
766.585	36.02
767.025	34.92
767.465	31.12
767.906	34.02
768.346	37.92
768.786	39.73
769.226	39.23
769.666	75.52
770.106	153.92
770.546	438.92
770.986	819.63
771.426	756.23
771.866	232.63
772.306	85.12
772.745	48.52
773.185	33.22
773.625	37.02
774.065	30.73
774.505	40.82
774.944	48.32
775.384	81.42
775.824	156.12
776.263	147.33
776.703	62.42
777.142	29.33
777.582	27.82
778.021	19.62
778.461	30.62
778.9	25.42
779.34	32.73
779.779	18.73
780.219	15.73
780.658	17.92
781.097	18.92
781.537	32.92
781.976	19.52
782.415	20.22
782.855	22.52
783.294	16.83
783.733	16.23
784.172	28.52
784.611	16.72
785.05	21.52
785.489	24.12
785.928	22.62
786.367	26.82
786.806	22.02
787.245	30.92
787.684	27.02
788.123	36.23
788.562	29.42
789.001	26.62
789.44	27.83
789.879	27.02
790.317	21.62
790.756	30.83
791.195	22.83
791.634	33.43
792.072	55.43
792.511	97.23
792.95	273.43
793.388	650.03
793.827	597.32
794.265	185.02
794.704	68.33
795.142	47.62
795.581	36.62
796.019	37.73
796.458	24.83
796.896	18.52
797.334	26.52
797.773	36.32
798.211	60.42
798.649	117.92
799.087	297.32
799.526	470.02
799.964	601.52
800.402	646.33
800.84	230.73
801.278	76.42
801.716	44.42
802.154	37.72
802.592	37.52
803.03	30.12
803.468	27.52
803.906	38.52
804.344	41.02
804.782	33.92
805.22	27.72
805.658	27.12
806.096	40.62
806.533	38.52
806.971	43.52
807.409	52.22
807.847	68.92
808.284	177.82
808.722	538.82
809.16	1011.62
809.597	898.32
810.035	1635.12
810.472	1852.62
810.91	649.42
811.347	234.23
811.785	114.83
812.222	68.02
812.66	49.23
813.097	40.62
813.535	35.92
813.972	32.42
814.409	20.52
814.846	23.52
815.284	26.92
815.721	19.52
816.158	24.62
816.595	20.43
817.032	38.02
817.47	44.52
817.907	36.73
818.344	15.42
818.781	15.83
819.218	15.92
819.655	22.62
820.092	47.82
820.529	46.62
820.966	40.43
821.403	29.62
821.839	19.33
822.276	18.02
822.713	31.02
823.15	30.73
823.587	24.12
824.023	38.12
824.46	73.02
824.897	266.12
825.333	421.83
825.77	178.02
826.206	64.72
826.643	31.32
827.08	20.83
827.516	17.12
827.953	18.42
828.389	15.02
828.825	11.52
829.262	11.12
829.698	9.32
830.135	8.42
830.571	13.02
831.007	12.73
831.443	12.02
831.88	11.62
832.316	9.62
832.752	7.73
833.188	11.52
833.624	9.33
834.06	16.33
834.497	18.82
834.933	16.02
835.369	20.62
835.805	9.82
836.241	19.92
836.677	15.83
837.112	17.52
837.548	20.82
837.984	31.32
838.42	46.02
838.856	132.02
839.292	453.12
839.727	737.52
840.163	319.93
840.599	264.22
841.034	614.43
841.47	687.12
841.906	235.13
842.341	85.12
842.777	44.43
843.212	44.62
843.648	48.82
844.083	33.32
844.519	17.23
844.954	16.12
845.39	1.12
845.825	7.73
846.261	11.02
846.696	10.02
847.131	12.73
847.566	10.42
848.002	6.83
848.437	8.62
848.872	9.62
849.307	11.73
849.742	23.93
850.177	42.83
850.613	160.52
851.048	274.52
851.483	106.73
851.918	36.82
852.353	20.12
852.788	9.02
853.223	12.62
853.657	13.32
854.092	9.02
854.527	8.52
854.962	5.22
855.397	13.62
855.832	20.62
856.266	8.23
856.701	7.93
857.136	6.02
857.57	2.83
858.005	7.02
858.44	17.12
858.874	4.12
859.309	11.83
859.743	1.32
860.178	2.82
860.612	6.02
861.047	11.72
861.481	9.92
861.915	15.43
862.35	10.73
862.784	4.12
863.218	8.32
863.653	1.42
864.087	4.22
864.521	14.62
864.955	7.83
865.39	40.62
865.824	40.12
866.258	26.43
866.692	36.33
867.126	41.32
867.56	31.62
867.994	7.42
868.428	7.92
868.862	10.43
869.296	14.33
869.73	14.62
870.164	12.22
870.598	4.33
871.031	4.82
871.465	1.92
871.899	4.12
872.333	2.93
872.766	2.83
873.2	0.92
873.634	2.73
874.067	3.52
874.501	4.02
874.935	7.42
875.368	7.72
875.802	0.52
876.235	4.42
876.669	7.83
877.102	4.12
877.535	3.33
877.969	7.62
878.402	7.62
878.836	1.52
879.269	2.83
879.702	5.12
880.135	-1.28
880.569	-2.98
881.002	4.43
881.435	3.92
881.868	-0.48
882.301	7.12
882.734	-2.98
883.167	2.02
883.601	-1.67
884.034	4.82
884.467	-2.67
884.899	4.02
885.332	-4.48
885.765	-5.77
886.198	-5.18
886.631	-1.18
887.064	4.23
887.497	1.22
887.929	11.02
888.362	-7.08
888.795	-6.38
889.228	0.02
889.66	3.12
890.093	-1.78
890.526	-1.48
890.958	-1.98
891.391	0.12
891.823	2.23
892.256	1.92
892.688	1.52
893.121	-2.48
893.553	-0.68
893.985	5.02
894.418	9.22
894.85	-4.27
895.282	-5.18
895.715	0.73
896.147	6.73
896.579	4.62
897.011	0.83
897.444	3.12
897.876	-6.17
898.308	-1.28
898.74	-4.57
899.172	-1.17
899.604	5.23
900.036	1.52
900.468	-0.48
900.9	-3.88
901.332	7.62
901.764	-7.68
902.196	0.33
902.628	0.92
903.06	-1.78
903.491	10.23
903.923	1.32
904.355	-2.07
904.787	4.72
905.218	-1.07
905.65	3.32
906.082	-2.08
906.513	-5.18
906.945	-1.68
907.376	-0.58
907.808	2.23
908.239	5.52
908.671	-2.27
909.102	0.73
909.534	1.12
909.965	7.92
910.397	27.82
910.828	98.02
911.259	150.23
911.691	59.92
912.122	25.73
912.553	3.32
912.984	14.62
913.415	6.73
913.847	3.23
914.278	-1.48
914.709	2.02
915.14	1.83
915.571	5.62
916.002	1.23
916.433	2.52
916.864	3.02
917.295	-6.98
917.726	3.62
918.157	-3.28
918.587	6.12
919.018	4.93
919.449	1.62
919.88	4.52
920.311	9.52
920.741	6.32
921.172	49.83
921.603	41.22
922.033	14.32
922.464	11.12
922.895	1.82
923.325	4.42
923.756	-1.78
924.186	2.33
924.617	1.33
925.047	0.42
925.478	4.23
925.908	-0.08
926.338	-1.17
926.769	-4.07
927.199	8.33
927.629	4.02
928.06	-4.58
928.49	-0.98
928.92	7.52
929.35	1.02
929.78	-1.08
930.21	1.32
930.641	0.73
931.071	4.12
931.501	-3.27
931.931	0.23
932.361	3.23
932.791	-2.98
933.221	-1.67
933.651	-9.77
934.08	-0.68
934.51	6.23
934.94	-0.17
935.37	-0.77
935.8	2.72
936.229	1.02
936.659	-0.28
937.089	-3.67
937.519	-5.48
937.948	14.62
938.378	5.02
938.807	-5.08
939.237	2.73
939.666	4.73
940.096	-13.88
940.525	-0.28
940.955	-0.98
941.384	-2.57
941.814	-12.68
942.243	-5.77
942.672	2.73
943.102	-8.48
943.531	-8.58
943.96	0.92
944.39	-2.28
944.819	-7.38
945.248	-1.88
945.677	2.02
946.106	-1.27
946.535	1.62
946.964	-6.68
947.393	-4.48
947.822	-1.27
948.251	-6.68
948.68	3.02
949.109	3.92
949.538	-0.57
949.967	-4.18
950.396	-0.98
950.825	-6.18
951.254	-4.38
951.682	-8.78
952.111	4.73
952.54	7.83
952.969	-6.98
953.397	-10.28
953.826	-4.08
954.254	-9.98
954.683	-5.58
955.112	-6.17
955.54	-0.77
955.969	-3.67
956.397	-6.27
956.826	-7.17
957.254	-1.88
957.682	-4.78
958.111	-0.68
958.539	-4.67
958.967	-1.98
959.396	-7.08
959.824	-3.48
960.252	1.42
960.68	-10.58
961.109	-12.58
961.537	-11.77
961.965	-4.28
962.393	0.42
962.821	-2.07
963.249	-4.28
963.677	-4.08
964.105	-3.68
964.533	9.02
964.961	10.22
965.389	0.62
965.817	-4.08
966.245	-4.98
966.672	-2.27
967.1	-11.98
967.528	-5.18
967.956	-3.88
968.383	0.42
968.811	-3.88
969.239	-1.08
969.666	-9.48
970.094	-3.08
970.522	-0.38
970.949	-6.18
971.377	-3.67
971.804	-3.17
972.232	1.02
972.659	1.23
973.087	-2.58
973.514	-5.28
973.941	-5.18
974.369	5.82
974.796	1.33
975.223	-3.08
975.651	-1.27
976.078	3.12
976.505	-3.18
976.932	-0.77
977.359	2.82
977.786	1.12
978.214	-7.48
978.641	-5.18
979.068	-12.18
979.495	-4.28
979.922	-7.08
980.349	-2.68
980.776	4.32
981.202	3.82
981.629	8.12
982.056	3.82
982.483	-3.88
982.91	-0.27
983.337	-12.38
983.763	0.22
984.19	-4.58
984.617	-9.27
985.043	-8.68
985.47	-2.58
985.897	-8.48
986.323	-9.78
986.75	-2.27
987.176	-6.08
987.603	-2.48
988.029	-5.78
988.456	-7.38
988.882	0.62
989.308	-7.88
989.735	-3.38
990.161	0.73
990.587	-8.18
991.014	-0.88
991.44	6.02
991.866	-3.88
992.292	-3.67
992.719	-8.88
993.145	3.62
993.571	-6.17
993.997	-9.88
994.423	1.32
994.849	-9.68
995.275	0.83
995.701	-0.38
996.127	0.22
996.553	-2.48
996.979	-4.08
997.405	-1.88
997.83	-6.38
998.256	-4.98
998.682	-10.57
999.108	-13.48
999.534	-2.28
999.959	-2.68
1000.385	-3.48
1000.811	4.52
1001.236	-4.88
1001.662	-13.08
1002.087	-7.57
1002.513	-5.58
1002.938	2.43
1003.364	-5.67
1003.789	-4.58
1004.215	0.83
1004.64	-1.78
1005.066	5.92
1005.491	-5.88
1005.916	3.42
1006.342	-4.27
1006.767	-6.98
1007.192	15.23
1007.617	-6.08
1008.042	-7.08
1008.468	-6.68
1008.893	-5.57
1009.318	-3.77
1009.743	-10.68
1010.168	-2.58
1010.593	-6.48
1011.018	-10.08
1011.443	-3.48
1011.868	-1.07
1012.293	-4.07
1012.718	-7.57
1013.143	-0.28
1013.567	-0.68
1013.992	-6.98
1014.417	-10.28
1014.842	-0.98
1015.267	-7.78
1015.691	-1.77
1016.116	6.62
1016.541	-4.88
1016.965	3.32
1017.39	7.32
1017.814	-0.77
1018.239	0.22
1018.663	-7.38
1019.088	-7.68
1019.512	-1.38
1019.937	-6.77
1020.361	-7.98
1020.785	-10.68
1021.21	-5.77
1021.634	-2.27
1022.058	-3.38
1022.483	-1.08
1022.907	-3.88
1023.331	-9.57
1023.755	-7.98
1024.179	-1.77
1024.604	-8.98
1025.028	-8.58
1025.452	-8.98
1025.876	-4.08
1026.3	-2.08
1026.724	-9.48
1027.148	-5.38
1027.572	-5.48
1027.996	-3.38
1028.42	-1.48
1028.843	-4.88
1029.267	-8.48
1029.691	-2.68
1030.115	-6.98
1030.539	-4.38
1030.962	-5.88
1031.386	-8.07
1031.81	-1.77
1032.233	-2.27
1032.657	-0.17
1033.08	-2.88
1033.504	4.22
1033.927	-3.77
1034.351	-2.88
1034.774	-1.18
1035.198	-1.38
1035.621	-5.17
1036.045	-7.78
1036.468	1.72
1036.891	-8.98
1037.315	-12.48
1037.738	-9.58
1038.161	-0.98
1038.584	-6.88
1039.008	-8.38
1039.431	1.12
1039.854	1.62
1040.277	-9.27
1040.7	-9.48
1041.123	5.52
1041.546	-8.77
1041.969	-5.58
1042.392	-9.88
1042.815	-1.28
1043.238	4.12
1043.661	1.12
1044.084	-9.27
1044.507	-1.58
1044.93	-4.08
1045.352	-6.18
1045.775	2.22
1046.198	-3.67
1046.621	-0.88
1047.043	-2.57
1047.466	7.92
1047.889	-5.48
1048.311	-5.08
1048.734	-3.88
1049.156	-4.38
1049.579	-0.68
1050.001	-9.58
1050.424	-0.68
1050.846	-4.48
1051.269	-4.67
1051.691	-4.77
1052.113	-7.78
1052.536	-5.38
1052.958	-5.98
1053.38	-6.58
1053.802	-13.98
1054.225	-1.98
1054.647	-8.18
1055.069	0.12
1055.491	-4.17
1055.913	-8.68
1056.335	2.62
1056.757	1.23
1057.179	-3.58
1057.601	-8.08
1058.023	-2.27
1058.445	-4.38
1058.867	-4.88
1059.289	-0.48
1059.711	-4.88
1060.133	-2.88
1060.555	-5.98
1060.976	-5.18
1061.398	-7.18
1061.82	-4.27
1062.241	-3.78
1062.663	-4.88
1063.085	-8.58
1063.506	-2.17
1063.928	-5.38
1064.35	-3.98
1064.771	-11.18
1065.193	-8.78
1065.614	-8.48
1066.035	-4.27
1066.457	-2.38
1066.878	0.42
1067.3	-6.18
1067.721	-5.48
1068.142	-5.38
1068.564	-5.08
1068.985	-5.28
1069.406	2.52
1069.827	-11.48
1070.248	1.73
1070.67	-4.27
1071.091	-6.07
1071.512	-6.58
1071.933	-4.08
1072.354	-9.98
1072.775	-7.88
1073.196	-9.38
1073.617	-0.18
1074.038	-9.08
1074.459	-7.07
1074.88	-7.67
1075.3	5.42
1075.721	-6.28
1076.142	2.43
1076.563	-0.38
1076.983	-5.98
1077.404	-5.77
1077.825	-7.88
1078.246	0.52
1078.666	-8.18
1079.087	-4.67
1079.507	-9.08
1079.928	-2.08
1080.348	1.73
1080.769	-9.58
1081.189	2.83
1081.61	-0.27
1082.03	-3.98
1082.451	-4.68
1082.871	0.02
1083.291	-1.68
1083.711	-8.48
1084.132	-6.98
1084.552	-4.78
1084.972	-0.08
1085.392	-10.78
1085.813	-9.68
1086.233	-8.48
1086.653	-2.17
1087.073	-0.67
1087.493	-3.48
1087.913	-8.28
1088.333	-0.48
1088.753	-5.28
1089.173	1.12
1089.593	-2.67
1090.013	3.72
1090.433	-1.58
1090.852	-0.08
1091.272	-2.08
1091.692	-3.98
1092.112	1.62
1092.531	-9.38
1092.951	-7.98
1093.371	-0.18
1093.79	-1.27
1094.21	-1.98
1094.63	-2.17
1095.049	-8.58
1095.469	-6.08
1095.888	-5.48
1096.308	-1.28
1096.727	3.42
1097.146	-9.58
1097.566	-1.88
1097.985	-4.27
1098.405	-0.67
1098.824	-5.18
1099.243	-9.88
1099.662	-9.48
1100.082	-10.98
1100.501	-4.88
1100.92	-0.98
1101.339	-1.88
1101.758	-6.27
