Data from 20171114-ORNL-Ar_H_NY_Subt18_08-04-15-711.txt Node
Date: Tue Nov 14 08:04:15 EST 2017
User: Ender
Spectrometer: HR+D1039
Trigger mode: 0
Integration Time (sec): 2.730000E-2
Scans to average: 10
Electric dark correction enabled: true
Nonlinearity correction enabled: false
Boxcar width: 0
XAxis mode: Wavelengths
Number of Pixels in Spectrum: 2048
>>>>>Begin Spectral Data<<<<<
187.836	-0.74
188.309	-0.74
188.782	-0.74
189.255	-1.84
189.728	-1.64
190.201	1.46
190.674	-1.44
191.147	0.86
191.619	-5.34
192.092	4.46
192.565	5.46
193.038	4.66
193.511	2.66
193.984	-1.34
194.456	1.26
194.929	-6.14
195.402	-1.14
195.874	-1.14
196.347	2.66
196.82	-7.34
197.292	7.36
197.765	-0.64
198.237	-11.04
198.71	2.66
199.182	-1.74
199.655	2.56
200.127	2.06
200.6	-1.04
201.072	-3.14
201.544	-10.64
202.017	-3.64
202.489	1.46
202.961	1.56
203.433	1.56
203.906	-5.64
204.378	-9.14
204.85	4.46
205.322	-2.84
205.794	-5.24
206.266	2.76
206.739	-7.34
207.211	2.66
207.683	-10.54
208.155	2.36
208.627	-7.04
209.099	-2.14
209.57	-4.64
210.042	-6.94
210.514	-1.24
210.986	-0.74
211.458	-7.14
211.93	-0.54
212.402	0.26
212.873	-7.94
213.345	-9.94
213.817	-16.04
214.288	-2.84
214.76	-14.54
215.232	-3.34
215.703	-7.34
216.175	-4.34
216.646	-4.14
217.118	-10.24
217.589	-3.64
218.061	0.86
218.532	-3.94
219.004	-2.64
219.475	-4.14
219.946	-1.14
220.418	-1.44
220.889	2.56
221.36	1.16
221.832	-4.54
222.303	-1.84
222.774	2.96
223.245	-5.34
223.717	-4.74
224.188	-8.34
224.659	-14.74
225.13	-4.34
225.601	-8.54
226.072	-1.34
226.543	-1.54
227.014	3.76
227.485	-1.94
227.956	-4.74
228.427	-1.54
228.898	-2.24
229.369	7.66
229.839	-3.74
230.31	-6.34
230.781	3.96
231.252	0.76
231.722	-8.84
232.193	-3.64
232.664	0.56
233.135	1.76
233.605	4.86
234.076	-5.74
234.546	2.96
235.017	4.66
235.487	2.16
235.958	-6.54
236.428	0.66
236.899	9.96
237.369	8.56
237.84	1.46
238.31	4.46
238.78	2.96
239.251	-2.14
239.721	7.16
240.191	0.46
240.662	1.26
241.132	4.66
241.602	5.86
242.072	2.06
242.542	6.56
243.013	3.06
243.483	4.96
243.953	6.26
244.423	-3.44
244.893	-2.04
245.363	-0.64
245.833	2.26
246.303	-1.54
246.773	0.76
247.243	3.46
247.712	3.26
248.182	11.26
248.652	7.76
249.122	-0.64
249.592	11.96
250.061	20.86
250.531	40.56
251.001	16.66
251.471	22.86
251.94	14.56
252.41	7.56
252.879	-6.44
253.349	15.66
253.818	11.16
254.288	5.36
254.757	6.26
255.227	4.86
255.696	7.26
256.166	7.16
256.635	2.26
257.105	10.96
257.574	5.36
258.043	2.96
258.513	11.76
258.982	17.36
259.451	11.26
259.92	12.26
260.389	13.26
260.859	13.86
261.328	8.26
261.797	16.86
262.266	12.76
262.735	12.96
263.204	6.76
263.673	0.66
264.142	12.36
264.611	-6.44
265.08	7.06
265.549	-2.74
266.018	6.46
266.487	-0.24
266.955	-6.74
267.424	5.46
267.893	7.26
268.362	-3.84
268.83	0.76
269.299	13.36
269.768	6.56
270.236	5.76
270.705	5.06
271.174	4.76
271.642	6.16
272.111	9.26
272.579	13.46
273.048	18.76
273.516	21.46
273.985	23.76
274.453	24.26
274.922	17.36
275.39	11.76
275.858	4.06
276.327	10.66
276.795	16.66
277.263	7.16
277.731	31.06
278.2	48.86
278.668	56.26
279.136	42.26
279.604	19.66
280.072	15.66
280.54	14.06
281.008	8.96
281.477	13.86
281.945	12.46
282.413	10.86
282.881	18.86
283.348	4.16
283.816	11.76
284.284	12.46
284.752	16.76
285.22	12.56
285.688	11.46
286.156	15.66
286.623	37.76
287.091	45.36
287.559	27.56
288.026	12.86
288.494	11.16
288.962	5.16
289.429	5.66
289.897	9.06
290.364	14.56
290.832	9.56
291.3	14.46
291.767	16.16
292.234	15.86
292.702	11.16
293.169	20.06
293.637	18.26
294.104	19.36
294.571	7.86
295.039	10.36
295.506	18.76
295.973	13.26
296.44	13.66
296.908	18.06
297.375	17.46
297.842	15.96
298.309	17.16
298.776	16.36
299.243	19.96
299.71	11.96
300.177	21.76
300.644	19.46
301.111	16.36
301.578	23.96
302.045	13.96
302.512	15.76
302.979	25.46
303.446	21.96
303.913	19.86
304.379	16.56
304.846	26.76
305.313	21.16
305.78	14.76
306.246	22.16
306.713	25.76
307.18	28.26
307.646	23.86
308.113	24.36
308.579	22.86
309.046	25.16
309.512	23.76
309.979	19.26
310.445	24.96
310.912	27.56
311.378	32.26
311.845	25.86
312.311	29.26
312.777	24.26
313.244	28.86
313.71	32.46
314.176	22.86
314.642	28.16
315.109	24.96
315.575	35.86
316.041	33.06
316.507	31.56
316.973	36.26
317.439	33.46
317.905	31.66
318.371	29.96
318.837	27.76
319.303	33.46
319.769	32.96
320.235	30.06
320.701	32.26
321.167	33.06
321.633	38.66
322.099	37.46
322.564	43.06
323.03	39.96
323.496	34.66
323.962	37.76
324.427	29.66
324.893	42.96
325.359	35.56
325.824	35.66
326.29	33.66
326.755	29.66
327.221	34.36
327.686	35.96
328.152	40.86
328.617	41.76
329.083	39.76
329.548	41.86
330.014	39.56
330.479	38.56
330.944	39.36
331.41	43.26
331.875	44.56
332.34	37.66
332.805	39.26
333.271	44.06
333.736	34.26
334.201	47.66
334.666	44.26
335.131	49.86
335.596	39.96
336.061	45.96
336.526	39.36
336.991	46.46
337.456	50.86
337.921	44.36
338.386	43.06
338.851	48.36
339.316	45.56
339.781	46.26
340.246	51.16
340.711	43.86
341.175	49.56
341.64	42.96
342.105	49.36
342.569	41.56
343.034	53.06
343.499	50.96
343.963	51.36
344.428	55.06
344.893	55.66
345.357	50.36
345.822	54.26
346.286	58.56
346.751	67.86
347.215	58.16
347.679	59.06
348.144	81.26
348.608	70.46
349.073	61.96
349.537	66.86
350.001	69.96
350.465	76.66
350.93	71.66
351.394	67.06
351.858	59.86
352.322	69.36
352.786	72.66
353.25	82.46
353.715	94.36
354.179	87.16
354.643	99.26
355.107	102.16
355.571	95.66
356.035	85.76
356.498	94.16
356.962	109.86
357.426	107.86
357.89	98.06
358.354	76.86
358.818	75.16
359.281	71.26
359.745	70.66
360.209	72.46
360.673	69.16
361.136	72.26
361.6	70.06
362.064	70.76
362.527	70.06
362.991	75.86
363.454	66.66
363.918	74.86
364.381	72.66
364.845	77.06
365.308	78.56
365.772	77.36
366.235	76.76
366.698	75.36
367.162	77.66
367.625	80.46
368.088	76.16
368.552	75.46
369.015	80.66
369.478	85.36
369.941	88.86
370.404	85.86
370.867	96.36
371.331	91.76
371.794	101.46
372.257	94.76
372.72	100.76
373.183	99.26
373.646	91.06
374.109	91.36
374.572	95.36
375.035	92.16
375.497	96.56
375.96	92.16
376.423	89.06
376.886	97.56
377.349	96.56
377.811	99.26
378.274	96.26
378.737	96.56
379.199	94.76
379.662	95.16
380.125	102.96
380.587	106.96
381.05	103.66
381.512	108.66
381.975	116.66
382.437	115.36
382.9	116.26
383.362	119.56
383.825	119.46
384.287	131.76
384.75	125.86
385.212	126.66
385.674	124.06
386.136	122.56
386.599	112.56
387.061	117.66
387.523	116.86
387.985	119.56
388.447	129.16
388.91	124.66
389.372	140.56
389.834	124.76
390.296	125.76
390.758	134.56
391.22	152.46
391.682	179.16
392.144	257.66
392.606	203.56
393.068	143.66
393.529	150.56
393.991	142.36
394.453	129.56
394.915	133.46
395.377	166.66
395.838	177.46
396.3	143.66
396.762	126.16
397.224	127.16
397.685	116.26
398.147	107.26
398.608	117.26
399.07	114.86
399.531	122.16
399.993	126.46
400.454	139.26
400.916	130.16
401.377	127.86
401.839	130.36
402.3	134.26
402.762	149.16
403.223	162.36
403.684	150.86
404.145	142.56
404.607	144.06
405.068	153.36
405.529	148.76
405.99	160.86
406.451	157.06
406.913	153.56
407.374	143.86
407.835	143.16
408.296	156.16
408.757	157.16
409.218	163.06
409.679	153.06
410.14	162.16
410.601	162.96
411.062	161.86
411.522	176.16
411.983	164.86
412.444	157.16
412.905	158.66
413.366	160.66
413.826	175.16
414.287	192.76
414.748	236.26
415.208	227.06
415.669	186.36
416.13	178.06
416.59	185.06
417.051	189.96
417.511	197.66
417.972	213.16
418.432	222.96
418.893	255.56
419.353	223.56
419.814	178.76
420.274	163.16
420.734	158.86
421.195	179.16
421.655	171.06
422.115	178.36
422.576	173.06
423.036	175.16
423.496	185.46
423.956	195.26
424.416	205.76
424.876	242.06
425.336	237.06
425.797	230.66
426.257	228.36
426.717	214.46
427.177	211.66
427.637	199.66
428.097	210.26
428.556	218.96
429.016	235.66
429.476	230.76
429.936	234.46
430.396	240.96
430.856	261.46
431.315	282.06
431.775	309.06
432.235	334.96
432.694	306.66
433.154	316.46
433.614	330.86
434.073	292.56
434.533	253.86
434.993	237.86
435.452	253.66
435.912	257.46
436.371	251.96
436.83	246.36
437.29	235.56
437.749	219.46
438.209	213.76
438.668	231.96
439.127	249.56
439.587	237.66
440.046	218.06
440.505	225.16
440.964	237.56
441.424	270.66
441.883	270.76
442.342	226.86
442.801	197.26
443.26	193.56
443.719	199.36
444.178	195.36
444.637	186.26
445.096	195.36
445.555	202.26
446.014	203.86
446.473	207.46
446.932	202.66
447.391	195.46
447.849	201.56
448.308	193.06
448.767	200.26
449.226	204.96
449.685	213.16
450.143	226.66
450.602	209.06
451.061	204.36
451.519	203.26
451.978	207.96
452.436	205.66
452.895	208.86
453.353	223.16
453.812	211.66
454.27	213.96
454.729	211.86
455.187	207.16
455.646	218.56
456.104	217.46
456.562	226.46
457.021	240.06
457.479	224.26
457.937	231.56
458.395	232.46
458.854	221.66
459.312	218.16
459.77	231.36
460.228	216.26
460.686	218.46
461.144	226.96
461.602	219.36
462.06	212.16
462.518	222.16
462.976	228.86
463.434	236.26
463.892	237.76
464.35	243.46
464.808	256.06
465.266	233.46
465.724	241.56
466.181	246.76
466.639	236.86
467.097	266.26
467.555	268.06
468.012	268.66
468.47	273.66
468.928	290.66
469.385	304.06
469.843	301.36
470.3	298.76
470.758	315.56
471.215	327.66
471.673	349.76
472.13	358.46
472.588	359.76
473.045	324.16
473.503	326.06
473.96	341.16
474.417	357.56
474.875	376.76
475.332	414.76
475.789	404.06
476.246	409.56
476.704	429.46
477.161	445.26
477.618	454.46
478.075	494.46
478.532	537.16
478.989	606.26
479.446	676.36
479.903	680.86
480.36	721.06
480.817	767.16
481.274	856.96
481.731	951.26
482.188	1029.36
482.645	1160.56
483.102	1250.26
483.558	1370.46
484.015	1434.96
484.472	1413.66
484.929	1374.06
485.385	1325.06
485.842	1295.76
486.299	1230.16
486.755	1155.06
487.212	974.96
487.668	830.06
488.125	761.46
488.582	694.86
489.038	663.26
489.494	637.16
489.951	617.36
490.407	592.86
490.864	575.26
491.32	570.16
491.776	571.66
492.233	564.46
492.689	536.66
493.145	539.26
493.602	525.46
494.058	536.56
494.514	546.26
494.97	557.36
495.426	568.16
495.882	546.36
496.338	545.46
496.794	553.66
497.251	549.86
497.707	558.46
498.163	566.76
498.618	564.76
499.074	563.06
499.53	595.96
499.986	589.06
500.442	568.06
500.898	555.56
501.354	555.66
501.809	563.76
502.265	567.26
502.721	584.06
503.177	597.76
503.632	588.46
504.088	598.46
504.543	626.16
504.999	619.96
505.455	576.36
505.91	555.56
506.366	558.06
506.821	560.06
507.277	554.16
507.732	540.66
508.187	556.96
508.643	565.46
509.098	553.86
509.553	592.46
510.009	594.26
510.464	581.76
510.919	603.16
511.375	607.16
511.83	619.66
512.285	644.66
512.74	671.76
513.195	678.26
513.65	684.56
514.105	680.06
514.56	679.86
515.015	699.56
515.47	718.56
515.925	700.16
516.38	695.76
516.835	703.56
517.29	693.46
517.745	686.06
518.2	669.46
518.655	663.56
519.109	658.26
519.564	653.36
520.019	639.96
520.474	631.16
520.928	642.26
521.383	635.16
521.838	624.16
522.292	629.96
522.747	631.16
523.201	619.16
523.656	611.96
524.11	614.56
524.565	608.16
525.019	600.46
525.474	622.66
525.928	610.66
526.382	617.26
526.837	611.46
527.291	612.46
527.745	614.36
528.2	614.36
528.654	611.26
529.108	599.56
529.562	606.16
530.016	602.26
530.47	606.16
530.925	609.26
531.379	607.76
531.833	619.16
532.287	609.06
532.741	615.46
533.195	615.66
533.649	625.66
534.103	622.66
534.556	622.86
535.01	623.16
535.464	619.76
535.918	631.66
536.372	632.26
536.826	624.46
537.279	613.26
537.733	616.56
538.187	620.86
538.64	621.26
539.094	627.46
539.548	639.36
540.001	632.26
540.455	625.76
540.908	638.26
541.362	646.36
541.815	644.46
542.269	651.36
542.722	665.26
543.175	661.96
543.629	660.66
544.082	689.26
544.536	675.16
544.989	684.86
545.442	690.46
545.895	682.76
546.349	687.76
546.802	681.76
547.255	695.36
547.708	706.96
548.161	697.36
548.614	713.66
549.067	719.06
549.52	702.66
549.973	711.66
550.426	705.76
550.879	685.26
551.332	682.76
551.785	701.26
552.238	697.76
552.691	703.46
553.144	725.06
553.596	725.26
554.049	743.16
554.502	760.86
554.955	785.16
555.407	784.26
555.86	783.76
556.313	770.46
556.765	761.66
557.218	757.86
557.67	759.56
558.123	754.86
558.576	749.66
559.028	743.86
559.48	758.16
559.933	755.36
560.385	719.86
560.838	694.66
561.29	667.36
561.742	662.36
562.195	658.16
562.647	647.96
563.099	673.26
563.551	661.46
564.004	671.86
564.456	659.36
564.908	652.46
565.36	644.76
565.812	621.16
566.264	611.06
566.716	611.46
567.168	606.56
567.62	602.36
568.072	594.66
568.524	597.36
568.976	586.06
569.428	570.06
569.88	582.26
570.332	576.56
570.784	588.16
571.235	575.76
571.687	575.66
572.139	606.46
572.59	604.36
573.042	593.06
573.494	597.66
573.945	594.66
574.397	582.26
574.849	584.76
575.3	595.36
575.752	576.96
576.203	566.86
576.655	577.96
577.106	561.26
577.557	559.76
578.009	565.76
578.46	566.56
578.912	552.56
579.363	555.66
579.814	563.26
580.265	550.66
580.717	557.16
581.168	569.26
581.619	565.86
582.07	571.26
582.521	563.56
582.972	557.96
583.423	563.56
583.875	563.36
584.326	580.16
584.777	633.26
585.227	688.66
585.678	763.16
586.129	838.96
586.58	902.76
587.031	975.86
587.482	1133.86
587.933	1288.36
588.384	1099.06
588.834	819.96
589.285	668.66
589.736	650.36
590.186	657.06
590.637	638.86
591.088	616.26
591.538	610.26
591.989	609.86
592.439	610.26
592.89	604.06
593.34	592.56
593.791	596.46
594.241	588.76
594.692	595.06
595.142	578.56
595.593	580.76
596.043	588.06
596.493	591.66
596.943	598.16
597.394	599.66
597.844	580.66
598.294	610.76
598.744	621.36
599.195	641.56
599.645	681.06
600.095	704.96
600.545	748.26
600.995	793.46
601.445	852.46
601.895	899.26
602.345	945.36
602.795	923.56
603.245	880.96
603.695	837.86
604.145	797.46
604.594	762.76
605.044	714.36
605.494	660.86
605.944	627.06
606.393	603.46
606.843	599.36
607.293	593.86
607.743	600.76
608.192	614.76
608.642	612.96
609.091	626.06
609.541	628.96
609.99	626.26
610.44	631.36
610.889	594.06
611.339	567.56
611.788	561.66
612.238	573.86
612.687	590.06
613.136	591.06
613.586	603.46
614.035	600.56
614.484	619.56
614.933	618.96
615.383	614.86
615.832	601.96
616.281	588.06
616.73	556.96
617.179	543.76
617.628	530.86
618.077	515.56
618.526	494.66
618.975	499.56
619.424	502.66
619.873	502.16
620.322	497.86
620.771	488.56
621.22	492.36
621.669	478.66
622.118	474.66
622.567	472.46
623.015	463.76
623.464	461.76
623.913	466.26
624.361	458.96
624.81	450.66
625.259	451.06
625.707	447.96
626.156	448.66
626.604	461.76
627.053	445.16
627.501	454.46
627.95	456.76
628.398	470.16
628.847	460.46
629.295	456.96
629.744	462.86
630.192	454.06
630.64	462.66
631.089	459.46
631.537	465.26
631.985	464.86
632.433	482.06
632.881	488.96
633.33	528.26
633.778	511.36
634.226	448.16
634.674	453.56
635.122	467.16
635.57	479.66
636.018	493.66
636.466	464.96
636.914	446.56
637.362	453.46
637.81	458.56
638.258	462.66
638.705	459.46
639.153	483.06
639.601	493.96
640.049	509.26
640.497	540.06
640.944	556.86
641.392	510.56
641.84	502.06
642.287	472.96
642.735	453.16
643.182	457.36
643.63	463.26
644.078	462.86
644.525	478.96
644.973	479.36
645.42	479.16
645.867	494.86
646.315	499.26
646.762	524.36
647.21	553.46
647.657	568.96
648.104	598.46
648.551	609.66
648.999	656.36
649.446	728.36
649.893	805.06
650.34	912.36
650.787	1087.36
651.234	1346.16
651.682	1752.96
652.129	2398.06
652.576	3433.66
653.023	5100.36
653.47	7068.16
653.917	8981.36
654.363	10542.96
654.81	11883.86
655.257	11298.26
655.704	7333.26
656.151	4253.86
656.598	2743.06
657.044	1969.66
657.491	1512.66
657.938	1189.96
658.385	996.86
658.831	855.26
659.278	770.66
659.724	691.96
660.171	625.06
660.618	568.46
661.064	541.66
661.511	513.76
661.957	509.66
662.404	492.06
662.85	506.16
663.296	490.86
663.743	447.16
664.189	431.56
664.635	422.96
665.082	415.76
665.528	417.76
665.974	411.16
666.42	402.76
666.867	401.86
667.313	384.06
667.759	384.16
668.205	377.06
668.651	391.26
669.097	386.16
669.543	393.46
669.989	374.76
670.435	354.26
670.881	351.76
671.327	353.76
671.773	375.16
672.219	389.26
672.665	432.96
673.11	453.26
673.556	491.56
674.002	524.36
674.448	520.16
674.893	440.46
675.339	374.86
675.785	342.66
676.23	334.56
676.676	313.96
677.122	301.86
677.567	301.56
678.013	295.26
678.458	277.96
678.904	294.36
679.349	277.36
679.794	279.66
680.24	275.66
680.685	271.66
681.131	268.66
681.576	276.36
682.021	283.56
682.466	273.96
682.912	272.16
683.357	265.86
683.802	293.26
684.247	320.76
684.692	349.86
685.137	376.56
685.583	418.26
686.028	451.96
686.473	406.56
686.918	349.86
687.363	333.26
687.807	306.36
688.252	283.96
688.697	275.96
689.142	265.36
689.587	261.46
690.032	251.66
690.477	269.06
690.921	277.26
691.366	301.56
691.811	319.36
692.255	345.96
692.7	367.06
693.145	389.86
693.589	517.16
694.034	856.16
694.478	1205.46
694.923	1397.76
695.367	1845.06
695.812	963.56
696.256	385.06
696.701	297.66
697.145	270.06
697.59	256.66
698.034	248.66
698.478	259.06
698.922	252.86
699.367	255.26
699.811	257.06
700.255	280.36
700.699	293.96
701.143	326.96
701.588	374.46
702.032	409.26
702.476	406.36
702.92	377.26
703.364	380.36
703.808	487.36
704.252	777.46
704.696	1129.36
705.14	1346.26
705.584	1729.56
706.027	847.66
706.471	414.16
706.915	303.36
707.359	275.66
707.803	248.66
708.246	239.26
708.69	244.46
709.134	246.56
709.577	248.36
710.021	242.76
710.465	232.86
710.908	233.56
711.352	233.26
711.795	244.86
712.239	273.66
712.682	294.76
713.126	321.36
713.569	374.26
714.012	290.86
714.456	240.96
714.899	235.86
715.342	217.66
715.786	204.36
716.229	200.36
716.672	198.16
717.115	188.26
717.558	195.56
718.002	191.36
718.445	205.86
718.888	226.16
719.331	234.96
719.774	237.56
720.217	232.86
720.66	214.56
721.103	204.46
721.546	195.46
721.989	188.76
722.432	184.16
722.874	191.76
723.317	180.86
723.76	177.76
724.203	199.86
724.645	243.16
725.088	336.26
725.531	438.76
725.974	513.16
726.416	434.56
726.859	234.46
727.301	185.76
727.744	187.76
728.187	181.96
728.629	188.56
729.071	191.06
729.514	196.06
729.956	205.76
730.399	216.86
730.841	222.06
731.283	212.06
731.726	204.26
732.168	193.56
732.61	205.86
733.053	218.96
733.495	243.36
733.937	267.06
734.379	306.46
734.821	327.96
735.263	411.76
735.705	628.16
736.148	1188.46
736.59	1997.26
737.032	2466.46
737.474	2008.36
737.916	639.56
738.357	326.06
738.799	251.36
739.241	227.26
739.683	220.66
740.125	224.46
740.567	229.56
741.008	246.56
741.45	237.46
741.892	245.56
742.334	268.26
742.775	283.66
743.217	266.26
743.658	209.76
744.1	192.36
744.542	204.76
744.983	247.66
745.425	266.86
745.866	273.36
746.307	231.76
746.749	220.36
747.19	241.56
747.632	345.56
748.073	646.76
748.514	1410.56
748.956	2250.06
749.397	2817.26
749.838	2315.86
750.279	2392.86
750.72	1204.86
751.162	424.56
751.603	250.36
752.044	200.96
752.485	168.26
752.926	161.56
753.367	159.36
753.808	151.06
754.249	146.66
754.69	142.16
755.131	142.16
755.572	137.66
756.013	137.26
756.453	146.16
756.894	144.36
757.335	145.46
757.776	159.56
758.216	148.46
758.657	148.86
759.098	153.06
759.538	178.56
759.979	203.46
760.42	283.96
760.86	520.06
761.301	1362.66
761.741	3419.36
762.182	5327.06
762.622	3724.26
763.063	1053.46
763.503	421.26
763.943	271.16
764.384	262.46
764.824	316.56
765.264	355.96
765.705	237.16
766.145	160.16
766.585	144.26
767.025	142.76
767.465	143.46
767.906	189.96
768.346	255.16
768.786	276.46
769.226	199.46
769.666	240.16
770.106	461.36
770.546	1165.46
770.986	2114.06
771.426	1942.86
771.866	626.26
772.306	254.16
772.745	164.06
773.185	130.56
773.625	128.36
774.065	129.66
774.505	152.86
774.944	230.66
775.384	511.66
775.824	977.36
776.263	977.56
776.703	401.26
777.142	166.66
777.582	118.16
778.021	101.36
778.461	100.66
778.9	105.76
779.34	104.56
779.779	94.36
780.219	80.26
780.658	78.06
781.097	87.16
781.537	91.06
781.976	83.96
782.415	79.66
782.855	80.46
783.294	82.36
783.733	83.06
784.172	78.26
784.611	82.16
785.05	86.56
785.489	84.16
785.928	91.76
786.367	90.56
786.806	86.66
787.245	97.26
787.684	100.66
788.123	121.76
788.562	102.46
789.001	93.86
789.44	89.66
789.879	94.26
790.317	93.66
790.756	105.26
791.195	99.16
791.634	114.16
792.072	155.86
792.511	267.86
792.95	746.76
793.388	1698.66
793.827	1598.16
794.265	534.46
794.704	225.96
795.142	141.36
795.581	115.96
796.019	102.36
796.458	99.56
796.896	91.86
797.334	99.06
797.773	118.56
798.211	168.26
798.649	323.36
799.087	788.76
799.526	1255.26
799.964	1575.56
800.402	1655.96
800.84	600.06
801.278	238.56
801.716	138.76
802.154	116.26
802.592	106.36
803.03	106.06
803.468	100.56
803.906	114.56
804.344	118.16
804.782	115.06
805.22	102.86
805.658	99.96
806.096	116.46
806.533	117.26
806.971	132.86
807.409	165.06
807.847	236.66
808.284	488.26
808.722	1433.36
809.16	2642.76
809.597	2425.26
810.035	4322.06
810.472	4867.16
810.91	1716.96
811.347	626.06
811.785	317.16
812.222	201.16
812.66	155.96
813.097	136.56
813.535	112.26
813.972	102.96
814.409	94.86
814.846	81.76
815.284	90.96
815.721	77.46
816.158	79.46
816.595	86.86
817.032	137.76
817.47	157.66
817.907	139.46
818.344	116.36
818.781	94.76
819.218	76.46
819.655	99.06
820.092	145.86
820.529	169.76
820.966	142.66
821.403	114.66
821.839	84.16
822.276	73.26
822.713	99.56
823.15	110.66
823.587	94.76
824.023	114.96
824.46	223.56
824.897	687.26
825.333	1095.16
825.77	475.36
826.206	181.86
826.643	104.96
827.08	75.26
827.516	66.76
827.953	61.46
828.389	71.06
828.825	59.96
829.262	53.56
829.698	44.66
830.135	51.76
830.571	45.36
831.007	51.66
831.443	57.26
831.88	50.96
832.316	53.06
832.752	46.26
833.188	47.76
833.624	48.76
834.06	50.46
834.497	52.06
834.933	56.66
835.369	61.86
835.805	53.26
836.241	63.26
836.677	62.56
837.112	74.66
837.548	82.76
837.984	97.16
838.42	152.36
838.856	366.76
839.292	1184.66
839.727	1895.96
840.163	880.46
840.599	709.46
841.034	1610.06
841.47	1763.76
841.906	635.96
842.341	255.76
842.777	176.76
843.212	250.16
843.648	251.56
844.083	125.86
844.519	74.66
844.954	58.26
845.39	41.06
845.825	46.56
846.261	40.96
846.696	48.36
847.131	45.66
847.566	43.86
848.002	42.36
848.437	39.86
848.872	45.86
849.307	42.76
849.742	64.16
850.177	138.06
850.613	430.86
851.048	709.06
851.483	302.96
851.918	120.16
852.353	69.06
852.788	47.86
853.223	40.26
853.657	41.46
854.092	43.46
854.527	28.96
854.962	27.36
855.397	34.46
855.832	40.46
856.266	35.46
856.701	29.66
857.136	24.26
857.57	28.16
858.005	40.16
858.44	43.86
858.874	38.26
859.309	41.66
859.743	26.46
860.178	38.96
860.612	35.36
861.047	40.76
861.481	47.46
861.915	53.16
862.35	38.96
862.784	28.66
863.218	31.96
863.653	22.36
864.087	31.06
864.521	41.26
864.955	54.16
865.39	115.66
865.824	143.56
866.258	91.06
866.692	132.16
867.126	150.46
867.56	89.16
867.994	43.36
868.428	30.06
868.862	41.16
869.296	40.46
869.73	47.86
870.164	43.86
870.598	33.66
871.031	31.96
871.465	25.86
871.899	26.96
872.333	18.56
872.766	21.66
873.2	16.56
873.634	23.16
874.067	21.66
874.501	20.76
874.935	25.76
875.368	25.26
875.802	21.76
876.235	17.26
876.669	20.76
877.102	16.86
877.535	22.36
877.969	13.46
878.402	19.56
878.836	12.86
879.269	19.36
879.702	18.96
880.135	18.16
880.569	23.06
881.002	24.16
881.435	17.66
881.868	11.26
882.301	15.56
882.734	4.86
883.167	18.66
883.601	14.06
884.034	17.76
884.467	7.06
884.899	10.86
885.332	15.96
885.765	13.36
886.198	13.96
886.631	17.06
887.064	17.86
887.497	14.76
887.929	18.06
888.362	8.06
888.795	10.86
889.228	15.06
889.66	11.86
890.093	16.96
890.526	13.16
890.958	18.06
891.391	16.76
891.823	20.66
892.256	12.96
892.688	8.56
893.121	10.76
893.553	11.46
893.985	24.36
894.418	14.66
894.85	6.66
895.282	9.86
895.715	16.46
896.147	11.96
896.579	13.46
897.011	9.86
897.444	9.16
897.876	11.46
898.308	13.66
898.74	12.66
899.172	9.26
899.604	22.66
900.036	6.36
900.468	7.06
900.9	10.86
901.332	18.46
901.764	10.06
902.196	16.76
902.628	11.56
903.06	11.86
903.491	27.76
903.923	17.26
904.355	15.36
904.787	18.76
905.218	16.36
905.65	16.46
906.082	10.86
906.513	-0.34
906.945	8.16
907.376	15.96
907.808	14.66
908.239	18.36
908.671	16.26
909.102	15.76
909.534	18.76
909.965	32.66
910.397	63.96
910.828	244.96
911.259	388.96
911.691	171.96
912.122	81.16
912.553	39.46
912.984	23.26
913.415	19.26
913.847	20.36
914.278	11.46
914.709	14.26
915.14	16.56
915.571	15.96
916.002	8.86
916.433	11.46
916.864	16.16
917.295	13.06
917.726	15.56
918.157	10.16
918.587	20.56
919.018	17.96
919.449	14.36
919.88	24.66
920.311	23.46
920.741	39.86
921.172	137.16
921.603	125.96
922.033	48.46
922.464	38.76
922.895	22.86
923.325	18.86
923.756	11.46
924.186	11.66
924.617	25.36
925.047	32.96
925.478	41.26
925.908	37.26
926.338	16.46
926.769	14.06
927.199	15.66
927.629	6.96
928.06	12.06
928.49	6.96
928.92	15.96
929.35	6.76
929.78	13.86
930.21	2.46
930.641	7.16
931.071	10.36
931.501	0.46
931.931	9.06
932.361	6.06
932.791	-1.14
933.221	3.66
933.651	3.66
934.08	11.86
934.51	28.26
934.94	6.86
935.37	8.76
935.8	5.66
936.229	8.56
936.659	8.66
937.089	-3.14
937.519	13.66
937.948	16.76
938.378	15.46
938.807	0.96
939.237	0.96
939.666	4.16
940.096	-5.44
940.525	-2.54
940.955	3.26
941.384	4.26
941.814	-0.74
942.243	-2.54
942.672	2.76
943.102	2.56
943.531	4.36
943.96	5.76
944.39	1.76
944.819	-6.54
945.248	5.46
945.677	3.26
946.106	8.36
946.535	-2.14
946.964	-5.34
947.393	-3.54
947.822	1.96
948.251	-3.94
948.68	3.36
949.109	2.86
949.538	1.86
949.967	1.46
950.396	0.66
950.825	-1.64
951.254	-3.34
951.682	-6.64
952.111	-2.64
952.54	4.36
952.969	-7.04
953.397	-5.44
953.826	1.36
954.254	-6.24
954.683	-1.04
955.112	-4.24
955.54	-2.84
955.969	0.96
956.397	-4.14
956.826	-0.94
957.254	2.16
957.682	1.56
958.111	4.46
958.539	0.26
958.967	2.66
959.396	5.06
959.824	1.36
960.252	-0.44
960.68	-3.24
961.109	-6.44
961.537	-7.34
961.965	1.76
962.393	1.86
962.821	-1.34
963.249	-1.54
963.677	2.16
964.105	2.06
964.533	36.46
964.961	30.66
965.389	19.86
965.817	9.66
966.245	1.26
966.672	-3.14
967.1	-12.24
967.528	-2.64
967.956	4.16
968.383	4.66
968.811	1.86
969.239	-3.74
969.666	-5.24
970.094	1.56
970.522	0.46
970.949	-0.34
971.377	-6.34
971.804	-0.44
972.232	-1.74
972.659	2.06
973.087	-5.34
973.514	-1.74
973.941	-2.34
974.369	4.56
974.796	-4.74
975.223	-2.74
975.651	-3.84
976.078	1.66
976.505	3.86
976.932	-2.34
977.359	7.96
977.786	8.46
978.214	1.86
978.641	-3.14
979.068	-0.34
979.495	-2.04
979.922	0.46
980.349	-4.44
980.776	2.16
981.202	-4.74
981.629	1.26
982.056	4.96
982.483	1.56
982.91	5.26
983.337	-10.64
983.763	0.56
984.19	-8.14
984.617	-4.44
985.043	-3.84
985.47	-1.24
985.897	-1.04
986.323	-10.54
986.75	3.26
987.176	0.16
987.603	-1.14
988.029	-4.74
988.456	-2.04
988.882	2.36
989.308	-5.54
989.735	-4.14
990.161	-4.04
990.587	-3.94
991.014	4.26
991.44	4.66
991.866	1.36
992.292	-5.44
992.719	-5.04
993.145	1.46
993.571	-6.14
993.997	-4.04
994.423	-1.94
994.849	-5.34
995.275	-2.04
995.701	0.86
996.127	-3.14
996.553	5.26
996.979	-0.84
997.405	1.06
997.83	-7.34
998.256	-2.84
998.682	-7.94
999.108	-4.64
999.534	-6.84
999.959	-9.04
1000.385	-7.54
1000.811	-3.04
1001.236	-6.24
1001.662	-2.04
1002.087	-10.64
1002.513	-3.64
1002.938	-1.44
1003.364	0.36
1003.789	-1.34
1004.215	2.36
1004.64	-2.34
1005.066	1.46
1005.491	0.66
1005.916	-0.84
1006.342	-2.74
1006.767	-7.84
1007.192	6.16
1007.617	-4.14
1008.042	-0.04
1008.468	-9.54
1008.893	-3.24
1009.318	-4.44
1009.743	3.16
1010.168	-0.44
1010.593	-1.64
1011.018	-9.34
1011.443	-2.54
1011.868	-0.14
1012.293	-5.44
1012.718	-9.74
1013.143	0.56
1013.567	4.96
1013.992	-0.24
1014.417	-9.44
1014.842	-1.54
1015.267	-4.34
1015.691	3.06
1016.116	0.76
1016.541	0.06
1016.965	0.56
1017.39	-4.24
1017.814	-5.04
1018.239	-4.64
1018.663	-5.04
1019.088	-11.04
1019.512	-5.24
1019.937	-5.44
1020.361	-2.14
1020.785	-6.34
1021.21	1.86
1021.634	1.16
1022.058	-1.04
1022.483	6.86
1022.907	-7.84
1023.331	-5.14
1023.755	-7.94
1024.179	-2.74
1024.604	-10.24
1025.028	-5.84
1025.452	-4.94
1025.876	-0.44
1026.3	4.86
1026.724	-5.54
1027.148	1.16
1027.572	-7.04
1027.996	-3.44
1028.42	2.26
1028.843	-2.74
1029.267	-7.54
1029.691	-1.64
1030.115	-0.34
1030.539	-5.44
1030.962	-2.24
1031.386	-9.24
1031.81	-0.14
1032.233	-1.24
1032.657	-4.84
1033.08	3.16
1033.504	-7.14
1033.927	-2.14
1034.351	-9.34
1034.774	-6.74
1035.198	-4.04
1035.621	-6.64
1036.045	-3.54
1036.468	4.96
1036.891	-13.54
1037.315	-10.74
1037.738	-4.94
1038.161	3.86
1038.584	-4.04
1039.008	-2.64
1039.431	-0.24
1039.854	-2.84
1040.277	-4.54
1040.7	-4.84
1041.123	0.56
1041.546	-6.84
1041.969	0.96
1042.392	-0.64
1042.815	-3.94
1043.238	2.76
1043.661	5.26
1044.084	-4.14
1044.507	-9.84
1044.93	-3.54
1045.352	-8.64
1045.775	-2.54
1046.198	-5.34
1046.621	-3.94
1047.043	-0.14
1047.466	1.56
1047.889	-3.04
1048.311	-8.04
1048.734	-0.94
1049.156	-1.14
1049.579	-2.94
1050.001	-0.44
1050.424	-1.94
1050.846	-3.24
1051.269	-5.74
1051.691	-1.84
1052.113	-0.94
1052.536	0.96
1052.958	-5.14
1053.38	-6.04
1053.802	-3.04
1054.225	-2.84
1054.647	-6.44
1055.069	-4.64
1055.491	-1.84
1055.913	-8.04
1056.335	1.56
1056.757	3.06
1057.179	-3.64
1057.601	-8.24
1058.023	2.06
1058.445	-6.54
1058.867	-6.74
1059.289	-1.94
1059.711	-10.94
1060.133	-4.34
1060.555	-5.04
1060.976	-5.74
1061.398	-8.14
1061.82	-5.54
1062.241	-6.94
1062.663	-7.94
1063.085	-8.74
1063.506	1.26
1063.928	-3.74
1064.35	-6.74
1064.771	-11.64
1065.193	-4.14
1065.614	-2.94
1066.035	1.26
1066.457	-2.94
1066.878	0.46
1067.3	-3.84
1067.721	-6.34
1068.142	1.76
1068.564	-8.74
1068.985	-4.44
1069.406	-6.64
1069.827	-4.14
1070.248	-7.84
1070.67	-7.34
1071.091	-5.74
1071.512	-5.74
1071.933	-5.14
1072.354	-7.04
1072.775	-8.24
1073.196	-10.84
1073.617	0.36
1074.038	-7.44
1074.459	-3.94
1074.88	-11.94
1075.3	4.06
1075.721	-7.24
1076.142	1.76
1076.563	-3.74
1076.983	-13.14
1077.404	-12.44
1077.825	-11.54
1078.246	-0.94
1078.666	-6.04
1079.087	-0.04
1079.507	-9.04
1079.928	-1.84
1080.348	-1.44
1080.769	-2.34
1081.189	-1.44
1081.61	-8.44
1082.03	2.06
1082.451	-7.94
1082.871	-4.84
1083.291	-5.94
1083.711	-4.64
1084.132	-5.64
1084.552	-2.94
1084.972	-1.44
1085.392	-4.84
1085.813	-2.94
1086.233	-7.64
1086.653	-0.64
1087.073	-0.64
1087.493	-7.04
1087.913	-4.84
1088.333	1.86
1088.753	-1.84
1089.173	3.26
1089.593	-4.54
1090.013	2.66
1090.433	4.76
1090.852	-4.84
1091.272	1.56
1091.692	-1.74
1092.112	-0.34
1092.531	-10.34
1092.951	-14.74
1093.371	2.16
1093.79	3.86
1094.21	-0.54
1094.63	-10.74
1095.049	-6.74
1095.469	-2.74
1095.888	-1.54
1096.308	-2.44
1096.727	8.36
1097.146	-2.34
1097.566	-1.84
1097.985	-4.14
1098.405	2.06
1098.824	-3.04
1099.243	-2.24
1099.662	-5.34
1100.082	-5.64
1100.501	1.06
1100.92	-2.74
1101.339	-2.14
1101.758	-6.74
