Data from 20171114-ORNL-Ar_H_NY_Subt18_08-03-42-681.txt Node
Date: Tue Nov 14 08:03:42 EST 2017
User: Ender
Spectrometer: HR+D1039
Trigger mode: 0
Integration Time (sec): 2.730000E-2
Scans to average: 10
Electric dark correction enabled: true
Nonlinearity correction enabled: false
Boxcar width: 0
XAxis mode: Wavelengths
Number of Pixels in Spectrum: 2048
>>>>>Begin Spectral Data<<<<<
187.836	-5.64
188.309	-5.64
188.782	-5.64
189.255	-1.84
189.728	-0.84
190.201	8.36
190.674	1.36
191.147	4.76
191.619	-8.04
192.092	1.06
192.565	5.26
193.038	-3.34
193.511	2.16
193.984	-1.84
194.456	0.96
194.929	-1.14
195.402	-0.34
195.874	-0.84
196.347	-0.94
196.82	0.76
197.292	6.86
197.765	1.96
198.237	-5.44
198.71	2.36
199.182	-0.94
199.655	4.26
200.127	7.56
200.6	-5.54
201.072	0.36
201.544	-0.44
202.017	-3.54
202.489	4.06
202.961	-0.04
203.433	-0.64
203.906	-7.94
204.378	-9.34
204.85	-0.84
205.322	-8.84
205.794	-2.94
206.266	-7.94
206.739	-2.64
207.211	-1.34
207.683	-8.54
208.155	-3.74
208.627	-8.04
209.099	-3.04
209.57	-9.14
210.042	-5.94
210.514	-5.54
210.986	-3.04
211.458	-3.84
211.93	-1.54
212.402	-0.44
212.873	-7.84
213.345	-10.94
213.817	-15.24
214.288	-5.64
214.76	-7.04
215.232	-2.54
215.703	-4.44
216.175	-4.04
216.646	-4.34
217.118	-8.74
217.589	-3.94
218.061	0.06
218.532	-4.14
219.004	-1.84
219.475	-0.24
219.946	-7.64
220.418	-7.04
220.889	5.16
221.36	3.56
221.832	-3.04
222.303	-6.44
222.774	0.46
223.245	-3.74
223.717	-1.54
224.188	-5.54
224.659	-6.64
225.13	-0.54
225.601	-0.94
226.072	0.76
226.543	-0.74
227.014	0.56
227.485	-9.54
227.956	-6.24
228.427	1.26
228.898	2.16
229.369	2.06
229.839	-4.54
230.31	-7.64
230.781	5.26
231.252	-2.94
231.722	-4.54
232.193	1.86
232.664	-5.24
233.135	-1.54
233.605	-1.04
234.076	-11.24
234.546	-2.54
235.017	1.96
235.487	1.76
235.958	-3.44
236.428	-3.54
236.899	2.26
237.369	2.06
237.84	-5.74
238.31	-1.34
238.78	-1.54
239.251	-8.14
239.721	-3.64
240.191	-1.04
240.662	-0.54
241.132	0.06
241.602	-4.04
242.072	-2.24
242.542	-1.14
243.013	-5.94
243.483	-1.24
243.953	1.26
244.423	1.56
244.893	-2.44
245.363	3.46
245.833	5.26
246.303	-2.64
246.773	5.06
247.243	-0.04
247.712	-3.64
248.182	-0.94
248.652	-0.84
249.122	-7.14
249.592	-4.24
250.061	-0.34
250.531	4.06
251.001	-1.84
251.471	-0.74
251.94	6.96
252.41	3.86
252.879	-5.24
253.349	5.26
253.818	1.36
254.288	-0.84
254.757	-2.44
255.227	-3.24
255.696	-2.54
256.166	6.16
256.635	2.96
257.105	2.16
257.574	2.56
258.043	0.26
258.513	-2.64
258.982	-0.44
259.451	-8.04
259.92	-2.64
260.389	-1.84
260.859	7.06
261.328	-0.94
261.797	7.66
262.266	-1.34
262.735	4.26
263.204	3.66
263.673	-4.64
264.142	1.36
264.611	-5.54
265.08	-5.44
265.549	-7.14
266.018	-3.64
266.487	-4.54
266.955	-6.54
267.424	-6.74
267.893	3.56
268.362	-8.04
268.83	3.56
269.299	2.56
269.768	3.76
270.236	-1.24
270.705	-4.04
271.174	1.66
271.642	1.96
272.111	3.36
272.579	1.06
273.048	-1.04
273.516	-1.24
273.985	0.06
274.453	2.86
274.922	6.96
275.39	-1.94
275.858	-2.34
276.327	6.06
276.795	12.36
277.263	2.96
277.731	11.16
278.2	-0.84
278.668	-0.74
279.136	6.86
279.604	0.36
280.072	3.56
280.54	5.56
281.008	5.16
281.477	12.16
281.945	6.36
282.413	4.86
282.881	6.06
283.348	0.56
283.816	9.16
284.284	8.86
284.752	17.86
285.22	6.96
285.688	6.36
286.156	3.96
286.623	10.96
287.091	2.36
287.559	7.96
288.026	11.86
288.494	0.16
288.962	-2.94
289.429	2.06
289.897	16.76
290.364	7.36
290.832	12.86
291.3	5.36
291.767	13.06
292.234	9.06
292.702	4.76
293.169	9.66
293.637	11.96
294.104	20.36
294.571	2.46
295.039	8.76
295.506	3.16
295.973	13.66
296.44	10.76
296.908	9.46
297.375	13.46
297.842	8.36
298.309	12.26
298.776	10.06
299.243	13.86
299.71	2.36
300.177	15.76
300.644	16.06
301.111	13.76
301.578	16.56
302.045	2.46
302.512	14.76
302.979	12.86
303.446	16.16
303.913	7.56
304.379	8.76
304.846	25.36
305.313	18.36
305.78	11.36
306.246	15.26
306.713	13.86
307.18	23.66
307.646	14.46
308.113	17.76
308.579	21.76
309.046	22.96
309.512	22.76
309.979	15.06
310.445	21.26
310.912	19.26
311.378	25.26
311.845	19.76
312.311	24.16
312.777	27.36
313.244	23.96
313.71	24.06
314.176	21.86
314.642	21.96
315.109	23.46
315.575	28.56
316.041	27.76
316.507	19.96
316.973	24.76
317.439	26.56
317.905	27.66
318.371	28.86
318.837	27.56
319.303	29.26
319.769	25.56
320.235	32.16
320.701	30.86
321.167	33.26
321.633	28.36
322.099	36.96
322.564	34.46
323.03	28.26
323.496	32.86
323.962	35.96
324.427	32.66
324.893	33.46
325.359	30.16
325.824	30.86
326.29	32.66
326.755	33.56
327.221	31.06
327.686	30.16
328.152	40.36
328.617	33.06
329.083	44.46
329.548	38.76
330.014	42.26
330.479	37.86
330.944	37.06
331.41	35.96
331.875	44.76
332.34	35.76
332.805	35.66
333.271	40.46
333.736	34.66
334.201	46.96
334.666	39.96
335.131	49.56
335.596	47.56
336.061	41.86
336.526	33.06
336.991	41.56
337.456	48.76
337.921	46.26
338.386	41.26
338.851	44.06
339.316	43.86
339.781	42.96
340.246	45.86
340.711	45.96
341.175	47.96
341.64	45.86
342.105	44.96
342.569	50.46
343.034	57.26
343.499	51.46
343.963	52.76
344.428	60.06
344.893	55.66
345.357	54.96
345.822	55.36
346.286	60.06
346.751	61.16
347.215	57.96
347.679	60.46
348.144	80.86
348.608	70.16
349.073	63.16
349.537	72.06
350.001	78.36
350.465	80.36
350.93	80.56
351.394	79.06
351.858	74.06
352.322	87.06
352.786	80.36
353.25	88.36
353.715	98.66
354.179	89.76
354.643	108.86
355.107	104.06
355.571	92.86
356.035	90.96
356.498	103.56
356.962	95.36
357.426	113.26
357.89	103.26
358.354	89.76
358.818	84.86
359.281	81.96
359.745	77.66
360.209	68.36
360.673	75.26
361.136	79.86
361.6	86.56
362.064	82.76
362.527	90.26
362.991	94.06
363.454	81.26
363.918	80.96
364.381	79.16
364.845	81.46
365.308	83.36
365.772	89.16
366.235	88.06
366.698	85.76
367.162	82.56
367.625	87.56
368.088	93.46
368.552	89.66
369.015	89.96
369.478	97.26
369.941	99.36
370.404	93.26
370.867	97.56
371.331	100.96
371.794	108.26
372.257	98.26
372.72	108.56
373.183	111.16
373.646	97.16
374.109	101.36
374.572	108.86
375.035	104.76
375.497	109.56
375.96	112.76
376.423	115.76
376.886	118.16
377.349	114.16
377.811	109.06
378.274	111.06
378.737	114.96
379.199	114.46
379.662	109.96
380.125	121.46
380.587	114.46
381.05	119.06
381.512	114.26
381.975	131.76
382.437	120.26
382.9	123.86
383.362	125.06
383.825	136.76
384.287	134.76
384.75	125.76
385.212	125.36
385.674	146.46
386.136	138.56
386.599	124.16
387.061	133.16
387.523	125.66
387.985	133.96
388.447	140.66
388.91	135.96
389.372	136.06
389.834	131.86
390.296	134.56
390.758	140.46
391.22	140.26
391.682	152.36
392.144	156.96
392.606	152.86
393.068	154.26
393.529	165.26
393.991	148.36
394.453	149.76
394.915	142.76
395.377	150.96
395.838	147.76
396.3	144.96
396.762	160.16
397.224	153.96
397.685	142.76
398.147	143.86
398.608	144.76
399.07	142.96
399.531	152.26
399.993	165.96
400.454	175.66
400.916	167.06
401.377	159.66
401.839	169.26
402.3	167.66
402.762	192.06
403.223	192.86
403.684	182.66
404.145	187.06
404.607	175.76
405.068	185.46
405.529	187.36
405.99	187.76
406.451	192.16
406.913	188.46
407.374	188.56
407.835	177.56
408.296	188.56
408.757	188.66
409.218	205.86
409.679	202.36
410.14	194.26
410.601	192.86
411.062	198.26
411.522	197.46
411.983	198.46
412.444	196.06
412.905	201.66
413.366	208.26
413.826	215.96
414.287	246.46
414.748	292.46
415.208	281.16
415.669	237.26
416.13	236.86
416.59	227.26
417.051	244.76
417.511	253.76
417.972	274.26
418.432	289.96
418.893	337.46
419.353	293.86
419.814	227.26
420.274	217.56
420.734	203.26
421.195	218.66
421.655	215.66
422.115	219.46
422.576	222.46
423.036	224.56
423.496	237.26
423.956	242.16
424.416	251.76
424.876	301.36
425.336	285.96
425.797	293.16
426.257	278.96
426.717	259.86
427.177	248.66
427.637	252.86
428.097	251.56
428.556	266.46
429.016	295.06
429.476	283.96
429.936	292.46
430.396	295.26
430.856	313.66
431.315	339.56
431.775	359.06
432.235	391.06
432.694	372.46
433.154	373.86
433.614	395.56
434.073	358.36
434.533	297.56
434.993	287.66
435.452	295.76
435.912	303.96
436.371	293.86
436.83	289.86
437.29	277.16
437.749	267.56
438.209	270.56
438.668	287.96
439.127	297.06
439.587	271.96
440.046	254.76
440.505	276.56
440.964	281.96
441.424	328.76
441.883	311.66
442.342	274.76
442.801	250.26
443.26	241.26
443.719	243.86
444.178	238.26
444.637	236.46
445.096	245.26
445.555	250.36
446.014	252.56
446.473	254.66
446.932	258.96
447.391	249.86
447.849	250.26
448.308	241.06
448.767	242.46
449.226	258.86
449.685	262.96
450.143	278.26
450.602	263.26
451.061	254.36
451.519	256.36
451.978	252.16
452.436	245.66
452.895	248.36
453.353	271.76
453.812	254.46
454.27	255.46
454.729	257.26
455.187	255.66
455.646	261.46
456.104	267.16
456.562	270.46
457.021	277.86
457.479	274.86
457.937	279.16
458.395	282.26
458.854	270.16
459.312	269.06
459.77	286.76
460.228	273.16
460.686	273.26
461.144	271.36
461.602	276.46
462.06	269.56
462.518	273.06
462.976	272.76
463.434	277.96
463.892	282.36
464.35	293.36
464.808	302.66
465.266	286.26
465.724	289.76
466.181	290.26
466.639	290.26
467.097	310.46
467.555	318.86
468.012	323.26
468.47	324.76
468.928	343.86
469.385	348.36
469.843	362.76
470.3	360.96
470.758	366.16
471.215	385.86
471.673	404.66
472.13	408.46
472.588	416.66
473.045	396.26
473.503	400.06
473.96	410.86
474.417	411.96
474.875	447.16
475.332	474.86
475.789	468.16
476.246	467.76
476.704	487.86
477.161	505.06
477.618	524.86
478.075	561.66
478.532	605.96
478.989	665.16
479.446	754.06
479.903	737.16
480.36	772.96
480.817	814.86
481.274	907.66
481.731	974.06
482.188	1051.16
482.645	1170.36
483.102	1263.16
483.558	1368.66
484.015	1428.56
484.472	1393.46
484.929	1367.16
485.385	1322.96
485.842	1298.16
486.299	1265.56
486.755	1190.56
487.212	1040.96
487.668	909.26
488.125	845.66
488.582	767.66
489.038	738.96
489.494	704.16
489.951	675.46
490.407	666.66
490.864	651.26
491.32	643.06
491.776	638.96
492.233	641.96
492.689	632.46
493.145	614.86
493.602	597.46
494.058	608.76
494.514	603.76
494.97	621.66
495.426	624.56
495.882	605.06
496.338	595.66
496.794	605.36
497.251	590.66
497.707	608.46
498.163	617.76
498.618	607.36
499.074	616.16
499.53	631.46
499.986	638.66
500.442	617.36
500.898	598.66
501.354	603.56
501.809	604.06
502.265	608.26
502.721	616.16
503.177	615.76
503.632	619.16
504.088	625.26
504.543	647.26
504.999	653.26
505.455	631.56
505.91	623.56
506.366	615.16
506.821	620.26
507.277	605.46
507.732	616.46
508.187	608.36
508.643	626.06
509.098	625.26
509.553	636.26
510.009	648.36
510.464	653.06
510.919	658.06
511.375	671.06
511.83	680.56
512.285	689.56
512.74	706.16
513.195	730.46
513.65	714.96
514.105	711.36
514.56	716.96
515.015	728.26
515.47	743.36
515.925	732.76
516.38	741.56
516.835	740.66
517.29	723.36
517.745	734.16
518.2	724.26
518.655	714.36
519.109	698.96
519.564	693.46
520.019	681.96
520.474	669.76
520.928	671.36
521.383	666.76
521.838	667.56
522.292	667.16
522.747	665.96
523.201	666.56
523.656	659.96
524.11	659.36
524.565	654.56
525.019	640.96
525.474	643.86
525.928	655.16
526.382	645.46
526.837	644.76
527.291	651.36
527.745	638.26
528.2	642.66
528.654	636.06
529.108	640.56
529.562	640.66
530.016	642.56
530.47	633.46
530.925	625.46
531.379	638.76
531.833	649.56
532.287	633.56
532.741	632.76
533.195	628.16
533.649	642.76
534.103	650.66
534.556	630.46
535.01	640.86
535.464	636.36
535.918	646.06
536.372	638.16
536.826	644.76
537.279	636.16
537.733	635.16
538.187	631.56
538.64	635.36
539.094	642.56
539.548	656.96
540.001	647.86
540.455	645.56
540.908	642.66
541.362	657.16
541.815	667.86
542.269	682.36
542.722	676.66
543.175	682.76
543.629	687.86
544.082	696.66
544.536	708.06
544.989	708.16
545.442	715.26
545.895	701.36
546.349	706.96
546.802	693.96
547.255	703.06
547.708	704.76
548.161	711.86
548.614	718.76
549.067	725.26
549.52	713.56
549.973	703.56
550.426	704.26
550.879	695.26
551.332	696.36
551.785	702.66
552.238	704.76
552.691	710.56
553.144	729.86
553.596	725.66
554.049	729.76
554.502	769.06
554.955	779.46
555.407	772.06
555.86	770.26
556.313	767.36
556.765	748.76
557.218	744.46
557.67	752.76
558.123	736.56
558.576	752.46
559.028	738.16
559.48	749.16
559.933	753.66
560.385	719.56
560.838	700.86
561.29	675.96
561.742	685.66
562.195	659.76
562.647	662.16
563.099	669.76
563.551	656.56
564.004	668.16
564.456	652.16
564.908	652.86
565.36	633.96
565.812	616.96
566.264	616.46
566.716	614.36
567.168	591.46
567.62	598.46
568.072	593.36
568.524	583.66
568.976	587.36
569.428	573.56
569.88	567.26
570.332	581.76
570.784	572.06
571.235	574.16
571.687	578.56
572.139	586.06
572.59	586.96
573.042	587.66
573.494	593.96
573.945	586.46
574.397	567.76
574.849	557.96
575.3	566.86
575.752	559.76
576.203	548.26
576.655	560.96
577.106	554.36
577.557	547.76
578.009	549.26
578.46	545.26
578.912	538.96
579.363	541.06
579.814	538.26
580.265	539.16
580.717	542.86
581.168	550.36
581.619	548.96
582.07	553.46
582.521	547.36
582.972	536.86
583.423	540.46
583.875	543.26
584.326	541.26
584.777	553.76
585.227	574.16
585.678	583.26
586.129	599.16
586.58	608.46
587.031	638.26
587.482	656.26
587.933	671.46
588.384	646.76
588.834	624.36
589.285	619.16
589.736	621.56
590.186	616.96
590.637	609.76
591.088	602.26
591.538	597.66
591.989	586.56
592.439	576.16
592.89	577.56
593.34	561.76
593.791	549.66
594.241	542.86
594.692	543.66
595.142	552.96
595.593	546.96
596.043	555.56
596.493	548.46
596.943	553.16
597.394	562.16
597.844	565.66
598.294	577.26
598.744	598.76
599.195	610.76
599.645	637.36
600.095	664.36
600.545	710.86
600.995	754.66
601.445	789.76
601.895	830.66
602.345	872.46
602.795	862.16
603.245	832.06
603.695	788.66
604.145	749.06
604.594	715.76
605.044	669.96
605.494	626.86
605.944	584.26
606.393	580.46
606.843	565.16
607.293	562.86
607.743	562.86
608.192	570.96
608.642	575.26
609.091	573.66
609.541	571.66
609.99	584.06
610.44	568.46
610.889	537.96
611.339	536.36
611.788	520.56
612.238	530.26
612.687	541.36
613.136	529.86
613.586	542.56
614.035	535.16
614.484	536.56
614.933	546.46
615.383	543.16
615.832	533.46
616.281	530.96
616.73	520.36
617.179	505.96
617.628	477.36
618.077	481.46
618.526	471.96
618.975	472.56
619.424	470.06
619.873	464.76
620.322	464.26
620.771	453.06
621.22	461.46
621.669	441.26
622.118	454.36
622.567	427.26
623.015	429.66
623.464	424.06
623.913	428.76
624.361	413.86
624.81	415.36
625.259	408.86
625.707	422.96
626.156	418.76
626.604	428.16
627.053	423.16
627.501	417.16
627.95	422.16
628.398	435.36
628.847	425.06
629.295	422.06
629.744	428.16
630.192	429.36
630.64	420.76
631.089	403.16
631.537	396.96
631.985	393.06
632.433	394.56
632.881	391.46
633.33	399.16
633.778	389.36
634.226	388.96
634.674	394.26
635.122	393.56
635.57	412.26
636.018	409.96
636.466	414.56
636.914	411.06
637.362	428.26
637.81	426.56
638.258	431.96
638.705	423.56
639.153	446.16
639.601	445.66
640.049	467.96
640.497	490.16
640.944	516.16
641.392	483.06
641.84	464.06
642.287	433.66
642.735	412.96
643.182	417.76
643.63	413.96
644.078	429.36
644.525	428.96
644.973	441.86
645.42	433.96
645.867	452.56
646.315	461.36
646.762	485.26
647.21	497.16
647.657	515.46
648.104	544.46
648.551	547.76
648.999	585.66
649.446	628.16
649.893	693.76
650.34	777.46
650.787	924.46
651.234	1127.96
651.682	1422.16
652.129	1904.26
652.576	2666.76
653.023	3895.56
653.47	5370.46
653.917	6802.76
654.363	7949.06
654.81	8984.66
655.257	8570.26
655.704	5684.16
656.151	3415.16
656.598	2247.86
657.044	1605.26
657.491	1242.26
657.938	999.36
658.385	846.96
658.831	741.26
659.278	672.76
659.724	594.86
660.171	546.76
660.618	491.06
661.064	477.86
661.511	454.96
661.957	452.46
662.404	441.96
662.85	443.56
663.296	425.86
663.743	402.56
664.189	394.26
664.635	387.86
665.082	377.16
665.528	375.96
665.974	369.46
666.42	362.36
666.867	360.76
667.313	339.06
667.759	328.16
668.205	327.06
668.651	323.96
669.097	320.86
669.543	324.86
669.989	319.56
670.435	323.56
670.881	328.76
671.327	319.86
671.773	342.56
672.219	359.66
672.665	393.06
673.11	414.16
673.556	457.96
674.002	480.06
674.448	478.16
674.893	398.86
675.339	348.26
675.785	319.26
676.23	304.86
676.676	281.96
677.122	272.96
677.567	267.06
678.013	275.76
678.458	263.26
678.904	263.66
679.349	249.36
679.794	259.36
680.24	252.26
680.685	239.56
681.131	245.36
681.576	247.36
682.021	263.36
682.466	247.86
682.912	247.06
683.357	246.36
683.802	276.56
684.247	287.46
684.692	316.26
685.137	341.76
685.583	377.26
686.028	403.56
686.473	369.96
686.918	321.46
687.363	303.46
687.807	277.86
688.252	261.06
688.697	254.36
689.142	234.16
689.587	231.66
690.032	231.56
690.477	241.76
690.921	245.96
691.366	271.66
691.811	284.26
692.255	316.86
692.7	325.96
693.145	348.56
693.589	474.96
694.034	766.86
694.478	1065.26
694.923	1261.76
695.367	1675.56
695.812	883.96
696.256	365.36
696.701	262.96
697.145	245.46
697.59	232.06
698.034	230.96
698.478	233.46
698.922	229.36
699.367	225.86
699.811	236.76
700.255	246.56
700.699	269.96
701.143	297.56
701.588	324.16
702.032	366.66
702.476	360.96
702.92	353.26
703.364	349.06
703.808	430.86
704.252	702.76
704.696	1010.56
705.14	1219.36
705.584	1559.46
706.027	773.26
706.471	378.96
706.915	285.36
707.359	257.36
707.803	226.56
708.246	218.96
708.69	222.96
709.134	223.76
709.577	215.46
710.021	225.96
710.465	214.66
710.908	215.06
711.352	210.06
711.795	219.36
712.239	246.96
712.682	265.46
713.126	284.26
713.569	321.66
714.012	250.46
714.456	214.36
714.899	209.26
715.342	194.46
715.786	190.26
716.229	175.96
716.672	179.86
717.115	177.66
717.558	170.36
718.002	176.56
718.445	182.56
718.888	200.26
719.331	205.56
719.774	218.56
720.217	211.76
720.66	200.06
721.103	189.76
721.546	175.96
721.989	181.36
722.432	152.66
722.874	170.36
723.317	157.16
723.76	163.66
724.203	173.36
724.645	217.56
725.088	299.66
725.531	393.46
725.974	459.76
726.416	401.76
726.859	217.46
727.301	175.96
727.744	169.86
728.187	164.66
728.629	168.96
729.071	168.46
729.514	184.36
729.956	187.96
730.399	190.06
730.841	202.16
731.283	183.06
731.726	192.16
732.168	182.46
732.61	186.46
733.053	196.06
733.495	211.76
733.937	239.76
734.379	278.26
734.821	309.86
735.263	371.86
735.705	557.96
736.148	1050.16
736.59	1793.56
737.032	2250.36
737.474	1848.76
737.916	600.16
738.357	309.06
738.799	235.56
739.241	211.26
739.683	197.36
740.125	208.96
740.567	213.16
741.008	237.46
741.45	229.76
741.892	229.96
742.334	256.26
742.775	272.16
743.217	271.06
743.658	195.66
744.1	184.46
744.542	185.56
744.983	247.06
745.425	278.36
745.866	279.96
746.307	201.56
746.749	199.76
747.19	221.26
747.632	306.86
748.073	577.86
748.514	1232.76
748.956	2014.26
749.397	2528.26
749.838	2099.96
750.279	2190.66
750.72	1114.36
751.162	401.06
751.603	227.16
752.044	177.76
752.485	150.66
752.926	145.46
753.367	145.06
753.808	136.86
754.249	137.96
754.69	130.16
755.131	123.56
755.572	124.06
756.013	125.66
756.453	129.36
756.894	134.86
757.335	136.36
757.776	136.56
758.216	139.06
758.657	139.46
759.098	141.66
759.538	155.86
759.979	182.06
760.42	260.26
760.86	470.56
761.301	1219.26
761.741	3062.76
762.182	4841.56
762.622	3467.86
763.063	980.46
763.503	396.36
763.943	231.76
764.384	193.36
764.824	175.26
765.264	172.36
765.705	142.36
766.145	127.96
766.585	118.96
767.025	117.56
767.465	108.86
767.906	124.76
768.346	138.66
768.786	139.56
769.226	147.36
769.666	202.76
770.106	404.46
770.546	1032.76
770.986	1894.46
771.426	1752.36
771.866	579.16
772.306	233.26
772.745	145.46
773.185	111.56
773.625	116.16
774.065	108.06
774.505	114.06
774.944	157.46
775.384	279.66
775.824	505.66
776.263	517.26
776.703	232.86
777.142	119.26
777.582	93.36
778.021	87.16
778.461	87.56
778.9	90.16
779.34	88.86
779.779	79.76
780.219	75.36
780.658	65.06
781.097	73.06
781.537	76.86
781.976	68.06
782.415	71.66
782.855	72.36
783.294	70.66
783.733	74.56
784.172	73.26
784.611	68.56
785.05	72.46
785.489	78.96
785.928	82.06
786.367	90.06
786.806	83.56
787.245	85.26
787.684	91.46
788.123	105.96
788.562	85.06
789.001	85.76
789.44	81.26
789.879	82.16
790.317	78.86
790.756	96.36
791.195	86.16
791.634	96.46
792.072	137.36
792.511	237.56
792.95	662.96
793.388	1517.66
793.827	1440.46
794.265	487.46
794.704	195.36
795.142	127.76
795.581	110.36
796.019	99.76
796.458	92.46
796.896	84.26
797.334	87.26
797.773	106.66
798.211	153.26
798.649	282.96
799.087	691.26
799.526	1120.76
799.964	1407.76
800.402	1509.66
800.84	556.36
801.278	214.46
801.716	127.96
802.154	105.86
802.592	103.96
803.03	99.36
803.468	89.76
803.906	102.56
804.344	108.96
804.782	102.56
805.22	89.06
805.658	88.56
806.096	99.56
806.533	109.86
806.971	125.46
807.409	151.16
807.847	216.36
808.284	447.06
808.722	1275.96
809.16	2396.66
809.597	2211.96
810.035	3925.46
810.472	4524.36
810.91	1612.86
811.347	600.66
811.785	293.86
812.222	185.86
812.66	140.86
813.097	116.96
813.535	106.76
813.972	87.36
814.409	87.56
814.846	78.86
815.284	86.46
815.721	67.76
816.158	71.66
816.595	80.66
817.032	122.56
817.47	159.06
817.907	114.96
818.344	70.66
818.781	77.16
819.218	69.56
819.655	93.16
820.092	159.56
820.529	192.56
820.966	148.06
821.403	100.76
821.839	72.56
822.276	69.16
822.713	97.56
823.15	105.36
823.587	89.16
824.023	103.86
824.46	192.66
824.897	610.36
825.333	1001.46
825.77	430.06
826.206	168.06
826.643	94.66
827.08	66.56
827.516	49.86
827.953	50.96
828.389	54.36
828.825	53.16
829.262	48.66
829.698	43.36
830.135	45.16
830.571	41.26
831.007	46.06
831.443	41.56
831.88	46.36
832.316	43.56
832.752	47.16
833.188	43.66
833.624	41.06
834.06	47.06
834.497	42.26
834.933	53.06
835.369	49.76
835.805	50.16
836.241	55.96
836.677	51.46
837.112	65.96
837.548	68.66
837.984	88.36
838.42	132.06
838.856	335.76
839.292	1060.36
839.727	1728.06
840.163	800.06
840.599	640.06
841.034	1452.06
841.47	1629.86
841.906	585.46
842.341	233.96
842.777	147.76
843.212	156.06
843.648	152.76
844.083	86.66
844.519	57.76
844.954	50.06
845.39	40.96
845.825	37.26
846.261	40.46
846.696	41.96
847.131	39.16
847.566	45.56
848.002	39.16
848.437	30.86
848.872	52.06
849.307	42.86
849.742	54.06
850.177	116.26
850.613	379.16
851.048	639.36
851.483	277.16
851.918	112.56
852.353	60.86
852.788	29.76
853.223	36.46
853.657	38.06
854.092	28.26
854.527	27.66
854.962	27.76
855.397	37.16
855.832	38.56
856.266	33.16
856.701	33.16
857.136	28.56
857.57	27.16
858.005	40.36
858.44	47.46
858.874	30.76
859.309	31.96
859.743	24.26
860.178	26.76
860.612	31.96
861.047	35.76
861.481	49.46
861.915	62.16
862.35	41.16
862.784	26.16
863.218	28.56
863.653	25.36
864.087	38.16
864.521	35.56
864.955	48.06
865.39	108.56
865.824	133.06
866.258	82.86
866.692	149.76
867.126	170.56
867.56	101.26
867.994	46.16
868.428	28.26
868.862	42.96
869.296	45.36
869.73	51.26
870.164	56.76
870.598	36.16
871.031	32.86
871.465	23.86
871.899	24.06
872.333	17.86
872.766	19.56
873.2	17.26
873.634	23.76
874.067	15.06
874.501	18.86
874.935	27.16
875.368	16.36
875.802	22.26
876.235	9.56
876.669	16.26
877.102	13.46
877.535	23.86
877.969	14.86
878.402	18.66
878.836	12.36
879.269	13.96
879.702	17.76
880.135	19.36
880.569	11.46
881.002	20.16
881.435	15.36
881.868	15.96
882.301	13.56
882.734	12.66
883.167	15.06
883.601	19.26
884.034	15.36
884.467	7.86
884.899	15.26
885.332	9.86
885.765	7.46
886.198	5.76
886.631	10.66
887.064	13.06
887.497	17.96
887.929	18.96
888.362	12.46
888.795	8.96
889.228	16.76
889.66	16.56
890.093	16.36
890.526	13.36
890.958	12.56
891.391	13.56
891.823	14.96
892.256	12.16
892.688	2.86
893.121	7.86
893.553	13.46
893.985	20.16
894.418	16.06
894.85	10.56
895.282	13.56
895.715	12.76
896.147	9.56
896.579	8.66
897.011	4.86
897.444	2.96
897.876	7.26
898.308	8.16
898.74	8.56
899.172	9.76
899.604	19.46
900.036	17.06
900.468	9.16
900.9	10.56
901.332	10.26
901.764	7.86
902.196	14.36
902.628	14.96
903.06	11.56
903.491	31.46
903.923	21.46
904.355	16.16
904.787	19.36
905.218	12.66
905.65	18.56
906.082	12.26
906.513	11.46
906.945	11.66
907.376	11.86
907.808	14.16
908.239	13.06
908.671	11.56
909.102	11.76
909.534	15.96
909.965	33.56
910.397	70.86
910.828	228.36
911.259	361.66
911.691	163.96
912.122	76.56
912.553	32.86
912.984	22.16
913.415	19.26
913.847	15.06
914.278	8.86
914.709	9.86
915.14	14.06
915.571	12.56
916.002	10.96
916.433	13.36
916.864	8.96
917.295	7.16
917.726	11.36
918.157	7.76
918.587	16.56
919.018	13.36
919.449	16.46
919.88	20.86
920.311	18.96
920.741	34.06
921.172	112.56
921.603	107.76
922.033	54.36
922.464	33.06
922.895	24.56
923.325	15.66
923.756	10.06
924.186	7.66
924.617	9.06
925.047	15.76
925.478	17.96
925.908	22.96
926.338	7.66
926.769	7.86
927.199	9.86
927.629	-0.04
928.06	9.96
928.49	7.26
928.92	8.46
929.35	6.46
929.78	8.36
930.21	5.66
930.641	5.96
931.071	4.16
931.501	5.56
931.931	7.26
932.361	3.26
932.791	8.36
933.221	3.36
933.651	1.46
934.08	14.96
934.51	26.56
934.94	6.26
935.37	10.16
935.8	10.96
936.229	0.96
936.659	7.76
937.089	1.66
937.519	18.16
937.948	22.86
938.378	21.06
938.807	0.26
939.237	7.26
939.666	4.66
940.096	-4.44
940.525	4.46
940.955	2.36
941.384	-0.14
941.814	-2.74
942.243	-6.74
942.672	-2.94
943.102	-0.04
943.531	0.66
943.96	11.76
944.39	5.46
944.819	-0.54
945.248	7.86
945.677	2.46
946.106	4.96
946.535	2.46
946.964	4.56
947.393	4.06
947.822	0.36
948.251	0.36
948.68	5.16
949.109	12.36
949.538	2.96
949.967	6.16
950.396	-2.14
950.825	-0.04
951.254	3.26
951.682	-2.84
952.111	3.26
952.54	0.26
952.969	4.76
953.397	-9.44
953.826	-0.74
954.254	-9.74
954.683	-2.04
955.112	-1.84
955.54	0.56
955.969	4.36
956.397	1.46
956.826	0.36
957.254	-1.94
957.682	5.76
958.111	1.26
958.539	-4.34
958.967	-4.44
959.396	-3.44
959.824	-1.44
960.252	2.76
960.68	-3.14
961.109	-3.54
961.537	-4.14
961.965	1.66
962.393	3.66
962.821	-3.94
963.249	-2.24
963.677	5.36
964.105	-1.54
964.533	24.16
964.961	25.66
965.389	17.56
965.817	3.06
966.245	-0.24
966.672	-3.64
967.1	-6.14
967.528	-3.04
967.956	-4.84
968.383	-1.24
968.811	-4.24
969.239	-4.24
969.666	-1.54
970.094	2.86
970.522	2.96
970.949	-2.04
971.377	-5.64
971.804	0.36
972.232	-4.34
972.659	-5.34
973.087	-2.04
973.514	-3.44
973.941	-4.34
974.369	4.96
974.796	2.56
975.223	-0.84
975.651	-2.74
976.078	4.96
976.505	-2.94
976.932	4.76
977.359	4.66
977.786	13.46
978.214	-1.64
978.641	-1.54
979.068	-4.84
979.495	-5.64
979.922	-2.14
980.349	-4.34
980.776	3.36
981.202	-6.34
981.629	0.06
982.056	3.56
982.483	0.26
982.91	-0.14
983.337	-10.04
983.763	2.36
984.19	-4.04
984.617	-8.34
985.043	-1.74
985.47	2.16
985.897	-0.44
986.323	0.36
986.75	8.36
987.176	1.36
987.603	3.86
988.029	3.16
988.456	1.96
988.882	0.76
989.308	-7.84
989.735	-0.94
990.161	3.26
990.587	-4.24
991.014	0.36
991.44	2.56
991.866	-1.14
992.292	-2.64
992.719	-3.54
993.145	9.76
993.571	-7.74
993.997	-3.74
994.423	-4.44
994.849	-2.14
995.275	0.66
995.701	-0.44
996.127	-5.54
996.553	-0.44
996.979	1.46
997.405	-3.34
997.83	-3.34
998.256	-6.74
998.682	-5.04
999.108	-5.94
999.534	-1.64
999.959	-6.04
1000.385	-5.94
1000.811	0.96
1001.236	-5.04
1001.662	-11.34
1002.087	-12.34
1002.513	3.16
1002.938	-0.84
1003.364	-1.64
1003.789	0.86
1004.215	4.46
1004.64	0.86
1005.066	-0.94
1005.491	4.06
1005.916	-3.24
1006.342	-1.74
1006.767	-2.14
1007.192	8.36
1007.617	-1.04
1008.042	-0.44
1008.468	-9.74
1008.893	-5.94
1009.318	-0.64
1009.743	0.06
1010.168	6.36
1010.593	-0.94
1011.018	-7.94
1011.443	-3.54
1011.868	-1.94
1012.293	-2.14
1012.718	-5.64
1013.143	4.16
1013.567	3.56
1013.992	3.96
1014.417	-7.24
1014.842	-0.14
1015.267	-2.54
1015.691	-0.14
1016.116	5.26
1016.541	-4.14
1016.965	3.36
1017.39	-2.04
1017.814	1.26
1018.239	-3.54
1018.663	-6.24
1019.088	-5.44
1019.512	-1.54
1019.937	1.76
1020.361	-1.04
1020.785	-11.14
1021.21	-5.94
1021.634	-1.94
1022.058	-4.04
1022.483	7.76
1022.907	-5.74
1023.331	-4.34
1023.755	-4.84
1024.179	0.36
1024.604	-4.24
1025.028	-8.54
1025.452	-1.24
1025.876	0.26
1026.3	2.86
1026.724	-13.14
1027.148	-5.04
1027.572	-9.64
1027.996	-1.34
1028.42	3.36
1028.843	-1.64
1029.267	-4.04
1029.691	-3.24
1030.115	-2.74
1030.539	-8.04
1030.962	-6.44
1031.386	-10.14
1031.81	-2.44
1032.233	0.56
1032.657	-7.94
1033.08	0.16
1033.504	-0.04
1033.927	-3.34
1034.351	-3.64
1034.774	-2.04
1035.198	-2.04
1035.621	-1.54
1036.045	-7.74
1036.468	2.16
1036.891	-8.24
1037.315	-7.94
1037.738	-7.74
1038.161	-1.44
1038.584	-1.64
1039.008	-7.04
1039.431	-3.34
1039.854	-6.04
1040.277	-3.74
1040.7	-13.64
1041.123	-3.74
1041.546	-5.84
1041.969	-1.54
1042.392	-8.04
1042.815	-0.54
1043.238	0.06
1043.661	2.06
1044.084	-1.34
1044.507	-9.14
1044.93	-4.44
1045.352	-5.94
1045.775	-4.34
1046.198	-0.24
1046.621	2.86
1047.043	-0.54
1047.466	5.36
1047.889	-3.04
1048.311	-0.84
1048.734	-0.74
1049.156	-1.94
1049.579	0.96
1050.001	-1.54
1050.424	0.36
1050.846	-0.54
1051.269	2.56
1051.691	-2.94
1052.113	-7.64
1052.536	0.06
1052.958	-3.04
1053.38	-2.94
1053.802	-8.04
1054.225	-2.64
1054.647	-6.14
1055.069	-10.64
1055.491	3.06
1055.913	-9.34
1056.335	-3.14
1056.757	-0.94
1057.179	-9.14
1057.601	-1.64
1058.023	-9.44
1058.445	-1.14
1058.867	-2.74
1059.289	-4.64
1059.711	-1.14
1060.133	6.86
1060.555	1.86
1060.976	-2.74
1061.398	-0.84
1061.82	-2.54
1062.241	-5.34
1062.663	-11.84
1063.085	-2.54
1063.506	1.86
1063.928	-4.44
1064.35	2.86
1064.771	-11.14
1065.193	-4.74
1065.614	-5.54
1066.035	2.66
1066.457	-3.04
1066.878	-2.44
1067.3	-2.04
1067.721	-2.74
1068.142	-5.34
1068.564	-5.54
1068.985	1.06
1069.406	-2.34
1069.827	-5.84
1070.248	3.66
1070.67	-8.84
1071.091	-0.04
1071.512	-3.64
1071.933	-7.44
1072.354	-7.44
1072.775	-7.44
1073.196	-5.64
1073.617	1.36
1074.038	-7.14
1074.459	-0.44
1074.88	-8.14
1075.3	6.36
1075.721	-9.24
1076.142	-2.44
1076.563	-1.34
1076.983	-13.34
1077.404	-3.04
1077.825	-9.44
1078.246	-3.04
1078.666	-10.24
1079.087	-4.44
1079.507	-5.94
1079.928	-1.84
1080.348	-0.44
1080.769	-10.44
1081.189	-1.04
1081.61	-5.84
1082.03	-8.84
1082.451	-5.04
1082.871	4.56
1083.291	-8.54
1083.711	-9.14
1084.132	-3.64
1084.552	0.16
1084.972	-4.74
1085.392	-12.24
1085.813	-9.84
1086.233	-4.34
1086.653	-0.94
1087.073	-8.64
1087.493	-9.84
1087.913	-0.24
1088.333	-10.34
1088.753	-5.24
1089.173	-1.94
1089.593	-3.34
1090.013	-3.04
1090.433	3.96
1090.852	-6.54
1091.272	-5.34
1091.692	-2.74
1092.112	-5.54
1092.531	-0.94
1092.951	-11.74
1093.371	-2.74
1093.79	-0.74
1094.21	-2.64
1094.63	-3.74
1095.049	-2.14
1095.469	-6.54
1095.888	1.06
1096.308	7.26
1096.727	5.46
1097.146	-0.44
1097.566	-3.34
1097.985	-5.34
1098.405	0.66
1098.824	-4.14
1099.243	-2.54
1099.662	-2.44
1100.082	-3.54
1100.501	-3.44
1100.92	-9.24
1101.339	-6.74
1101.758	2.26
