Data from 20171114-ORNL-Ar_H_NY_Subt18_08-04-08-068.txt Node
Date: Tue Nov 14 08:04:08 EST 2017
User: Ender
Spectrometer: HR+D1039
Trigger mode: 0
Integration Time (sec): 2.730000E-2
Scans to average: 10
Electric dark correction enabled: true
Nonlinearity correction enabled: false
Boxcar width: 0
XAxis mode: Wavelengths
Number of Pixels in Spectrum: 2048
>>>>>Begin Spectral Data<<<<<
187.836	-8.68
188.309	-8.68
188.782	-8.68
189.255	-2.78
189.728	-0.58
190.201	5.92
190.674	7.02
191.147	4.42
191.619	-5.18
192.092	-0.18
192.565	4.72
193.038	1.72
193.511	-3.68
193.984	1.22
194.456	-5.58
194.929	0.12
195.402	-3.68
195.874	5.12
196.347	-4.08
196.82	-8.68
197.292	2.82
197.765	-2.18
198.237	-7.58
198.71	-0.88
199.182	-3.28
199.655	-3.38
200.127	1.82
200.6	-3.68
201.072	-3.68
201.544	-5.68
202.017	-3.28
202.489	5.62
202.961	0.22
203.433	-6.08
203.906	-5.28
204.378	-6.08
204.85	0.82
205.322	-15.28
205.794	-1.58
206.266	-1.28
206.739	-6.58
207.211	8.52
207.683	-8.78
208.155	-5.38
208.627	-8.98
209.099	-5.58
209.57	-10.68
210.042	-3.98
210.514	0.62
210.986	-1.88
211.458	-3.78
211.93	0.62
212.402	-3.28
212.873	-8.68
213.345	-12.38
213.817	-7.28
214.288	-0.88
214.76	-9.68
215.232	-5.48
215.703	-1.48
216.175	-7.28
216.646	-5.28
217.118	-3.28
217.589	-3.58
218.061	3.82
218.532	0.82
219.004	3.12
219.475	-2.18
219.946	-1.48
220.418	-5.08
220.889	0.92
221.36	-3.18
221.832	-5.68
222.303	-5.68
222.774	7.82
223.245	-3.48
223.717	-8.08
224.188	-3.28
224.659	-6.78
225.13	-6.48
225.601	-1.18
226.072	1.72
226.543	3.72
227.014	1.62
227.485	-0.38
227.956	-7.68
228.427	2.02
228.898	-1.38
229.369	3.32
229.839	-5.18
230.31	-8.28
230.781	6.32
231.252	-5.58
231.722	-5.18
232.193	1.22
232.664	-1.88
233.135	4.72
233.605	-2.68
234.076	-6.78
234.546	4.92
235.017	7.92
235.487	0.62
235.958	-4.18
236.428	-7.28
236.899	6.62
237.369	-1.38
237.84	-5.08
238.31	2.32
238.78	-2.88
239.251	-1.98
239.721	0.42
240.191	-2.18
240.662	-2.98
241.132	-3.78
241.602	-3.08
242.072	-0.38
242.542	5.72
243.013	-2.98
243.483	0.12
243.953	-0.58
244.423	-1.18
244.893	-0.28
245.363	3.22
245.833	-0.68
246.303	-1.48
246.773	6.82
247.243	0.42
247.712	8.02
248.182	8.22
248.652	8.02
249.122	-5.78
249.592	2.82
250.061	14.32
250.531	25.52
251.001	11.42
251.471	18.42
251.94	19.02
252.41	-1.98
252.879	-3.48
253.349	7.82
253.818	10.42
254.288	3.22
254.757	5.42
255.227	1.82
255.696	-1.18
256.166	6.52
256.635	-0.18
257.105	7.02
257.574	2.52
258.043	3.42
258.513	7.42
258.982	16.12
259.451	4.52
259.92	11.92
260.389	9.02
260.859	14.32
261.328	10.12
261.797	20.22
262.266	5.02
262.735	8.62
263.204	2.22
263.673	-4.48
264.142	1.12
264.611	-8.38
265.08	-1.48
265.549	-1.08
266.018	-0.08
266.487	-6.38
266.955	-2.68
267.424	0.62
267.893	5.72
268.362	-2.18
268.83	4.12
269.299	4.72
269.768	3.42
270.236	11.02
270.705	4.12
271.174	2.22
271.642	5.72
272.111	6.42
272.579	8.72
273.048	15.12
273.516	13.32
273.985	15.82
274.453	10.92
274.922	12.02
275.39	8.22
275.858	3.02
276.327	7.42
276.795	12.52
277.263	9.52
277.731	23.22
278.2	37.72
278.668	33.92
279.136	38.22
279.604	10.62
280.072	14.62
280.54	8.92
281.008	6.52
281.477	9.82
281.945	7.42
282.413	10.42
282.881	10.82
283.348	3.32
283.816	13.12
284.284	12.32
284.752	17.42
285.22	13.02
285.688	10.32
286.156	14.22
286.623	35.32
287.091	39.82
287.559	22.22
288.026	14.52
288.494	12.92
288.962	2.52
289.429	2.22
289.897	13.52
290.364	8.92
290.832	16.72
291.3	6.12
291.767	10.02
292.234	13.52
292.702	7.72
293.169	6.92
293.637	17.32
294.104	15.12
294.571	4.02
295.039	5.72
295.506	8.82
295.973	18.32
296.44	3.52
296.908	14.42
297.375	10.42
297.842	16.42
298.309	8.12
298.776	5.22
299.243	11.72
299.71	8.92
300.177	18.02
300.644	17.62
301.111	16.92
301.578	15.62
302.045	10.92
302.512	15.92
302.979	19.22
303.446	14.12
303.913	10.32
304.379	8.62
304.846	19.02
305.313	20.82
305.78	17.32
306.246	21.82
306.713	18.32
307.18	19.92
307.646	21.22
308.113	21.22
308.579	16.02
309.046	20.22
309.512	18.32
309.979	13.72
310.445	24.12
310.912	24.22
311.378	28.82
311.845	23.42
312.311	25.72
312.777	25.12
313.244	20.22
313.71	33.02
314.176	21.32
314.642	27.22
315.109	21.32
315.575	26.72
316.041	32.12
316.507	25.52
316.973	26.42
317.439	21.12
317.905	25.52
318.371	21.72
318.837	32.12
319.303	23.42
319.769	23.22
320.235	22.02
320.701	27.32
321.167	28.32
321.633	21.52
322.099	34.92
322.564	33.92
323.03	36.42
323.496	28.52
323.962	31.82
324.427	26.62
324.893	33.92
325.359	31.72
325.824	31.02
326.29	26.82
326.755	29.82
327.221	32.62
327.686	21.22
328.152	38.82
328.617	32.02
329.083	38.62
329.548	42.22
330.014	36.52
330.479	31.42
330.944	39.72
331.41	30.72
331.875	33.62
332.34	37.42
332.805	30.22
333.271	34.72
333.736	35.72
334.201	39.02
334.666	41.12
335.131	41.22
335.596	41.42
336.061	40.72
336.526	32.12
336.991	34.02
337.456	48.12
337.921	38.82
338.386	35.12
338.851	37.22
339.316	39.52
339.781	34.52
340.246	38.82
340.711	38.92
341.175	40.92
341.64	40.02
342.105	39.62
342.569	47.12
343.034	43.32
343.499	39.52
343.963	41.82
344.428	52.52
344.893	45.62
345.357	45.42
345.822	44.72
346.286	56.72
346.751	59.62
347.215	44.82
347.679	53.62
348.144	68.02
348.608	62.72
349.073	52.02
349.537	54.52
350.001	59.32
350.465	65.42
350.93	64.22
351.394	67.22
351.858	53.82
352.322	68.92
352.786	59.52
353.25	80.22
353.715	86.82
354.179	78.32
354.643	90.22
355.107	93.52
355.571	79.62
356.035	74.72
356.498	87.32
356.962	89.02
357.426	96.72
357.89	84.62
358.354	74.52
358.818	63.62
359.281	64.62
359.745	61.72
360.209	65.52
360.673	58.22
361.136	61.92
361.6	72.12
362.064	72.62
362.527	71.52
362.991	78.52
363.454	71.92
363.918	60.02
364.381	68.32
364.845	63.22
365.308	69.12
365.772	70.62
366.235	70.12
366.698	67.72
367.162	67.42
367.625	70.12
368.088	73.12
368.552	67.52
369.015	75.32
369.478	79.12
369.941	80.42
370.404	72.22
370.867	84.72
371.331	91.42
371.794	94.72
372.257	92.92
372.72	96.12
373.183	91.42
373.646	87.82
374.109	79.82
374.572	90.22
375.035	86.82
375.497	79.62
375.96	89.52
376.423	83.92
376.886	92.62
377.349	91.52
377.811	80.72
378.274	92.72
378.737	87.82
379.199	91.92
379.662	93.82
380.125	100.92
380.587	97.02
381.05	103.92
381.512	110.82
381.975	115.82
382.437	108.02
382.9	107.62
383.362	109.62
383.825	112.92
384.287	128.82
384.75	115.82
385.212	113.22
385.674	116.32
386.136	110.62
386.599	105.02
387.061	107.92
387.523	109.42
387.985	116.42
388.447	123.32
388.91	117.92
389.372	133.42
389.834	126.92
390.296	120.82
390.758	132.52
391.22	143.42
391.682	171.52
392.144	242.42
392.606	197.12
393.068	146.42
393.529	143.82
393.991	138.52
394.453	124.92
394.915	137.12
395.377	160.62
395.838	184.12
396.3	128.82
396.762	127.52
397.224	110.72
397.685	112.22
398.147	109.92
398.608	111.82
399.07	110.82
399.531	120.02
399.993	122.42
400.454	121.72
400.916	126.22
401.377	118.02
401.839	136.02
402.3	130.12
402.762	143.32
403.223	150.22
403.684	144.22
404.145	136.32
404.607	135.22
405.068	143.02
405.529	136.72
405.99	155.52
406.451	144.92
406.913	141.52
407.374	142.12
407.835	142.72
408.296	143.92
408.757	150.32
409.218	157.62
409.679	156.72
410.14	152.82
410.601	150.72
411.062	158.42
411.522	163.22
411.983	160.22
412.444	150.22
412.905	158.32
413.366	152.32
413.826	167.22
414.287	195.32
414.748	227.72
415.208	220.22
415.669	183.62
416.13	183.72
416.59	176.12
417.051	188.52
417.511	194.42
417.972	206.82
418.432	218.32
418.893	249.12
419.353	223.32
419.814	174.72
420.274	163.52
420.734	153.72
421.195	172.42
421.655	173.22
422.115	166.12
422.576	166.52
423.036	166.92
423.496	181.72
423.956	186.72
424.416	197.92
424.876	235.12
425.336	216.52
425.797	224.62
426.257	220.12
426.717	205.02
427.177	198.42
427.637	191.32
428.097	207.02
428.556	212.32
429.016	239.82
429.476	229.12
429.936	241.22
430.396	240.42
430.856	252.42
431.315	271.92
431.775	296.12
432.235	324.32
432.694	310.12
433.154	307.82
433.614	320.22
434.073	285.62
434.533	246.22
434.993	230.92
435.452	235.32
435.912	249.52
436.371	236.12
436.83	237.42
437.29	226.42
437.749	209.82
438.209	206.72
438.668	229.82
439.127	228.72
439.587	217.22
440.046	213.02
440.505	220.82
440.964	230.72
441.424	264.02
441.883	253.42
442.342	214.92
442.801	193.02
443.26	183.62
443.719	191.02
444.178	192.82
444.637	184.02
445.096	196.82
445.555	191.82
446.014	199.92
446.473	195.62
446.932	204.92
447.391	192.22
447.849	200.92
448.308	194.12
448.767	187.32
449.226	203.02
449.685	206.52
450.143	221.22
450.602	206.72
451.061	198.52
451.519	200.32
451.978	202.02
452.436	200.22
452.895	205.22
453.353	210.12
453.812	207.52
454.27	203.82
454.729	206.52
455.187	206.92
455.646	207.62
456.104	216.92
456.562	223.82
457.021	224.82
457.479	221.82
457.937	229.82
458.395	221.92
458.854	210.72
459.312	215.72
459.77	228.52
460.228	215.42
460.686	213.62
461.144	222.12
461.602	212.72
462.06	209.42
462.518	220.72
462.976	216.12
463.434	223.32
463.892	224.52
464.35	234.42
464.808	244.12
465.266	235.92
465.724	244.92
466.181	233.42
466.639	234.42
467.097	248.52
467.555	259.02
468.012	260.02
468.47	268.82
468.928	284.62
469.385	296.52
469.843	295.62
470.3	292.02
470.758	310.52
471.215	323.12
471.673	344.72
472.13	337.32
472.588	342.62
473.045	322.42
473.503	321.12
473.96	344.32
474.417	346.02
474.875	360.72
475.332	397.62
475.789	393.12
476.246	398.82
476.704	417.22
477.161	437.32
477.618	433.82
478.075	484.42
478.532	529.12
478.989	580.82
479.446	662.12
479.903	653.22
480.36	693.52
480.817	740.32
481.274	831.52
481.731	922.22
482.188	998.52
482.645	1122.02
483.102	1223.92
483.558	1336.62
484.015	1389.92
484.472	1367.82
484.929	1326.32
485.385	1284.32
485.842	1248.12
486.299	1182.72
486.755	1115.02
487.212	943.42
487.668	797.52
488.125	733.12
488.582	674.82
489.038	649.92
489.494	624.42
489.951	603.52
490.407	577.72
490.864	568.62
491.32	555.12
491.776	539.72
492.233	551.42
492.689	521.22
493.145	517.42
493.602	514.12
494.058	525.32
494.514	530.62
494.97	537.62
495.426	545.12
495.882	526.72
496.338	521.62
496.794	524.62
497.251	519.92
497.707	532.62
498.163	540.72
498.618	545.02
499.074	554.72
499.53	564.02
499.986	571.62
500.442	556.62
500.898	536.02
501.354	543.62
501.809	546.52
502.265	544.92
502.721	560.12
503.177	573.02
503.632	560.22
504.088	571.82
504.543	601.02
504.999	601.02
505.455	562.92
505.91	538.02
506.366	551.02
506.821	538.52
507.277	534.32
507.732	531.52
508.187	531.82
508.643	544.52
509.098	539.72
509.553	567.12
510.009	569.12
510.464	564.42
510.919	580.12
511.375	582.92
511.83	601.62
512.285	614.52
512.74	647.22
513.195	664.12
513.65	645.82
514.105	657.02
514.56	659.22
515.015	669.02
515.47	690.02
515.925	672.62
516.38	674.72
516.835	678.02
517.29	675.52
517.745	657.32
518.2	661.62
518.655	637.92
519.109	626.82
519.564	626.92
520.019	620.32
520.474	612.72
520.928	612.32
521.383	616.02
521.838	601.72
522.292	593.52
522.747	610.02
523.201	595.62
523.656	593.22
524.11	590.62
524.565	588.42
525.019	590.12
525.474	589.42
525.928	596.32
526.382	599.62
526.837	592.32
527.291	579.12
527.745	586.32
528.2	585.62
528.654	579.52
529.108	574.52
529.562	585.92
530.016	583.62
530.47	575.92
530.925	585.12
531.379	588.82
531.833	592.72
532.287	589.22
532.741	585.82
533.195	589.02
533.649	589.02
534.103	604.12
534.556	589.32
535.01	592.02
535.464	584.02
535.918	591.12
536.372	599.22
536.826	598.32
537.279	589.92
537.733	602.62
538.187	593.22
538.64	596.82
539.094	609.92
539.548	611.22
540.001	604.22
540.455	597.82
540.908	609.72
541.362	611.32
541.815	627.42
542.269	625.12
542.722	627.82
543.175	641.92
543.629	640.42
544.082	656.62
544.536	655.82
544.989	646.52
545.442	656.02
545.895	656.62
546.349	658.32
546.802	659.02
547.255	661.32
547.708	667.92
548.161	682.42
548.614	678.72
549.067	685.22
549.52	680.82
549.973	669.52
550.426	669.22
550.879	661.22
551.332	658.52
551.785	672.02
552.238	673.52
552.691	677.72
553.144	687.32
553.596	693.22
554.049	699.82
554.502	732.12
554.955	740.32
555.407	748.92
555.86	726.72
556.313	730.72
556.765	731.22
557.218	720.52
557.67	729.42
558.123	711.22
558.576	711.42
559.028	727.82
559.48	722.72
559.933	710.92
560.385	683.52
560.838	655.82
561.29	636.42
561.742	645.52
562.195	623.92
562.647	627.82
563.099	641.72
563.551	633.92
564.004	646.42
564.456	640.92
564.908	627.92
565.36	612.42
565.812	597.32
566.264	578.02
566.716	595.02
567.168	583.52
567.62	593.72
568.072	576.22
568.524	560.32
568.976	559.02
569.428	545.22
569.88	534.62
570.332	538.62
570.784	550.42
571.235	546.72
571.687	559.02
572.139	563.82
572.59	579.32
573.042	569.32
573.494	568.12
573.945	563.62
574.397	554.02
574.849	561.02
575.3	556.72
575.752	548.02
576.203	539.82
576.655	548.02
577.106	538.72
577.557	537.22
578.009	533.32
578.46	532.72
578.912	532.82
579.363	534.02
579.814	532.62
580.265	517.32
580.717	531.32
581.168	534.22
581.619	543.02
582.07	546.62
582.521	536.92
582.972	530.42
583.423	541.52
583.875	538.42
584.326	552.52
584.777	589.92
585.227	662.92
585.678	731.32
586.129	801.52
586.58	862.32
587.031	923.92
587.482	1064.72
587.933	1229.22
588.384	1069.02
588.834	779.62
589.285	643.02
589.736	616.52
590.186	615.12
590.637	611.72
591.088	588.92
591.538	593.92
591.989	587.72
592.439	570.82
592.89	562.32
593.34	559.12
593.791	553.22
594.241	562.42
594.692	557.52
595.142	549.42
595.593	555.82
596.043	545.32
596.493	556.72
596.943	558.82
597.394	565.72
597.844	550.22
598.294	572.32
598.744	588.32
599.195	602.42
599.645	640.72
600.095	672.62
600.545	712.72
600.995	756.52
601.445	805.32
601.895	858.02
602.345	895.72
602.795	887.12
603.245	841.42
603.695	797.72
604.145	751.22
604.594	713.32
605.044	672.52
605.494	623.12
605.944	595.02
606.393	574.92
606.843	570.42
607.293	570.62
607.743	567.62
608.192	578.62
608.642	587.82
609.091	592.42
609.541	593.82
609.99	593.42
610.44	583.12
610.889	560.82
611.339	546.72
611.788	532.82
612.238	543.62
612.687	558.42
613.136	558.42
613.586	565.52
614.035	564.72
614.484	581.02
614.933	595.52
615.383	577.42
615.832	571.52
616.281	561.72
616.73	528.42
617.179	521.12
617.628	505.22
618.077	491.52
618.526	481.82
618.975	481.92
619.424	486.32
619.873	474.82
620.322	472.62
620.771	461.82
621.22	467.52
621.669	461.92
622.118	458.72
622.567	454.92
623.015	440.62
623.464	429.82
623.913	435.02
624.361	427.72
624.81	422.82
625.259	424.92
625.707	431.12
626.156	424.12
626.604	438.82
627.053	430.82
627.501	438.32
627.95	423.82
628.398	445.02
628.847	436.02
629.295	438.42
629.744	436.32
630.192	443.82
630.64	435.82
631.089	425.52
631.537	439.92
631.985	442.42
632.433	451.72
632.881	450.22
633.33	494.22
633.778	475.22
634.226	423.32
634.674	435.72
635.122	442.52
635.57	448.52
636.018	469.92
636.466	436.42
636.914	421.72
637.362	433.72
637.81	433.72
638.258	435.12
638.705	430.62
639.153	454.02
639.601	462.32
640.049	489.82
640.497	509.32
640.944	529.42
641.392	491.62
641.84	469.32
642.287	453.42
642.735	433.82
643.182	421.42
643.63	436.22
644.078	434.42
644.525	449.22
644.973	449.22
645.42	450.02
645.867	460.42
646.315	485.12
646.762	493.72
647.21	516.42
647.657	542.52
648.104	567.12
648.551	582.92
648.999	638.12
649.446	682.12
649.893	746.52
650.34	871.92
650.787	1019.42
651.234	1271.32
651.682	1656.32
652.129	2258.62
652.576	3242.32
653.023	4826.32
653.47	6720.32
653.917	8464.12
654.363	9928.23
654.81	11277.03
655.257	10740.43
655.704	6945.72
656.151	4066.82
656.598	2609.42
657.044	1853.82
657.491	1409.72
657.938	1143.92
658.385	940.72
658.831	828.22
659.278	730.82
659.724	643.42
660.171	590.82
660.618	541.72
661.064	497.92
661.511	481.42
661.957	482.72
662.404	471.92
662.85	477.02
663.296	459.82
663.743	427.32
664.189	406.22
664.635	403.22
665.082	391.02
665.528	392.92
665.974	395.12
666.42	384.92
666.867	385.52
667.313	359.12
667.759	355.82
668.205	354.92
668.651	364.32
669.097	364.42
669.543	368.72
669.989	352.52
670.435	345.02
670.881	331.72
671.327	327.32
671.773	349.32
672.219	361.62
672.665	402.32
673.11	440.52
673.556	462.62
674.002	504.72
674.448	490.32
674.893	409.02
675.339	349.22
675.785	327.42
676.23	313.92
676.676	293.92
677.122	284.72
677.567	268.82
678.013	274.82
678.458	257.72
678.904	263.52
679.349	250.92
679.794	262.62
680.24	260.32
680.685	261.92
681.131	259.92
681.576	253.12
682.021	252.22
682.466	249.02
682.912	260.92
683.357	258.52
683.802	277.22
684.247	291.82
684.692	333.12
685.137	355.92
685.583	394.92
686.028	421.92
686.473	386.12
686.918	327.42
687.363	312.12
687.807	294.82
688.252	268.72
688.697	260.72
689.142	245.02
689.587	248.52
690.032	241.22
690.477	249.32
690.921	255.32
691.366	280.02
691.811	300.02
692.255	311.32
692.7	341.22
693.145	373.82
693.589	494.42
694.034	803.22
694.478	1131.72
694.923	1313.42
695.367	1746.32
695.812	904.42
696.256	380.62
696.701	271.92
697.145	254.82
697.59	241.22
698.034	227.12
698.478	245.02
698.922	238.12
699.367	241.02
699.811	246.82
700.255	261.32
700.699	278.52
701.143	312.12
701.588	354.72
702.032	386.32
702.476	381.62
702.92	365.32
703.364	352.22
703.808	456.32
704.252	738.12
704.696	1048.72
705.14	1249.52
705.584	1633.42
706.027	802.62
706.471	397.02
706.915	297.12
707.359	257.72
707.803	234.22
708.246	229.12
708.69	234.52
709.134	231.52
709.577	224.22
710.021	231.22
710.465	225.32
710.908	213.92
711.352	216.02
711.795	230.92
712.239	254.52
712.682	274.82
713.126	304.42
713.569	343.82
714.012	271.02
714.456	245.52
714.899	229.72
715.342	200.62
715.786	187.72
716.229	184.12
716.672	187.72
717.115	178.12
717.558	182.02
718.002	181.82
718.445	186.82
718.888	205.62
719.331	206.52
719.774	226.42
720.217	221.62
720.66	213.52
721.103	195.62
721.546	185.02
721.989	184.82
722.432	162.12
722.874	174.82
723.317	162.12
723.76	170.72
724.203	184.42
724.645	228.72
725.088	320.92
725.531	415.72
725.974	481.42
726.416	412.82
726.859	218.82
727.301	175.22
727.744	181.22
728.187	173.82
728.629	180.02
729.071	176.42
729.514	192.12
729.956	196.92
730.399	207.52
730.841	211.22
731.283	200.72
731.726	191.82
732.168	184.82
732.61	192.72
733.053	208.62
733.495	227.52
733.937	261.32
734.379	281.42
734.821	309.92
735.263	385.62
735.705	587.52
736.148	1125.12
736.59	1879.82
737.032	2349.93
737.474	1907.72
737.916	604.82
738.357	313.02
738.799	237.22
739.241	213.32
739.683	206.52
740.125	216.02
740.567	221.32
741.008	231.22
741.45	235.32
741.892	236.72
742.334	255.52
742.775	270.62
743.217	257.12
743.658	202.82
744.1	190.22
744.542	187.92
744.983	224.72
745.425	259.82
745.866	261.62
746.307	211.92
746.749	207.32
747.19	231.42
747.632	323.22
748.073	612.42
748.514	1333.72
748.956	2128.12
749.397	2647.32
749.838	2221.02
750.279	2276.62
750.72	1143.22
751.162	406.32
751.603	241.32
752.044	183.12
752.485	160.52
752.926	153.12
753.367	147.62
753.808	142.92
754.249	136.42
754.69	132.52
755.131	137.72
755.572	137.82
756.013	124.62
756.453	131.62
756.894	148.42
757.335	139.12
757.776	145.72
758.216	140.22
758.657	141.92
759.098	145.32
759.538	159.02
759.979	194.52
760.42	265.92
760.86	491.32
761.301	1277.92
761.741	3236.22
762.182	5046.23
762.622	3550.62
763.063	996.12
763.503	404.02
763.943	255.02
764.384	255.92
764.824	302.82
765.264	344.92
765.705	230.52
766.145	155.12
766.585	134.42
767.025	134.02
767.465	137.62
767.906	186.32
768.346	242.32
768.786	261.12
769.226	192.52
769.666	224.82
770.106	442.12
770.546	1096.32
770.986	1990.02
771.426	1828.72
771.866	608.72
772.306	240.62
772.745	153.82
773.185	126.42
773.625	127.92
774.065	124.72
774.505	146.42
774.944	218.52
775.384	485.52
775.824	933.12
776.263	931.82
776.703	394.32
777.142	164.12
777.582	114.92
778.021	102.32
778.461	109.82
778.9	101.72
779.34	98.02
779.779	76.62
780.219	74.42
780.658	74.02
781.097	77.52
781.537	79.82
781.976	78.42
782.415	72.72
782.855	77.02
783.294	78.82
783.733	78.62
784.172	81.52
784.611	77.22
785.05	80.92
785.489	78.42
785.928	90.22
786.367	87.62
786.806	84.82
787.245	94.42
787.684	97.12
788.123	112.32
788.562	88.82
789.001	90.42
789.44	87.52
789.879	84.82
790.317	83.62
790.756	91.82
791.195	97.12
791.634	105.52
792.072	149.22
792.511	249.62
792.95	704.92
793.388	1630.02
793.827	1525.12
794.265	512.82
794.704	209.22
795.142	137.32
795.581	110.82
796.019	100.22
796.458	96.32
796.896	84.92
797.334	90.82
797.773	110.32
798.211	159.22
798.649	312.92
799.087	735.12
799.526	1179.72
799.964	1478.22
800.402	1557.42
800.84	573.72
801.278	221.12
801.716	138.12
802.154	101.62
802.592	111.62
803.03	105.12
803.468	97.12
803.906	102.72
804.344	110.12
804.782	101.32
805.22	91.52
805.658	93.42
806.096	106.62
806.533	120.52
806.971	122.72
807.409	156.42
807.847	227.12
808.284	462.92
808.722	1357.02
809.16	2499.92
809.597	2293.52
810.035	4112.02
810.472	4638.02
810.91	1631.03
811.347	599.42
811.785	305.52
812.222	194.62
812.66	155.82
813.097	124.22
813.535	103.52
813.972	88.82
814.409	84.42
814.846	75.72
815.284	85.02
815.721	74.72
816.158	79.22
816.595	93.32
817.032	137.62
817.47	152.22
817.907	127.32
818.344	108.92
818.781	84.02
819.218	72.32
819.655	84.42
820.092	137.02
820.529	162.92
820.966	139.12
821.403	102.02
821.839	79.02
822.276	72.42
822.713	86.42
823.15	105.92
823.587	87.12
824.023	108.02
824.46	213.02
824.897	655.42
825.333	1055.42
825.77	452.02
826.206	168.52
826.643	97.22
827.08	72.42
827.516	50.92
827.953	56.92
828.389	60.72
828.825	51.32
829.262	49.02
829.698	44.92
830.135	48.82
830.571	41.32
831.007	53.62
831.443	42.42
831.88	51.82
832.316	44.42
832.752	42.92
833.188	44.82
833.624	53.42
834.06	50.92
834.497	49.42
834.933	55.72
835.369	53.42
835.805	46.22
836.241	59.02
836.677	52.12
837.112	65.62
837.548	73.32
837.984	95.02
838.42	138.42
838.856	348.82
839.292	1122.72
839.727	1801.83
840.163	820.32
840.599	676.32
841.034	1534.12
841.47	1685.92
841.906	607.32
842.341	247.62
842.777	171.72
843.212	238.72
843.648	242.42
844.083	113.52
844.519	72.42
844.954	55.92
845.39	41.22
845.825	43.02
846.261	40.82
846.696	41.02
847.131	46.42
847.566	37.02
848.002	35.82
848.437	36.32
848.872	46.52
849.307	40.22
849.742	61.12
850.177	125.72
850.613	402.92
851.048	666.62
851.483	290.62
851.918	119.02
852.353	61.92
852.788	40.62
853.223	34.72
853.657	39.62
854.092	35.12
854.527	28.82
854.962	32.22
855.397	26.32
855.832	34.32
856.266	28.02
856.701	30.12
857.136	32.32
857.57	28.72
858.005	34.22
858.44	49.62
858.874	34.22
859.309	38.52
859.743	29.12
860.178	34.12
860.612	27.02
861.047	42.32
861.481	45.72
861.915	56.52
862.35	37.32
862.784	20.02
863.218	29.52
863.653	18.42
864.087	35.12
864.521	40.22
864.955	56.52
865.39	111.52
865.824	130.02
866.258	90.32
866.692	127.62
867.126	148.52
867.56	83.82
867.994	40.02
868.428	26.92
868.862	41.72
869.296	41.42
869.73	46.12
870.164	38.12
870.598	37.12
871.031	29.12
871.465	26.02
871.899	24.02
872.333	12.22
872.766	19.72
873.2	13.12
873.634	25.82
874.067	15.02
874.501	20.42
874.935	30.02
875.368	12.72
875.802	18.22
876.235	13.12
876.669	21.42
877.102	18.92
877.535	20.82
877.969	16.72
878.402	16.42
878.836	10.62
879.269	19.42
879.702	20.92
880.135	12.42
880.569	15.42
881.002	20.82
881.435	14.52
881.868	9.02
882.301	19.02
882.734	11.52
883.167	17.52
883.601	17.02
884.034	15.02
884.467	15.72
884.899	13.32
885.332	13.42
885.765	11.72
886.198	11.02
886.631	13.42
887.064	12.12
887.497	16.12
887.929	13.12
888.362	4.22
888.795	10.92
889.228	10.32
889.66	16.52
890.093	9.72
890.526	7.32
890.958	7.12
891.391	9.62
891.823	19.02
892.256	11.02
892.688	7.42
893.121	14.42
893.553	10.22
893.985	15.52
894.418	11.32
894.85	6.42
895.282	12.62
895.715	14.22
896.147	11.52
896.579	8.62
897.011	8.62
897.444	17.82
897.876	12.52
898.308	17.62
898.74	7.62
899.172	9.92
899.604	18.22
900.036	12.62
900.468	9.92
900.9	7.92
901.332	18.92
901.764	12.12
902.196	12.52
902.628	12.52
903.06	12.12
903.491	21.52
903.923	18.82
904.355	15.42
904.787	14.72
905.218	14.92
905.65	17.92
906.082	4.22
906.513	8.22
906.945	7.02
907.376	6.22
907.808	15.42
908.239	13.92
908.671	16.92
909.102	15.82
909.534	16.82
909.965	34.72
910.397	64.32
910.828	230.72
911.259	369.02
911.691	169.52
912.122	77.42
912.553	38.72
912.984	26.82
913.415	18.02
913.847	18.32
914.278	8.82
914.709	5.52
915.14	11.72
915.571	13.02
916.002	3.52
916.433	18.22
916.864	14.22
917.295	8.72
917.726	21.82
918.157	12.82
918.587	19.62
919.018	14.52
919.449	14.22
919.88	16.22
920.311	25.42
920.741	39.82
921.172	126.22
921.603	113.92
922.033	50.92
922.464	38.42
922.895	12.82
923.325	16.12
923.756	7.02
924.186	12.32
924.617	15.52
925.047	29.82
925.478	34.92
925.908	37.02
926.338	13.32
926.769	17.32
927.199	17.12
927.629	2.62
928.06	17.22
928.49	11.02
928.92	8.72
929.35	3.32
929.78	4.62
930.21	6.52
930.641	6.42
931.071	3.02
931.501	1.82
931.931	3.62
932.361	8.42
932.791	-4.58
933.221	1.92
933.651	5.32
934.08	9.12
934.51	18.82
934.94	5.32
935.37	2.12
935.8	10.12
936.229	7.82
936.659	9.02
937.089	1.82
937.519	5.82
937.948	17.32
938.378	11.12
938.807	2.32
939.237	-0.78
939.666	5.02
940.096	-4.78
940.525	6.02
940.955	7.32
941.384	0.12
941.814	-1.88
942.243	-0.38
942.672	8.72
943.102	-0.48
943.531	-1.98
943.96	-5.78
944.39	-1.58
944.819	-3.08
945.248	2.92
945.677	1.52
946.106	4.62
946.535	2.52
946.964	0.22
947.393	4.22
947.822	-1.18
948.251	-6.18
948.68	-0.08
949.109	6.42
949.538	3.62
949.967	4.12
950.396	0.92
950.825	-6.88
951.254	2.22
951.682	-1.88
952.111	2.92
952.54	4.32
952.969	-4.88
953.397	-10.58
953.826	-0.78
954.254	-3.58
954.683	-2.58
955.112	-0.98
955.54	-3.88
955.969	0.22
956.397	-0.38
956.826	-0.88
957.254	1.52
957.682	-0.58
958.111	2.42
958.539	0.72
958.967	3.02
959.396	-2.48
959.824	-4.08
960.252	-1.58
960.68	-4.68
961.109	-4.48
961.537	-1.98
961.965	-1.38
962.393	-7.48
962.821	-5.78
963.249	0.52
963.677	1.22
964.105	-1.18
964.533	28.72
964.961	24.32
965.389	15.62
965.817	3.62
966.245	1.32
966.672	-2.78
967.1	-7.68
967.528	-1.58
967.956	-7.68
968.383	2.42
968.811	-1.58
969.239	-6.48
969.666	-15.48
970.094	3.62
970.522	-0.98
970.949	3.72
971.377	-5.48
971.804	-0.98
972.232	-7.08
972.659	-1.98
973.087	-4.28
973.514	-5.58
973.941	-2.08
974.369	-2.18
974.796	-2.68
975.223	-3.18
975.651	-3.58
976.078	-3.48
976.505	-0.48
976.932	1.12
977.359	10.92
977.786	11.72
978.214	-3.18
978.641	-2.28
979.068	-7.88
979.495	-5.58
979.922	0.12
980.349	-5.28
980.776	2.52
981.202	-2.98
981.629	3.22
982.056	9.42
982.483	3.02
982.91	5.22
983.337	-7.08
983.763	1.92
984.19	-10.48
984.617	-3.88
985.043	-9.38
985.47	3.72
985.897	-2.98
986.323	-3.88
986.75	2.32
987.176	-2.48
987.603	-1.68
988.029	2.22
988.456	1.42
988.882	0.42
989.308	-4.48
989.735	-7.88
990.161	3.92
990.587	-2.78
991.014	-0.88
991.44	5.52
991.866	-3.58
992.292	-8.58
992.719	-4.08
993.145	4.22
993.571	-9.58
993.997	-2.98
994.423	-3.28
994.849	-3.78
995.275	-0.28
995.701	-1.98
996.127	-3.68
996.553	-0.08
996.979	-3.98
997.405	-6.58
997.83	-3.28
998.256	-10.48
998.682	-2.48
999.108	-10.18
999.534	2.12
999.959	-4.18
1000.385	-5.98
1000.811	0.02
1001.236	-4.68
1001.662	-7.18
1002.087	-12.18
1002.513	0.82
1002.938	1.12
1003.364	-5.78
1003.789	-1.28
1004.215	-0.08
1004.64	-2.88
1005.066	-1.38
1005.491	-1.28
1005.916	-2.68
1006.342	-6.08
1006.767	-3.88
1007.192	5.72
1007.617	-4.28
1008.042	-4.98
1008.468	0.72
1008.893	-7.08
1009.318	-4.18
1009.743	-6.78
1010.168	3.92
1010.593	-2.18
1011.018	-13.28
1011.443	-4.28
1011.868	2.62
1012.293	-5.28
1012.718	-4.98
1013.143	4.42
1013.567	-1.68
1013.992	0.92
1014.417	-15.38
1014.842	-0.88
1015.267	-8.48
1015.691	-4.78
1016.116	-0.28
1016.541	-5.58
1016.965	1.12
1017.39	0.82
1017.814	-1.88
1018.239	-9.98
1018.663	-8.88
1019.088	-13.48
1019.512	-5.18
1019.937	-1.18
1020.361	-4.48
1020.785	-9.58
1021.21	-7.08
1021.634	-4.48
1022.058	1.32
1022.483	2.42
1022.907	-5.18
1023.331	-2.98
1023.755	-4.68
1024.179	-2.18
1024.604	-3.48
1025.028	-5.78
1025.452	-2.88
1025.876	-0.88
1026.3	2.12
1026.724	-9.88
1027.148	-3.28
1027.572	-11.78
1027.996	-4.28
1028.42	-2.58
1028.843	-3.08
1029.267	-7.28
1029.691	-4.28
1030.115	-4.98
1030.539	-3.98
1030.962	-10.28
1031.386	-10.88
1031.81	-1.68
1032.233	1.62
1032.657	-6.18
1033.08	-1.18
1033.504	-2.38
1033.927	-3.78
1034.351	1.12
1034.774	-6.48
1035.198	-0.18
1035.621	-10.08
1036.045	-6.78
1036.468	-4.28
1036.891	-8.68
1037.315	-9.78
1037.738	-10.38
1038.161	5.22
1038.584	-4.88
1039.008	-4.28
1039.431	0.72
1039.854	2.72
1040.277	-6.98
1040.7	-11.08
1041.123	-1.08
1041.546	-15.48
1041.969	-0.58
1042.392	-5.98
1042.815	-4.48
1043.238	-2.48
1043.661	0.32
1044.084	-5.18
1044.507	-2.58
1044.93	-10.88
1045.352	-7.68
1045.775	-4.98
1046.198	-1.58
1046.621	-8.38
1047.043	-1.08
1047.466	4.02
1047.889	-4.48
1048.311	0.02
1048.734	-5.88
1049.156	0.82
1049.579	-4.28
1050.001	-7.28
1050.424	-0.48
1050.846	-5.98
1051.269	-4.18
1051.691	-11.68
1052.113	-4.88
1052.536	-4.38
1052.958	1.02
1053.38	-0.08
1053.802	-10.78
1054.225	2.62
1054.647	-12.78
1055.069	-6.38
1055.491	-0.08
1055.913	-9.48
1056.335	0.72
1056.757	-6.68
1057.179	-4.98
1057.601	-8.88
1058.023	-5.68
1058.445	-8.08
1058.867	-1.68
1059.289	-7.48
1059.711	-8.48
1060.133	-6.18
1060.555	-4.28
1060.976	-3.88
1061.398	-5.58
1061.82	-2.08
1062.241	-7.28
1062.663	-7.78
1063.085	-5.78
1063.506	-0.08
1063.928	-6.08
1064.35	-1.08
1064.771	-14.18
1065.193	-7.98
1065.614	-13.78
1066.035	-6.98
1066.457	-2.38
1066.878	5.42
1067.3	-9.78
1067.721	1.62
1068.142	-4.38
1068.564	-3.08
1068.985	-3.48
1069.406	-6.78
1069.827	-1.58
1070.248	-7.28
1070.67	-3.78
1071.091	-3.98
1071.512	-4.88
1071.933	-4.68
1072.354	-8.48
1072.775	-9.28
1073.196	-10.08
1073.617	0.72
1074.038	-6.18
1074.459	-1.08
1074.88	-5.88
1075.3	-1.08
1075.721	-5.98
1076.142	-1.58
1076.563	0.92
1076.983	-13.38
1077.404	-4.48
1077.825	-10.18
1078.246	-5.18
1078.666	-10.58
1079.087	-4.68
1079.507	-1.98
1079.928	2.72
1080.348	-2.28
1080.769	-6.78
1081.189	3.32
1081.61	-3.48
1082.03	-8.68
1082.451	-10.18
1082.871	-7.18
1083.291	-2.38
1083.711	-12.48
1084.132	-4.38
1084.552	-4.18
1084.972	0.52
1085.392	-9.98
1085.813	-10.88
1086.233	-6.98
1086.653	-10.48
1087.073	-6.18
1087.493	-6.78
1087.913	-9.18
1088.333	-7.98
1088.753	-1.38
1089.173	1.82
1089.593	0.82
1090.013	6.42
1090.433	2.62
1090.852	-7.28
1091.272	-4.38
1091.692	2.72
1092.112	-0.68
1092.531	-6.38
1092.951	-12.18
1093.371	-3.08
1093.79	-2.38
1094.21	-8.18
1094.63	-6.98
1095.049	-10.88
1095.469	-5.58
1095.888	-1.48
1096.308	1.02
1096.727	3.12
1097.146	-3.08
1097.566	6.72
1097.985	-6.38
1098.405	1.62
1098.824	-11.88
1099.243	-6.48
1099.662	-9.88
1100.082	-10.58
1100.501	-0.08
1100.92	-12.08
1101.339	-10.48
1101.758	-5.78
