Data from 20171114-ORNL-Ar_H_NY_Subt18_08-04-16-257.txt Node
Date: Tue Nov 14 08:04:16 EST 2017
User: Ender
Spectrometer: HR+D1039
Trigger mode: 0
Integration Time (sec): 2.730000E-2
Scans to average: 10
Electric dark correction enabled: true
Nonlinearity correction enabled: false
Boxcar width: 0
XAxis mode: Wavelengths
Number of Pixels in Spectrum: 2048
>>>>>Begin Spectral Data<<<<<
187.836	-3.43
188.309	-3.43
188.782	-3.43
189.255	-1.63
189.728	2.37
190.201	4.47
190.674	-0.83
191.147	-0.53
191.619	-6.23
192.092	5.97
192.565	4.47
193.038	-1.13
193.511	-2.53
193.984	2.37
194.456	-3.23
194.929	1.47
195.402	-0.83
195.874	-0.73
196.347	-0.43
196.82	-9.73
197.292	6.37
197.765	2.67
198.237	-1.33
198.71	0.27
199.182	0.77
199.655	2.97
200.127	-2.53
200.6	1.07
201.072	-3.83
201.544	-6.83
202.017	-2.93
202.489	-0.53
202.961	-2.73
203.433	-3.23
203.906	-3.53
204.378	-0.03
204.85	0.27
205.322	-6.03
205.794	-0.93
206.266	0.57
206.739	-5.33
207.211	3.97
207.683	-5.63
208.155	-6.93
208.627	-3.93
209.099	-2.83
209.57	-10.13
210.042	-7.23
210.514	-4.83
210.986	0.47
211.458	0.57
211.93	3.87
212.402	-1.83
212.873	-6.73
213.345	-10.13
213.817	-11.73
214.288	-9.53
214.76	-13.33
215.232	1.87
215.703	-6.93
216.175	-0.93
216.646	-8.33
217.118	-7.13
217.589	-8.03
218.061	1.67
218.532	-2.23
219.004	-5.53
219.475	-3.53
219.946	-1.43
220.418	-1.13
220.889	-0.93
221.36	0.77
221.832	-5.23
222.303	-6.23
222.774	5.27
223.245	-10.53
223.717	-11.13
224.188	-4.33
224.659	-3.83
225.13	-5.53
225.601	-0.93
226.072	2.07
226.543	0.57
227.014	0.97
227.485	0.27
227.956	-12.13
228.427	-5.53
228.898	6.07
229.369	3.37
229.839	-3.03
230.31	-7.33
230.781	-1.53
231.252	-4.23
231.722	-3.43
232.193	-5.13
232.664	0.37
233.135	-2.43
233.605	0.57
234.076	-7.03
234.546	3.27
235.017	0.77
235.487	-2.33
235.958	1.47
236.428	-7.63
236.899	0.47
237.369	6.37
237.84	-6.93
238.31	7.77
238.78	6.57
239.251	2.17
239.721	3.07
240.191	-0.63
240.662	-7.73
241.132	6.87
241.602	0.27
242.072	2.47
242.542	12.27
243.013	-4.63
243.483	8.17
243.953	6.97
244.423	3.47
244.893	-2.93
245.363	1.77
245.833	3.37
246.303	-2.23
246.773	8.67
247.243	0.77
247.712	4.67
248.182	6.17
248.652	7.17
249.122	2.07
249.592	11.77
250.061	20.27
250.531	32.57
251.001	15.97
251.471	23.17
251.94	23.57
252.41	2.97
252.879	5.27
253.349	9.27
253.818	6.07
254.288	5.87
254.757	8.47
255.227	4.07
255.696	2.77
256.166	9.37
256.635	8.57
257.105	7.27
257.574	8.67
258.043	13.27
258.513	9.77
258.982	17.17
259.451	13.97
259.92	10.67
260.389	11.37
260.859	20.07
261.328	9.97
261.797	15.97
262.266	8.37
262.735	6.57
263.204	3.37
263.673	1.17
264.142	8.07
264.611	0.67
265.08	2.87
265.549	2.47
266.018	2.87
266.487	-6.13
266.955	-1.33
267.424	-1.43
267.893	9.27
268.362	0.67
268.83	5.97
269.299	10.37
269.768	10.17
270.236	6.47
270.705	1.67
271.174	4.17
271.642	8.47
272.111	8.87
272.579	13.77
273.048	23.37
273.516	22.07
273.985	26.17
274.453	22.67
274.922	16.27
275.39	8.87
275.858	4.07
276.327	11.47
276.795	26.37
277.263	10.87
277.731	28.87
278.2	53.17
278.668	55.47
279.136	50.27
279.604	14.67
280.072	18.17
280.54	16.37
281.008	12.17
281.477	17.17
281.945	15.47
282.413	19.87
282.881	13.67
283.348	10.17
283.816	15.37
284.284	14.57
284.752	14.97
285.22	12.27
285.688	13.37
286.156	13.37
286.623	43.37
287.091	45.27
287.559	27.47
288.026	18.27
288.494	14.57
288.962	5.97
289.429	8.87
289.897	12.77
290.364	17.97
290.832	18.47
291.3	9.77
291.767	16.27
292.234	13.07
292.702	14.97
293.169	18.47
293.637	17.97
294.104	14.37
294.571	6.57
295.039	8.87
295.506	13.37
295.973	21.67
296.44	14.77
296.908	23.27
297.375	17.87
297.842	20.77
298.309	19.77
298.776	18.97
299.243	19.67
299.71	13.57
300.177	19.67
300.644	20.77
301.111	21.07
301.578	27.47
302.045	14.07
302.512	12.97
302.979	25.47
303.446	27.67
303.913	16.87
304.379	20.37
304.846	23.57
305.313	24.67
305.78	18.47
306.246	25.17
306.713	28.27
307.18	26.67
307.646	26.97
308.113	29.17
308.579	22.87
309.046	25.17
309.512	29.07
309.979	16.67
310.445	29.07
310.912	30.27
311.378	29.17
311.845	27.77
312.311	27.77
312.777	25.77
313.244	27.67
313.71	36.17
314.176	30.87
314.642	33.37
315.109	24.57
315.575	27.97
316.041	30.87
316.507	29.47
316.973	39.07
317.439	33.57
317.905	34.57
318.371	32.77
318.837	29.77
319.303	32.27
319.769	29.37
320.235	27.57
320.701	39.27
321.167	35.17
321.633	30.17
322.099	40.07
322.564	43.97
323.03	38.77
323.496	36.47
323.962	35.37
324.427	28.57
324.893	44.57
325.359	32.27
325.824	34.57
326.29	31.77
326.755	26.87
327.221	35.67
327.686	39.17
328.152	36.07
328.617	35.57
329.083	42.27
329.548	48.07
330.014	43.17
330.479	42.77
330.944	36.07
331.41	39.27
331.875	38.27
332.34	44.17
332.805	42.77
333.271	47.57
333.736	46.07
334.201	46.67
334.666	45.97
335.131	43.37
335.596	49.57
336.061	49.77
336.526	37.97
336.991	51.77
337.456	47.27
337.921	47.67
338.386	38.87
338.851	41.97
339.316	41.37
339.781	40.57
340.246	50.37
340.711	45.37
341.175	46.27
341.64	42.47
342.105	46.77
342.569	52.17
343.034	54.17
343.499	46.17
343.963	43.77
344.428	53.27
344.893	53.67
345.357	50.97
345.822	52.57
346.286	57.47
346.751	67.97
347.215	62.07
347.679	61.67
348.144	85.27
348.608	73.27
349.073	66.77
349.537	65.87
350.001	65.97
350.465	74.27
350.93	70.07
351.394	77.97
351.858	65.57
352.322	82.17
352.786	75.17
353.25	91.07
353.715	93.97
354.179	88.67
354.643	101.77
355.107	107.97
355.571	92.57
356.035	88.37
356.498	101.27
356.962	94.17
357.426	109.77
357.89	95.57
358.354	78.77
358.818	76.07
359.281	67.37
359.745	66.87
360.209	68.57
360.673	66.77
361.136	65.47
361.6	75.77
362.064	73.57
362.527	73.37
362.991	82.27
363.454	75.87
363.918	74.47
364.381	71.37
364.845	75.17
365.308	77.17
365.772	79.67
366.235	78.27
366.698	69.67
367.162	76.77
367.625	75.77
368.088	73.67
368.552	74.67
369.015	78.37
369.478	84.77
369.941	92.77
370.404	91.87
370.867	96.57
371.331	96.47
371.794	102.97
372.257	103.37
372.72	111.37
373.183	102.07
373.646	88.47
374.109	89.37
374.572	93.47
375.035	89.67
375.497	89.67
375.96	97.37
376.423	95.07
376.886	104.37
377.349	101.77
377.811	88.77
378.274	89.97
378.737	85.27
379.199	93.57
379.662	95.37
380.125	101.87
380.587	113.57
381.05	111.37
381.512	120.87
381.975	122.87
382.437	117.37
382.9	113.27
383.362	118.77
383.825	120.17
384.287	134.57
384.75	123.67
385.212	123.67
385.674	123.27
386.136	123.07
386.599	105.87
387.061	114.57
387.523	109.47
387.985	117.57
388.447	135.37
388.91	128.17
389.372	138.87
389.834	131.57
390.296	130.17
390.758	131.87
391.22	148.37
391.682	184.87
392.144	261.97
392.606	208.27
393.068	147.47
393.529	151.47
393.991	140.57
394.453	130.47
394.915	142.47
395.377	169.97
395.838	191.77
396.3	142.57
396.762	129.67
397.224	117.37
397.685	115.87
398.147	115.97
398.608	113.57
399.07	108.67
399.531	116.57
399.993	121.97
400.454	129.67
400.916	135.97
401.377	129.77
401.839	133.57
402.3	131.87
402.762	146.47
403.223	159.97
403.684	149.57
404.145	146.27
404.607	146.57
405.068	153.77
405.529	153.37
405.99	169.17
406.451	153.77
406.913	149.07
407.374	145.27
407.835	146.67
408.296	147.27
408.757	150.67
409.218	167.77
409.679	152.87
410.14	158.47
410.601	156.47
411.062	168.17
411.522	173.47
411.983	168.77
412.444	158.37
412.905	156.77
413.366	159.57
413.826	173.87
414.287	192.17
414.748	235.57
415.208	225.67
415.669	192.77
416.13	187.67
416.59	184.27
417.051	188.87
417.511	193.87
417.972	211.67
418.432	220.67
418.893	263.27
419.353	228.47
419.814	173.97
420.274	158.47
420.734	167.57
421.195	177.07
421.655	177.37
422.115	171.57
422.576	163.07
423.036	173.47
423.496	184.37
423.956	191.87
424.416	208.57
424.876	231.37
425.336	229.07
425.797	236.87
426.257	222.97
426.717	207.97
427.177	208.17
427.637	199.37
428.097	210.87
428.556	223.97
429.016	237.87
429.476	236.07
429.936	239.67
430.396	242.07
430.856	260.87
431.315	276.07
431.775	306.37
432.235	339.07
432.694	313.27
433.154	319.17
433.614	341.37
434.073	291.57
434.533	247.27
434.993	235.87
435.452	247.27
435.912	259.17
436.371	253.17
436.83	250.87
437.29	239.57
437.749	218.37
438.209	215.37
438.668	238.57
439.127	249.87
439.587	232.07
440.046	214.07
440.505	230.97
440.964	236.67
441.424	277.07
441.883	264.97
442.342	227.07
442.801	199.27
443.26	194.87
443.719	201.67
444.178	197.57
444.637	183.67
445.096	194.37
445.555	199.07
446.014	201.77
446.473	204.57
446.932	205.87
447.391	196.67
447.849	203.37
448.308	194.97
448.767	195.57
449.226	212.17
449.685	202.77
450.143	225.47
450.602	216.07
451.061	199.57
451.519	210.37
451.978	203.57
452.436	212.17
452.895	215.77
453.353	223.47
453.812	213.47
454.27	218.07
454.729	208.27
455.187	209.27
455.646	209.67
456.104	215.47
456.562	227.27
457.021	233.87
457.479	231.87
457.937	235.67
458.395	222.87
458.854	218.37
459.312	228.07
459.77	236.27
460.228	223.57
460.686	223.07
461.144	224.27
461.602	212.17
462.06	220.47
462.518	223.27
462.976	222.77
463.434	230.47
463.892	234.87
464.35	244.57
464.808	261.57
465.266	231.67
465.724	248.57
466.181	250.17
466.639	242.77
467.097	262.27
467.555	264.67
468.012	269.37
468.47	273.77
468.928	284.37
469.385	301.17
469.843	309.37
470.3	309.37
470.758	316.97
471.215	335.87
471.673	354.07
472.13	349.77
472.588	363.47
473.045	327.57
473.503	334.17
473.96	347.27
474.417	364.97
474.875	381.47
475.332	423.17
475.789	404.87
476.246	410.27
476.704	423.07
477.161	441.37
477.618	464.37
478.075	488.37
478.532	536.87
478.989	603.97
479.446	703.77
479.903	688.47
480.36	723.07
480.817	772.37
481.274	865.37
481.731	960.97
482.188	1044.57
482.645	1165.97
483.102	1263.97
483.558	1395.37
484.015	1444.67
484.472	1425.27
484.929	1376.67
485.385	1336.87
485.842	1289.47
486.299	1225.27
486.755	1158.57
487.212	988.77
487.668	833.87
488.125	766.97
488.582	699.87
489.038	669.67
489.494	643.97
489.951	620.37
490.407	600.67
490.864	583.97
491.32	575.47
491.776	568.57
492.233	575.47
492.689	552.77
493.145	533.47
493.602	522.87
494.058	551.07
494.514	537.07
494.97	561.17
495.426	565.57
495.882	547.57
496.338	550.87
496.794	559.57
497.251	549.67
497.707	555.07
498.163	561.27
498.618	583.87
499.074	576.87
499.53	602.27
499.986	597.47
500.442	582.27
500.898	562.47
501.354	557.07
501.809	569.47
502.265	569.07
502.721	595.37
503.177	597.77
503.632	591.97
504.088	605.17
504.543	627.27
504.999	618.37
505.455	581.17
505.91	567.67
506.366	564.37
506.821	547.97
507.277	554.17
507.732	557.17
508.187	560.77
508.643	559.17
509.098	557.07
509.553	583.47
510.009	600.77
510.464	597.17
510.919	609.67
511.375	614.17
511.83	629.07
512.285	642.37
512.74	670.27
513.195	686.37
513.65	686.57
514.105	688.07
514.56	693.37
515.015	716.37
515.47	731.27
515.925	708.67
516.38	711.97
516.835	716.87
517.29	704.97
517.745	683.87
518.2	685.07
518.655	664.67
519.109	665.37
519.564	660.87
520.019	647.97
520.474	639.77
520.928	646.87
521.383	635.97
521.838	626.07
522.292	632.47
522.747	631.57
523.201	620.27
523.656	608.97
524.11	606.77
524.565	614.87
525.019	622.07
525.474	615.27
525.928	620.47
526.382	611.07
526.837	616.77
527.291	628.47
527.745	619.37
528.2	621.27
528.654	608.57
529.108	603.57
529.562	596.87
530.016	611.07
530.47	612.97
530.925	607.87
531.379	615.37
531.833	621.17
532.287	623.37
532.741	627.67
533.195	623.57
533.649	629.67
534.103	638.57
534.556	619.87
535.01	633.47
535.464	626.37
535.918	642.77
536.372	630.17
536.826	633.67
537.279	620.27
537.733	625.57
538.187	623.17
538.64	629.07
539.094	645.57
539.548	637.27
540.001	643.57
540.455	638.17
540.908	650.27
541.362	643.77
541.815	653.47
542.269	661.87
542.722	664.27
543.175	671.27
543.629	667.77
544.082	681.57
544.536	686.57
544.989	682.37
545.442	691.97
545.895	686.97
546.349	700.37
546.802	689.57
547.255	696.07
547.708	702.17
548.161	702.77
548.614	717.47
549.067	727.27
549.52	719.57
549.973	707.27
550.426	703.77
550.879	690.57
551.332	698.07
551.785	700.77
552.238	702.17
552.691	711.17
553.144	717.07
553.596	731.37
554.049	756.77
554.502	780.47
554.955	786.37
555.407	793.67
555.86	780.87
556.313	772.17
556.765	766.17
557.218	772.87
557.67	766.17
558.123	763.07
558.576	756.77
559.028	759.97
559.48	770.57
559.933	757.37
560.385	724.87
560.838	698.87
561.29	683.27
561.742	672.67
562.195	653.77
562.647	662.97
563.099	666.57
563.551	673.47
564.004	685.27
564.456	669.87
564.908	666.67
565.36	640.37
565.812	637.57
566.264	631.47
566.716	631.37
567.168	622.97
567.62	622.97
568.072	604.37
568.524	600.17
568.976	596.17
569.428	577.77
569.88	581.07
570.332	588.87
570.784	587.27
571.235	585.27
571.687	593.37
572.139	598.47
572.59	616.67
573.042	612.67
573.494	613.47
573.945	603.27
574.397	579.77
574.849	582.37
575.3	590.17
575.752	592.97
576.203	578.67
576.655	585.67
577.106	560.27
577.557	555.67
578.009	569.27
578.46	572.57
578.912	561.77
579.363	565.27
579.814	572.07
580.265	568.27
580.717	568.07
581.168	567.77
581.619	583.07
582.07	577.37
582.521	578.67
582.972	562.47
583.423	583.97
583.875	574.27
584.326	596.37
584.777	637.67
585.227	700.67
585.678	779.57
586.129	863.77
586.58	925.17
587.031	1007.37
587.482	1158.97
587.933	1318.17
588.384	1124.37
588.834	834.77
589.285	690.67
589.736	660.97
590.186	655.97
590.637	654.77
591.088	620.47
591.538	622.47
591.989	618.07
592.439	610.77
592.89	619.17
593.34	603.77
593.791	604.37
594.241	597.57
594.692	601.87
595.142	595.37
595.593	590.27
596.043	595.77
596.493	600.47
596.943	600.67
597.394	596.97
597.844	595.27
598.294	599.17
598.744	625.07
599.195	651.47
599.645	682.47
600.095	704.57
600.545	762.97
600.995	801.17
601.445	859.57
601.895	916.37
602.345	945.97
602.795	930.97
603.245	891.57
603.695	847.47
604.145	809.27
604.594	760.17
605.044	726.87
605.494	673.37
605.944	626.17
606.393	614.77
606.843	605.47
607.293	613.37
607.743	594.67
608.192	615.27
608.642	634.87
609.091	630.57
609.541	634.77
609.99	636.07
610.44	625.27
610.889	601.27
611.339	572.57
611.788	565.47
612.238	577.97
612.687	601.67
613.136	595.47
613.586	607.57
614.035	617.77
614.484	618.17
614.933	621.77
615.383	620.27
615.832	604.37
616.281	593.67
616.73	576.07
617.179	554.57
617.628	536.47
618.077	525.07
618.526	512.97
618.975	515.37
619.424	507.67
619.873	502.67
620.322	501.77
620.771	498.97
621.22	501.87
621.669	498.67
622.118	485.57
622.567	475.67
623.015	466.77
623.464	461.67
623.913	462.87
624.361	452.47
624.81	452.27
625.259	458.77
625.707	459.57
626.156	460.27
626.604	468.77
627.053	466.87
627.501	462.77
627.95	462.07
628.398	479.97
628.847	466.37
629.295	466.97
629.744	468.87
630.192	460.17
630.64	465.77
631.089	461.67
631.537	475.47
631.985	471.77
632.433	493.67
632.881	492.97
633.33	529.47
633.778	519.37
634.226	456.87
634.674	466.27
635.122	467.57
635.57	483.57
636.018	506.77
636.466	472.17
636.914	454.27
637.362	467.37
637.81	474.97
638.258	485.37
638.705	471.57
639.153	501.97
639.601	503.17
640.049	515.47
640.497	547.87
640.944	572.77
641.392	522.07
641.84	492.87
642.287	480.47
642.735	467.17
643.182	471.47
643.63	463.07
644.078	471.97
644.525	477.07
644.973	485.57
645.42	483.07
645.867	507.47
646.315	519.87
646.762	538.27
647.21	563.87
647.657	581.17
648.104	614.37
648.551	628.87
648.999	672.07
649.446	733.27
649.893	804.27
650.34	931.57
650.787	1108.77
651.234	1385.07
651.682	1784.27
652.129	2457.67
652.576	3510.27
653.023	5199.17
653.47	7213.27
653.917	9127.47
654.363	10760.27
654.81	12109.87
655.257	11519.77
655.704	7475.87
656.151	4368.77
656.598	2826.37
657.044	1995.87
657.491	1530.87
657.938	1228.77
658.385	1010.67
658.831	883.37
659.278	778.67
659.724	692.17
660.171	634.97
660.618	576.17
661.064	539.87
661.511	532.67
661.957	516.37
662.404	509.87
662.85	509.37
663.296	489.37
663.743	450.47
664.189	426.77
664.635	425.17
665.082	426.57
665.528	421.47
665.974	421.87
666.42	406.97
666.867	397.97
667.313	386.67
667.759	389.07
668.205	389.17
668.651	389.57
669.097	399.27
669.543	400.57
669.989	385.77
670.435	352.77
670.881	356.67
671.327	364.97
671.773	378.57
672.219	398.27
672.665	435.27
673.11	458.47
673.556	499.97
674.002	543.27
674.448	525.47
674.893	431.97
675.339	379.37
675.785	343.57
676.23	332.77
676.676	310.97
677.122	307.67
677.567	296.17
678.013	292.87
678.458	285.27
678.904	284.17
679.349	279.17
679.794	275.27
680.24	277.77
680.685	282.27
681.131	275.97
681.576	277.37
682.021	279.67
682.466	271.07
682.912	274.27
683.357	278.47
683.802	296.77
684.247	315.57
684.692	354.07
685.137	398.07
685.583	431.27
686.028	453.77
686.473	418.97
686.918	357.77
687.363	333.77
687.807	316.17
688.252	283.67
688.697	283.27
689.142	266.97
689.587	262.47
690.032	253.67
690.477	272.77
690.921	272.37
691.366	303.97
691.811	314.77
692.255	334.27
692.7	370.57
693.145	391.37
693.589	531.87
694.034	860.77
694.478	1212.77
694.923	1411.27
695.367	1865.87
695.812	975.97
696.256	412.17
696.701	285.87
697.145	271.47
697.59	258.97
698.034	256.57
698.478	260.27
698.922	255.57
699.367	255.97
699.811	265.17
700.255	279.47
700.699	300.87
701.143	337.67
701.588	377.07
702.032	407.07
702.476	411.27
702.92	388.37
703.364	387.57
703.808	481.87
704.252	796.97
704.696	1138.97
705.14	1342.77
705.584	1747.07
706.027	862.17
706.471	422.77
706.915	317.67
707.359	273.47
707.803	257.77
708.246	245.67
708.69	251.87
709.134	246.97
709.577	240.47
710.021	250.67
710.465	244.07
710.908	230.97
711.352	233.77
711.795	249.57
712.239	276.77
712.682	299.87
713.126	328.67
713.569	380.57
714.012	296.87
714.456	254.87
714.899	241.57
715.342	216.17
715.786	206.07
716.229	204.87
716.672	204.87
717.115	193.07
717.558	190.67
718.002	201.57
718.445	206.57
718.888	227.97
719.331	230.17
719.774	244.07
720.217	237.07
720.66	223.27
721.103	211.47
721.546	201.67
721.989	193.77
722.432	180.67
722.874	190.07
723.317	184.37
723.76	181.77
724.203	203.97
724.645	243.67
725.088	344.97
725.531	444.27
725.974	519.77
726.416	439.27
726.859	238.87
727.301	188.17
727.744	180.67
728.187	183.67
728.629	193.57
729.071	186.87
729.514	203.67
729.956	213.37
730.399	219.17
730.841	226.37
731.283	216.57
731.726	211.17
732.168	206.87
732.61	213.87
733.053	222.17
733.495	241.27
733.937	277.37
734.379	307.67
734.821	340.07
735.263	413.07
735.705	641.07
736.148	1201.67
736.59	2027.87
737.032	2512.17
737.474	2048.77
737.916	652.87
738.357	338.67
738.799	256.07
739.241	234.77
739.683	218.27
740.125	230.57
740.567	233.97
741.008	255.07
741.45	249.17
741.892	253.27
742.334	270.87
742.775	278.77
743.217	276.37
743.658	213.67
744.1	196.57
744.542	202.67
744.983	244.87
745.425	274.37
745.866	273.37
746.307	229.87
746.749	220.97
747.19	244.57
747.632	353.57
748.073	657.97
748.514	1423.27
748.956	2277.07
749.397	2843.87
749.838	2360.57
750.279	2427.07
750.72	1214.37
751.162	436.27
751.603	255.17
752.044	203.77
752.485	171.47
752.926	169.37
753.367	161.07
753.808	148.37
754.249	150.07
754.69	150.27
755.131	143.67
755.572	142.97
756.013	136.77
756.453	145.97
756.894	147.57
757.335	151.07
757.776	157.87
758.216	150.47
758.657	151.67
759.098	153.97
759.538	169.67
759.979	199.47
760.42	287.47
760.86	531.57
761.301	1367.47
761.741	3452.47
762.182	5367.07
762.622	3753.07
763.063	1054.57
763.503	433.07
763.943	275.07
764.384	271.57
764.824	326.27
765.264	367.87
765.705	249.17
766.145	165.47
766.585	145.17
767.025	140.17
767.465	146.67
767.906	190.97
768.346	258.57
768.786	280.27
769.226	206.47
769.666	246.77
770.106	460.07
770.546	1177.67
770.986	2132.97
771.426	1958.87
771.866	637.27
772.306	264.07
772.745	162.97
773.185	133.47
773.625	136.67
774.065	129.67
774.505	150.37
774.944	241.97
775.384	521.67
775.824	1009.77
776.263	1010.37
776.703	416.27
777.142	176.57
777.582	120.57
778.021	110.77
778.461	109.27
778.9	110.47
779.34	105.97
779.779	83.47
780.219	90.87
780.658	85.97
781.097	88.67
781.537	87.27
781.976	83.27
782.415	81.57
782.855	85.77
783.294	80.87
783.733	80.27
784.172	80.27
784.611	78.27
785.05	89.17
785.489	85.37
785.928	95.17
786.367	96.57
786.806	95.77
787.245	107.47
787.684	106.47
788.123	119.37
788.562	105.27
789.001	98.07
789.44	94.67
789.879	91.57
790.317	88.57
790.756	105.47
791.195	100.67
791.634	122.97
792.072	158.97
792.511	272.17
792.95	745.97
793.388	1724.67
793.827	1613.87
794.265	545.97
794.704	216.37
795.142	143.77
795.581	119.67
796.019	109.47
796.458	102.77
796.896	92.47
797.334	108.07
797.773	129.97
798.211	167.07
798.649	326.57
799.087	788.57
799.526	1271.17
799.964	1595.37
800.402	1667.97
800.84	618.37
801.278	244.97
801.716	144.37
802.154	120.27
802.592	113.47
803.03	99.97
803.468	99.77
803.906	106.77
804.344	120.27
804.782	111.27
805.22	106.27
805.658	104.17
806.096	112.37
806.533	125.07
806.971	134.97
807.409	175.17
807.847	239.17
808.284	496.17
808.722	1447.47
809.16	2671.77
809.597	2450.97
810.035	4361.97
810.472	4923.47
810.91	1733.77
811.347	637.67
811.785	314.87
812.222	199.97
812.66	153.37
813.097	125.07
813.535	104.37
813.972	100.77
814.409	96.07
814.846	81.77
815.284	84.57
815.721	80.87
816.158	84.07
816.595	88.77
817.032	141.27
817.47	160.97
817.907	140.37
818.344	118.87
818.781	97.67
819.218	78.27
819.655	91.27
820.092	146.17
820.529	178.27
820.966	145.27
821.403	104.57
821.839	87.37
822.276	86.27
822.713	96.27
823.15	103.17
823.587	88.87
824.023	116.67
824.46	221.47
824.897	692.07
825.333	1113.77
825.77	472.17
826.206	177.77
826.643	107.77
827.08	81.37
827.516	59.17
827.953	63.37
828.389	64.07
828.825	54.27
829.262	57.97
829.698	44.87
830.135	54.97
830.571	42.27
831.007	47.67
831.443	47.07
831.88	47.37
832.316	44.57
832.752	44.37
833.188	52.17
833.624	48.37
834.06	57.67
834.497	56.67
834.933	59.07
835.369	62.87
835.805	50.77
836.241	62.97
836.677	62.17
837.112	63.37
837.548	76.37
837.984	106.67
838.42	153.17
838.856	376.97
839.292	1193.27
839.727	1918.87
840.163	877.97
840.599	713.37
841.034	1643.07
841.47	1788.67
841.906	635.57
842.341	268.57
842.777	184.37
843.212	257.47
843.648	258.37
844.083	121.57
844.519	76.37
844.954	59.57
845.39	49.27
845.825	41.57
846.261	46.97
846.696	49.57
847.131	46.77
847.566	50.57
848.002	36.07
848.437	42.67
848.872	44.07
849.307	51.57
849.742	66.17
850.177	132.47
850.613	435.37
851.048	721.27
851.483	310.97
851.918	116.47
852.353	69.27
852.788	43.27
853.223	41.17
853.657	39.27
854.092	37.17
854.527	32.77
854.962	31.67
855.397	33.27
855.832	37.57
856.266	32.17
856.701	26.67
857.136	29.77
857.57	32.57
858.005	39.77
858.44	49.97
858.874	36.97
859.309	42.57
859.743	29.17
860.178	37.27
860.612	34.77
861.047	45.77
861.481	54.47
861.915	54.67
862.35	40.07
862.784	29.27
863.218	32.57
863.653	24.57
864.087	38.97
864.521	43.47
864.955	49.27
865.39	127.87
865.824	139.37
866.258	95.97
866.692	134.27
867.126	145.87
867.56	88.67
867.994	44.17
868.428	26.97
868.862	39.17
869.296	40.97
869.73	43.37
870.164	41.47
870.598	30.97
871.031	29.87
871.465	25.77
871.899	30.47
872.333	19.57
872.766	25.87
873.2	15.37
873.634	23.57
874.067	16.87
874.501	21.97
874.935	26.27
875.368	24.77
875.802	24.17
876.235	17.27
876.669	18.87
877.102	14.57
877.535	25.87
877.969	18.97
878.402	16.57
878.836	19.57
879.269	19.87
879.702	23.37
880.135	13.47
880.569	19.07
881.002	22.07
881.435	21.37
881.868	15.87
882.301	16.47
882.734	22.57
883.167	21.77
883.601	20.77
884.034	17.77
884.467	11.57
884.899	18.87
885.332	18.17
885.765	12.27
886.198	10.57
886.631	18.27
887.064	21.07
887.497	10.97
887.929	15.47
888.362	14.27
888.795	7.27
889.228	16.17
889.66	19.97
890.093	18.07
890.526	12.07
890.958	10.47
891.391	17.77
891.823	18.27
892.256	11.27
892.688	9.47
893.121	18.27
893.553	12.47
893.985	19.77
894.418	5.77
894.85	3.57
895.282	17.57
895.715	15.17
896.147	18.47
896.579	14.97
897.011	9.57
897.444	13.67
897.876	4.17
898.308	8.57
898.74	9.37
899.172	8.97
899.604	15.87
900.036	20.07
900.468	5.87
900.9	12.67
901.332	17.37
901.764	12.27
902.196	17.27
902.628	13.37
903.06	13.07
903.491	22.67
903.923	19.47
904.355	13.97
904.787	15.67
905.218	17.57
905.65	18.37
906.082	3.57
906.513	4.47
906.945	14.87
907.376	14.17
907.808	16.37
908.239	14.77
908.671	16.77
909.102	17.47
909.534	24.87
909.965	41.67
910.397	65.27
910.828	259.27
911.259	401.27
911.691	181.67
912.122	93.47
912.553	42.27
912.984	31.07
913.415	19.77
913.847	20.87
914.278	12.57
914.709	11.67
915.14	14.57
915.571	16.37
916.002	4.17
916.433	17.67
916.864	12.97
917.295	12.77
917.726	15.47
918.157	7.07
918.587	27.27
919.018	15.07
919.449	21.87
919.88	13.97
920.311	27.77
920.741	30.97
921.172	133.87
921.603	122.77
922.033	58.57
922.464	38.77
922.895	21.37
923.325	18.37
923.756	14.57
924.186	13.57
924.617	22.17
925.047	30.67
925.478	44.97
925.908	36.57
926.338	20.17
926.769	12.77
927.199	17.77
927.629	9.67
928.06	15.27
928.49	9.47
928.92	14.37
929.35	7.47
929.78	12.77
930.21	6.77
930.641	3.77
931.071	7.97
931.501	3.67
931.931	10.07
932.361	4.37
932.791	0.77
933.221	0.77
933.651	2.57
934.08	13.67
934.51	26.77
934.94	10.57
935.37	9.07
935.8	10.87
936.229	6.47
936.659	8.67
937.089	0.27
937.519	12.07
937.948	24.37
938.378	19.17
938.807	3.67
939.237	0.27
939.666	7.17
940.096	-7.73
940.525	4.77
940.955	-2.73
941.384	6.17
941.814	-2.93
942.243	3.07
942.672	6.17
943.102	-3.13
943.531	0.37
943.96	2.27
944.39	0.97
944.819	0.97
945.248	2.47
945.677	-0.93
946.106	5.87
946.535	1.07
946.964	3.07
947.393	4.07
947.822	1.37
948.251	-1.13
948.68	7.47
949.109	5.47
949.538	7.17
949.967	1.07
950.396	0.87
950.825	-4.53
951.254	3.47
951.682	-7.23
952.111	5.37
952.54	6.47
952.969	-2.43
953.397	-5.13
953.826	3.37
954.254	-3.23
954.683	4.97
955.112	0.17
955.54	-1.53
955.969	1.27
956.397	2.17
956.826	-3.33
957.254	-2.23
957.682	-0.63
958.111	8.47
958.539	-3.13
958.967	1.57
959.396	0.07
959.824	2.87
960.252	2.77
960.68	-5.53
961.109	-6.03
961.537	-5.03
961.965	-1.83
962.393	-3.73
962.821	-7.73
963.249	-1.03
963.677	3.77
964.105	-1.13
964.533	37.57
964.961	29.07
965.389	15.97
965.817	5.57
966.245	2.57
966.672	3.67
967.1	-5.53
967.528	3.97
967.956	-0.83
968.383	0.77
968.811	-3.73
969.239	0.07
969.666	-4.13
970.094	0.57
970.522	2.47
970.949	-1.53
971.377	-2.63
971.804	-8.63
972.232	-3.53
972.659	-5.63
973.087	-3.93
973.514	-4.73
973.941	-8.13
974.369	6.37
974.796	1.87
975.223	3.07
975.651	0.17
976.078	4.77
976.505	-4.13
976.932	0.07
977.359	8.37
977.786	14.97
978.214	-2.73
978.641	-3.03
979.068	-3.03
979.495	-8.13
979.922	2.37
980.349	-2.73
980.776	7.57
981.202	-6.73
981.629	2.87
982.056	3.77
982.483	-0.33
982.91	5.07
983.337	-8.73
983.763	1.67
984.19	0.57
984.617	4.97
985.043	-4.83
985.47	0.07
985.897	-6.33
986.323	-10.23
986.75	-1.73
987.176	-2.23
987.603	-1.53
988.029	0.77
988.456	2.27
988.882	3.27
989.308	-1.63
989.735	-7.43
990.161	3.57
990.587	-3.53
991.014	-3.83
991.44	4.07
991.866	-2.93
992.292	-6.23
992.719	-2.13
993.145	-0.73
993.571	-9.53
993.997	-4.73
994.423	0.97
994.849	-4.83
995.275	4.77
995.701	-4.03
996.127	-1.13
996.553	-3.03
996.979	-4.23
997.405	0.37
997.83	-4.83
998.256	-7.13
998.682	-3.53
999.108	-8.73
999.534	-2.43
999.959	0.07
1000.385	-7.63
1000.811	2.07
1001.236	-9.63
1001.662	-11.13
1002.087	-7.03
1002.513	5.17
1002.938	0.47
1003.364	-3.93
1003.789	-3.53
1004.215	3.17
1004.64	0.27
1005.066	7.47
1005.491	2.97
1005.916	-0.43
1006.342	-5.03
1006.767	-4.63
1007.192	2.87
1007.617	-10.33
1008.042	-4.63
1008.468	-3.63
1008.893	-0.13
1009.318	-0.53
1009.743	-0.33
1010.168	4.77
1010.593	-1.83
1011.018	-9.23
1011.443	-3.93
1011.868	1.17
1012.293	0.07
1012.718	-6.53
1013.143	-1.43
1013.567	-3.53
1013.992	-0.83
1014.417	-13.53
1014.842	3.27
1015.267	-3.13
1015.691	-4.23
1016.116	4.47
1016.541	-1.73
1016.965	1.17
1017.39	4.97
1017.814	-0.93
1018.239	-6.13
1018.663	-6.63
1019.088	-5.93
1019.512	-1.33
1019.937	-0.03
1020.361	-3.53
1020.785	-11.13
1021.21	-5.13
1021.634	1.17
1022.058	0.77
1022.483	4.17
1022.907	-3.13
1023.331	-5.73
1023.755	-5.13
1024.179	-0.03
1024.604	-6.63
1025.028	-8.73
1025.452	-8.43
1025.876	-5.43
1026.3	1.37
1026.724	-12.53
1027.148	-8.33
1027.572	-11.33
1027.996	-4.23
1028.42	4.07
1028.843	-0.43
1029.267	-1.93
1029.691	0.07
1030.115	-11.53
1030.539	-6.63
1030.962	-3.83
1031.386	-10.03
1031.81	-1.73
1032.233	0.37
1032.657	2.97
1033.08	-2.93
1033.504	-2.33
1033.927	1.87
1034.351	1.37
1034.774	-1.33
1035.198	-0.23
1035.621	-10.23
1036.045	-5.23
1036.468	0.47
1036.891	-6.63
1037.315	-11.43
1037.738	-10.03
1038.161	2.37
1038.584	-8.53
1039.008	-1.23
1039.431	-2.53
1039.854	-4.13
1040.277	-5.63
1040.7	-8.63
1041.123	1.97
1041.546	-9.63
1041.969	-4.23
1042.392	0.77
1042.815	-5.83
1043.238	-0.63
1043.661	4.77
1044.084	-6.83
1044.507	-1.63
1044.93	-8.73
1045.352	-5.73
1045.775	-1.53
1046.198	0.87
1046.621	-2.43
1047.043	2.57
1047.466	5.07
1047.889	-4.53
1048.311	-6.93
1048.734	-4.03
1049.156	-4.03
1049.579	-3.43
1050.001	-0.63
1050.424	3.37
1050.846	-0.33
1051.269	0.77
1051.691	-7.33
1052.113	-4.23
1052.536	-0.63
1052.958	-1.43
1053.38	-5.13
1053.802	-10.83
1054.225	4.17
1054.647	-8.73
1055.069	-4.93
1055.491	4.87
1055.913	-2.83
1056.335	3.07
1056.757	0.37
1057.179	-4.13
1057.601	-4.93
1058.023	-0.93
1058.445	-0.33
1058.867	-5.33
1059.289	-2.33
1059.711	-6.43
1060.133	-5.33
1060.555	-2.23
1060.976	-6.23
1061.398	-1.03
1061.82	-14.43
1062.241	-5.03
1062.663	-4.13
1063.085	-4.73
1063.506	4.67
1063.928	-11.83
1064.35	-0.23
1064.771	-13.23
1065.193	-1.63
1065.614	-7.73
1066.035	1.37
1066.457	1.57
1066.878	0.97
1067.3	-5.63
1067.721	-4.03
1068.142	-3.63
1068.564	-8.53
1068.985	-7.23
1069.406	-0.63
1069.827	-0.63
1070.248	0.77
1070.67	-8.93
1071.091	-4.93
1071.512	-9.53
1071.933	-2.63
1072.354	-1.53
1072.775	-1.63
1073.196	-10.23
1073.617	-9.03
1074.038	-6.43
1074.459	-4.43
1074.88	-6.53
1075.3	-2.33
1075.721	-6.93
1076.142	-2.53
1076.563	-4.63
1076.983	-6.53
1077.404	-11.93
1077.825	-5.63
1078.246	-5.73
1078.666	-8.43
1079.087	-2.53
1079.507	-2.23
1079.928	-0.23
1080.348	-0.13
1080.769	-8.23
1081.189	-3.93
1081.61	-2.33
1082.03	-5.33
1082.451	-6.53
1082.871	-0.73
1083.291	-3.33
1083.711	-1.73
1084.132	-10.23
1084.552	-5.93
1084.972	2.17
1085.392	-10.93
1085.813	-4.63
1086.233	-5.93
1086.653	-5.83
1087.073	-2.73
1087.493	-4.03
1087.913	-3.53
1088.333	-4.73
1088.753	-10.03
1089.173	-4.03
1089.593	1.27
1090.013	5.07
1090.433	1.17
1090.852	-1.03
1091.272	-2.43
1091.692	1.87
1092.112	-5.03
1092.531	-4.53
1092.951	-13.43
1093.371	-3.53
1093.79	1.37
1094.21	-4.63
1094.63	-6.73
1095.049	-6.73
1095.469	-5.63
1095.888	2.47
1096.308	3.67
1096.727	5.57
1097.146	-5.93
1097.566	-0.13
1097.985	-10.33
1098.405	3.87
1098.824	-9.93
1099.243	-8.03
1099.662	-4.03
1100.082	0.17
1100.501	-5.03
1100.92	-10.73
1101.339	-6.33
1101.758	-2.83
