Data from 20171114-ORNL-Ar_H_NY_Subt18_08-04-03-973.txt Node
Date: Tue Nov 14 08:04:03 EST 2017
User: Ender
Spectrometer: HR+D1039
Trigger mode: 0
Integration Time (sec): 2.730000E-2
Scans to average: 10
Electric dark correction enabled: true
Nonlinearity correction enabled: false
Boxcar width: 0
XAxis mode: Wavelengths
Number of Pixels in Spectrum: 2048
>>>>>Begin Spectral Data<<<<<
187.836	-0.89
188.309	-0.89
188.782	-0.89
189.255	-2.49
189.728	6.91
190.201	2.41
190.674	1.51
191.147	1.51
191.619	-3.29
192.092	1.01
192.565	1.81
193.038	4.81
193.511	3.21
193.984	-1.19
194.456	-4.69
194.929	-1.79
195.402	-3.89
195.874	-4.89
196.347	-5.79
196.82	-12.09
197.292	3.61
197.765	-4.69
198.237	0.01
198.71	2.01
199.182	0.21
199.655	-1.49
200.127	2.11
200.6	-7.79
201.072	-3.29
201.544	-4.29
202.017	-3.59
202.489	2.21
202.961	-4.69
203.433	-6.69
203.906	0.71
204.378	-4.59
204.85	-6.39
205.322	-8.69
205.794	-1.79
206.266	-1.99
206.739	-7.49
207.211	0.41
207.683	-3.19
208.155	-12.59
208.627	-5.69
209.099	-4.59
209.57	-13.19
210.042	-3.79
210.514	-3.09
210.986	-1.69
211.458	-8.89
211.93	-3.39
212.402	-2.59
212.873	-7.69
213.345	-14.29
213.817	-10.89
214.288	-2.69
214.76	-7.19
215.232	-3.89
215.703	-5.79
216.175	-6.99
216.646	0.31
217.118	-9.29
217.589	-4.59
218.061	-5.29
218.532	-6.99
219.004	-1.69
219.475	-5.59
219.946	-3.79
220.418	-7.39
220.889	-2.49
221.36	-4.09
221.832	-3.99
222.303	-9.89
222.774	-1.79
223.245	-7.19
223.717	-0.29
224.188	1.31
224.659	-3.19
225.13	-6.29
225.601	-4.09
226.072	-3.39
226.543	1.51
227.014	2.91
227.485	-1.69
227.956	-9.89
228.427	-8.79
228.898	-4.79
229.369	-2.69
229.839	-5.89
230.31	-7.99
230.781	-0.19
231.252	-7.89
231.722	-11.49
232.193	-4.99
232.664	0.01
233.135	-0.29
233.605	-7.89
234.076	-8.89
234.546	-4.29
235.017	6.01
235.487	-0.59
235.958	-2.69
236.428	-11.59
236.899	3.01
237.369	1.51
237.84	-5.59
238.31	-0.09
238.78	1.51
239.251	-3.79
239.721	-3.99
240.191	1.21
240.662	-2.09
241.132	-4.99
241.602	-5.99
242.072	-5.99
242.542	8.11
243.013	-5.19
243.483	-3.69
243.953	-0.89
244.423	-2.29
244.893	-3.39
245.363	-3.19
245.833	1.01
246.303	-8.39
246.773	5.81
247.243	0.21
247.712	-0.29
248.182	1.21
248.652	3.91
249.122	-6.29
249.592	8.41
250.061	13.41
250.531	16.81
251.001	11.71
251.471	13.81
251.94	8.21
252.41	2.31
252.879	-5.99
253.349	9.21
253.818	6.61
254.288	2.51
254.757	-0.69
255.227	0.01
255.696	3.11
256.166	0.91
256.635	0.61
257.105	8.01
257.574	-1.69
258.043	4.51
258.513	7.61
258.982	3.31
259.451	-1.59
259.92	7.31
260.389	3.81
260.859	10.51
261.328	2.21
261.797	2.81
262.266	1.81
262.735	8.41
263.204	0.51
263.673	0.01
264.142	2.11
264.611	0.41
265.08	0.01
265.549	-2.39
266.018	-0.09
266.487	-8.59
266.955	-8.59
267.424	-1.69
267.893	3.01
268.362	-4.29
268.83	3.61
269.299	3.81
269.768	1.11
270.236	-2.59
270.705	1.11
271.174	-1.49
271.642	0.51
272.111	1.51
272.579	6.31
273.048	13.61
273.516	12.51
273.985	16.81
274.453	16.31
274.922	14.01
275.39	7.51
275.858	2.31
276.327	4.61
276.795	9.81
277.263	5.31
277.731	14.21
278.2	33.11
278.668	36.01
279.136	32.11
279.604	5.11
280.072	8.91
280.54	4.01
281.008	7.41
281.477	12.31
281.945	5.11
282.413	13.51
282.881	12.01
283.348	-2.39
283.816	6.91
284.284	7.61
284.752	8.81
285.22	10.41
285.688	10.31
286.156	7.91
286.623	33.71
287.091	30.71
287.559	12.21
288.026	7.81
288.494	6.71
288.962	-8.09
289.429	2.11
289.897	12.31
290.364	7.21
290.832	12.11
291.3	4.21
291.767	8.61
292.234	15.31
292.702	9.31
293.169	9.91
293.637	11.41
294.104	14.71
294.571	-2.69
295.039	5.31
295.506	5.51
295.973	16.41
296.44	10.21
296.908	15.51
297.375	11.01
297.842	10.41
298.309	3.71
298.776	11.91
299.243	13.81
299.71	6.31
300.177	10.21
300.644	18.81
301.111	10.41
301.578	12.41
302.045	7.81
302.512	8.01
302.979	15.21
303.446	12.61
303.913	11.41
304.379	10.11
304.846	17.41
305.313	13.61
305.78	11.81
306.246	16.21
306.713	16.01
307.18	22.41
307.646	17.51
308.113	17.01
308.579	16.11
309.046	15.01
309.512	18.71
309.979	10.71
310.445	23.91
310.912	23.21
311.378	23.11
311.845	18.41
312.311	20.01
312.777	19.51
313.244	23.81
313.71	27.01
314.176	16.01
314.642	14.11
315.109	16.41
315.575	23.21
316.041	25.61
316.507	21.71
316.973	28.81
317.439	24.11
317.905	25.81
318.371	21.11
318.837	24.61
319.303	21.41
319.769	24.41
320.235	18.51
320.701	19.01
321.167	25.31
321.633	26.81
322.099	30.41
322.564	31.71
323.03	32.91
323.496	24.41
323.962	29.21
324.427	25.51
324.893	35.11
325.359	22.21
325.824	31.41
326.29	23.91
326.755	26.21
327.221	30.31
327.686	28.91
328.152	34.01
328.617	27.41
329.083	37.31
329.548	38.21
330.014	32.11
330.479	28.21
330.944	34.41
331.41	27.81
331.875	30.81
332.34	32.91
332.805	33.91
333.271	32.71
333.736	27.11
334.201	40.71
334.666	44.11
335.131	41.61
335.596	36.31
336.061	38.71
336.526	33.21
336.991	34.81
337.456	43.71
337.921	38.11
338.386	27.81
338.851	34.81
339.316	34.11
339.781	39.21
340.246	36.31
340.711	33.41
341.175	39.21
341.64	35.21
342.105	35.41
342.569	47.31
343.034	46.81
343.499	41.51
343.963	38.91
344.428	52.91
344.893	49.41
345.357	44.01
345.822	43.11
346.286	51.71
346.751	53.41
347.215	46.91
347.679	49.61
348.144	73.21
348.608	62.11
349.073	51.11
349.537	59.91
350.001	53.91
350.465	74.01
350.93	60.21
351.394	60.91
351.858	51.41
352.322	72.91
352.786	59.31
353.25	68.31
353.715	86.71
354.179	75.21
354.643	88.11
355.107	81.11
355.571	83.61
356.035	76.81
356.498	89.01
356.962	83.41
357.426	97.81
357.89	83.41
358.354	65.81
358.818	67.51
359.281	66.81
359.745	64.01
360.209	65.11
360.673	66.41
361.136	62.11
361.6	74.01
362.064	69.91
362.527	69.51
362.991	80.11
363.454	64.71
363.918	62.31
364.381	65.51
364.845	72.31
365.308	72.71
365.772	73.71
366.235	73.51
366.698	70.51
367.162	68.71
367.625	70.41
368.088	71.51
368.552	70.61
369.015	71.11
369.478	81.01
369.941	87.71
370.404	73.81
370.867	86.51
371.331	88.01
371.794	98.51
372.257	87.51
372.72	92.91
373.183	89.41
373.646	85.71
374.109	84.41
374.572	84.31
375.035	87.21
375.497	87.71
375.96	89.81
376.423	86.11
376.886	93.31
377.349	92.41
377.811	85.01
378.274	89.21
378.737	89.51
379.199	98.61
379.662	89.61
380.125	99.01
380.587	96.71
381.05	104.81
381.512	109.61
381.975	110.21
382.437	107.41
382.9	99.41
383.362	113.51
383.825	119.61
384.287	133.01
384.75	114.81
385.212	113.51
385.674	117.41
386.136	113.51
386.599	107.51
387.061	105.81
387.523	109.61
387.985	113.31
388.447	122.01
388.91	121.21
389.372	128.31
389.834	123.81
390.296	123.91
390.758	123.61
391.22	133.61
391.682	175.61
392.144	231.71
392.606	189.21
393.068	138.61
393.529	143.41
393.991	135.41
394.453	123.91
394.915	133.01
395.377	160.51
395.838	178.11
396.3	134.01
396.762	125.51
397.224	111.51
397.685	120.11
398.147	110.71
398.608	112.71
399.07	112.31
399.531	121.11
399.993	121.71
400.454	131.81
400.916	124.21
401.377	117.01
401.839	130.51
402.3	127.11
402.762	137.31
403.223	159.41
403.684	156.11
404.145	140.71
404.607	143.51
405.068	140.11
405.529	139.51
405.99	159.91
406.451	149.01
406.913	148.91
407.374	141.91
407.835	139.21
408.296	147.21
408.757	146.91
409.218	160.31
409.679	151.81
410.14	153.71
410.601	160.31
411.062	160.11
411.522	163.51
411.983	158.01
412.444	147.81
412.905	160.21
413.366	168.51
413.826	172.21
414.287	191.31
414.748	240.31
415.208	219.31
415.669	191.61
416.13	185.51
416.59	181.41
417.051	189.61
417.511	200.91
417.972	211.11
418.432	219.61
418.893	253.61
419.353	229.61
419.814	175.11
420.274	157.01
420.734	161.41
421.195	174.81
421.655	173.51
422.115	171.51
422.576	171.91
423.036	172.31
423.496	188.71
423.956	187.51
424.416	203.51
424.876	234.21
425.336	230.61
425.797	232.91
426.257	227.41
426.717	205.11
427.177	205.91
427.637	195.41
428.097	204.81
428.556	220.31
429.016	237.31
429.476	235.01
429.936	244.91
430.396	237.61
430.856	248.61
431.315	269.81
431.775	292.11
432.235	328.31
432.694	304.81
433.154	311.31
433.614	325.41
434.073	281.91
434.533	247.51
434.993	237.91
435.452	238.01
435.912	249.41
436.371	244.11
436.83	238.71
437.29	228.11
437.749	209.81
438.209	211.51
438.668	225.01
439.127	236.41
439.587	225.11
440.046	216.01
440.505	217.91
440.964	234.81
441.424	259.11
441.883	259.61
442.342	228.71
442.801	200.81
443.26	193.91
443.719	190.31
444.178	191.21
444.637	188.31
445.096	195.41
445.555	198.31
446.014	201.21
446.473	201.81
446.932	201.21
447.391	199.21
447.849	201.91
448.308	200.61
448.767	181.81
449.226	210.21
449.685	209.01
450.143	222.61
450.602	204.91
451.061	201.71
451.519	200.51
451.978	203.21
452.436	198.31
452.895	207.81
453.353	222.31
453.812	220.71
454.27	205.51
454.729	213.71
455.187	204.21
455.646	217.31
456.104	216.21
456.562	222.01
457.021	232.11
457.479	218.71
457.937	231.61
458.395	226.01
458.854	215.41
459.312	222.41
459.77	229.61
460.228	222.31
460.686	213.71
461.144	223.11
461.602	219.01
462.06	219.61
462.518	227.41
462.976	223.61
463.434	228.01
463.892	227.31
464.35	238.01
464.808	244.01
465.266	232.91
465.724	238.41
466.181	235.21
466.639	242.61
467.097	256.31
467.555	262.81
468.012	259.81
468.47	267.61
468.928	283.81
469.385	300.21
469.843	297.61
470.3	296.51
470.758	307.01
471.215	336.31
471.673	347.91
472.13	347.91
472.588	350.31
473.045	323.81
473.503	333.81
473.96	346.91
474.417	350.71
474.875	380.51
475.332	412.11
475.789	397.61
476.246	403.11
476.704	421.51
477.161	440.11
477.618	454.71
478.075	487.91
478.532	530.81
478.989	579.51
479.446	665.61
479.903	655.81
480.36	700.81
480.817	746.71
481.274	836.41
481.731	932.01
482.188	1008.01
482.645	1120.71
483.102	1226.11
483.558	1330.61
484.015	1387.51
484.472	1372.11
484.929	1326.51
485.385	1297.91
485.842	1249.01
486.299	1192.11
486.755	1116.81
487.212	957.71
487.668	813.31
488.125	744.71
488.582	692.11
489.038	646.31
489.494	618.71
489.951	603.81
490.407	581.41
490.864	560.21
491.32	559.71
491.776	560.41
492.233	564.81
492.689	520.81
493.145	521.31
493.602	516.71
494.058	526.51
494.514	526.91
494.97	539.41
495.426	550.31
495.882	533.11
496.338	531.11
496.794	544.71
497.251	527.91
497.707	552.41
498.163	550.91
498.618	545.91
499.074	552.31
499.53	567.91
499.986	564.01
500.442	559.11
500.898	537.61
501.354	540.61
501.809	553.31
502.265	557.41
502.721	563.71
503.177	575.11
503.632	573.01
504.088	578.01
504.543	605.51
504.999	590.41
505.455	558.41
505.91	553.01
506.366	545.41
506.821	542.61
507.277	535.31
507.732	542.21
508.187	539.51
508.643	552.91
509.098	542.81
509.553	558.31
510.009	576.31
510.464	580.91
510.919	593.91
511.375	602.61
511.83	610.31
512.285	618.91
512.74	646.21
513.195	660.81
513.65	660.21
514.105	661.71
514.56	653.61
515.015	679.91
515.47	690.11
515.925	675.41
516.38	678.61
516.835	686.21
517.29	668.11
517.745	667.71
518.2	651.71
518.655	637.41
519.109	641.11
519.564	640.61
520.019	638.61
520.474	608.31
520.928	609.01
521.383	618.91
521.838	607.21
522.292	605.51
522.747	603.51
523.201	600.91
523.656	589.71
524.11	593.01
524.565	589.71
525.019	591.01
525.474	597.51
525.928	592.11
526.382	594.31
526.837	591.91
527.291	587.81
527.745	593.81
528.2	585.81
528.654	573.81
529.108	576.31
529.562	582.01
530.016	580.41
530.47	578.51
530.925	585.61
531.379	581.81
531.833	594.01
532.287	587.01
532.741	585.81
533.195	599.31
533.649	599.81
534.103	601.01
534.556	596.91
535.01	594.01
535.464	596.31
535.918	606.21
536.372	605.61
536.826	596.61
537.279	589.41
537.733	604.21
538.187	607.21
538.64	596.31
539.094	606.31
539.548	600.61
540.001	597.41
540.455	597.21
540.908	608.31
541.362	613.71
541.815	615.91
542.269	638.31
542.722	640.11
543.175	639.91
543.629	641.81
544.082	660.31
544.536	655.01
544.989	656.51
545.442	661.61
545.895	656.61
546.349	661.31
546.802	661.11
547.255	660.01
547.708	667.31
548.161	672.91
548.614	678.01
549.067	690.71
549.52	672.11
549.973	670.61
550.426	671.01
550.879	652.91
551.332	667.01
551.785	664.01
552.238	661.61
552.691	676.01
553.144	688.71
553.596	698.61
554.049	705.91
554.502	736.71
554.955	750.41
555.407	751.71
555.86	727.41
556.313	735.11
556.765	718.91
557.218	736.21
557.67	730.91
558.123	714.11
558.576	712.71
559.028	723.91
559.48	720.81
559.933	719.81
560.385	686.11
560.838	656.31
561.29	643.31
561.742	638.31
562.195	631.01
562.647	620.31
563.099	626.11
563.551	635.51
564.004	636.71
564.456	634.61
564.908	628.51
565.36	607.61
565.812	601.91
566.264	589.81
566.716	583.31
567.168	574.31
567.62	583.11
568.072	566.81
568.524	560.81
568.976	556.41
569.428	549.31
569.88	546.61
570.332	559.11
570.784	552.31
571.235	545.11
571.687	566.21
572.139	557.91
572.59	572.21
573.042	575.81
573.494	570.11
573.945	565.11
574.397	549.71
574.849	557.41
575.3	551.91
575.752	545.21
576.203	544.11
576.655	548.41
577.106	533.41
577.557	532.61
578.009	534.91
578.46	530.91
578.912	521.81
579.363	522.41
579.814	527.71
580.265	526.61
580.717	521.01
581.168	525.51
581.619	543.81
582.07	543.81
582.521	529.51
582.972	535.21
583.423	540.61
583.875	539.51
584.326	552.41
584.777	582.41
585.227	638.51
585.678	711.31
586.129	780.31
586.58	842.31
587.031	902.31
587.482	1036.21
587.933	1170.21
588.384	1022.61
588.834	764.41
589.285	636.21
589.736	617.21
590.186	615.41
590.637	605.11
591.088	594.11
591.538	584.21
591.989	578.21
592.439	563.61
592.89	569.81
593.34	559.41
593.791	555.01
594.241	542.21
594.692	558.31
595.142	545.71
595.593	538.91
596.043	552.31
596.493	558.41
596.943	558.01
597.394	559.71
597.844	552.71
598.294	571.71
598.744	591.31
599.195	608.41
599.645	639.81
600.095	654.91
600.545	702.21
600.995	750.51
601.445	796.01
601.895	844.31
602.345	883.81
602.795	874.91
603.245	833.41
603.695	799.51
604.145	747.51
604.594	711.71
605.044	678.61
605.494	626.21
605.944	583.11
606.393	574.31
606.843	574.41
607.293	559.91
607.743	561.41
608.192	566.91
608.642	577.01
609.091	572.41
609.541	591.01
609.99	589.31
610.44	584.01
610.889	544.71
611.339	539.41
611.788	520.31
612.238	543.11
612.687	545.31
613.136	548.51
613.586	552.31
614.035	556.71
614.484	571.61
614.933	581.11
615.383	558.71
615.832	560.71
616.281	553.71
616.73	527.91
617.179	512.51
617.628	493.21
618.077	482.21
618.526	478.41
618.975	481.51
619.424	471.61
619.873	475.51
620.322	476.81
620.771	464.51
621.22	461.71
621.669	459.51
622.118	447.91
622.567	441.01
623.015	425.01
623.464	431.41
623.913	433.21
624.361	415.41
624.81	420.51
625.259	425.91
625.707	425.11
626.156	420.91
626.604	426.71
627.053	422.81
627.501	435.31
627.95	430.11
628.398	440.91
628.847	435.01
629.295	429.51
629.744	430.21
630.192	430.91
630.64	432.01
631.089	420.11
631.537	432.11
631.985	433.01
632.433	432.21
632.881	441.11
633.33	476.71
633.778	456.81
634.226	417.91
634.674	427.01
635.122	425.81
635.57	433.01
636.018	458.11
636.466	427.71
636.914	418.91
637.362	428.01
637.81	437.81
638.258	436.41
638.705	436.11
639.153	460.41
639.601	457.21
640.049	482.01
640.497	496.21
640.944	519.31
641.392	484.11
641.84	458.51
642.287	443.51
642.735	428.81
643.182	430.01
643.63	428.41
644.078	425.71
644.525	438.91
644.973	442.81
645.42	450.71
645.867	455.51
646.315	478.81
646.762	491.31
647.21	506.41
647.657	535.51
648.104	565.51
648.551	576.01
648.999	616.41
649.446	674.41
649.893	730.21
650.34	846.21
650.787	1010.91
651.234	1249.31
651.682	1605.41
652.129	2197.81
652.576	3163.71
653.023	4672.41
653.47	6531.11
653.917	8266.11
654.363	9709.51
654.81	11016.01
655.257	10476.31
655.704	6814.01
656.151	3964.61
656.598	2562.01
657.044	1817.81
657.491	1379.01
657.938	1113.71
658.385	929.81
658.831	813.21
659.278	716.01
659.724	625.71
660.171	588.21
660.618	526.51
661.064	510.11
661.511	481.01
661.957	474.21
662.404	455.21
662.85	470.11
663.296	445.01
663.743	414.61
664.189	395.51
664.635	392.61
665.082	383.61
665.528	379.71
665.974	377.91
666.42	365.81
666.867	370.51
667.313	361.21
667.759	353.81
668.205	352.01
668.651	352.51
669.097	355.71
669.543	362.31
669.989	346.51
670.435	323.91
670.881	334.01
671.327	334.71
671.773	344.41
672.219	364.01
672.665	399.61
673.11	426.11
673.556	458.11
674.002	493.41
674.448	483.11
674.893	408.11
675.339	351.21
675.785	322.41
676.23	306.51
676.676	292.01
677.122	282.71
677.567	271.81
678.013	268.11
678.458	259.81
678.904	262.91
679.349	249.21
679.794	251.41
680.24	256.81
680.685	255.71
681.131	253.71
681.576	256.61
682.021	261.41
682.466	251.61
682.912	252.81
683.357	250.21
683.802	273.31
684.247	293.31
684.692	329.31
685.137	354.61
685.583	394.21
686.028	419.21
686.473	387.71
686.918	327.81
687.363	305.31
687.807	291.41
688.252	269.51
688.697	259.91
689.142	245.01
689.587	245.11
690.032	230.01
690.477	240.31
690.921	251.91
691.366	279.11
691.811	287.11
692.255	321.71
692.7	338.81
693.145	359.11
693.589	486.51
694.034	805.91
694.478	1119.91
694.923	1292.51
695.367	1715.91
695.812	897.11
696.256	376.81
696.701	272.21
697.145	244.51
697.59	237.41
698.034	240.31
698.478	232.91
698.922	239.01
699.367	235.11
699.811	245.41
700.255	256.41
700.699	278.21
701.143	302.31
701.588	345.51
702.032	381.31
702.476	369.81
702.92	353.01
703.364	358.61
703.808	457.51
704.252	727.41
704.696	1034.61
705.14	1258.71
705.584	1633.61
706.027	792.31
706.471	384.71
706.915	284.11
707.359	253.91
707.803	232.11
708.246	219.21
708.69	218.11
709.134	228.31
709.577	220.31
710.021	229.21
710.465	223.31
710.908	218.41
711.352	207.81
711.795	221.01
712.239	244.31
712.682	277.01
713.126	307.51
713.569	341.91
714.012	275.11
714.456	227.01
714.899	221.81
715.342	193.21
715.786	185.81
716.229	187.01
716.672	189.01
717.115	178.51
717.558	176.11
718.002	183.91
718.445	188.01
718.888	217.71
719.331	215.51
719.774	224.61
720.217	216.91
720.66	201.81
721.103	191.91
721.546	181.51
721.989	181.91
722.432	156.81
722.874	169.31
723.317	161.01
723.76	170.51
724.203	176.51
724.645	221.71
725.088	311.11
725.531	398.81
725.974	473.11
726.416	404.71
726.859	220.31
727.301	176.01
727.744	174.51
728.187	170.71
728.629	173.51
729.071	169.61
729.514	185.41
729.956	196.31
730.399	210.31
730.841	207.91
731.283	191.61
731.726	190.41
732.168	190.71
732.61	187.91
733.053	204.21
733.495	230.41
733.937	257.61
734.379	291.71
734.821	305.51
735.263	387.11
735.705	582.81
736.148	1099.61
736.59	1861.51
737.032	2330.61
737.474	1903.61
737.916	597.81
738.357	301.31
738.799	237.31
739.241	214.21
739.683	206.61
740.125	206.81
740.567	219.51
741.008	229.61
741.45	231.91
741.892	229.91
742.334	259.91
742.775	258.61
743.217	260.51
743.658	191.91
744.1	188.21
744.542	184.21
744.983	225.31
745.425	256.71
745.866	259.31
746.307	207.91
746.749	202.71
747.19	231.21
747.632	311.51
748.073	606.11
748.514	1315.01
748.956	2103.41
749.397	2644.41
749.838	2194.81
750.279	2250.41
750.72	1125.61
751.162	398.61
751.603	222.31
752.044	182.41
752.485	155.01
752.926	147.21
753.367	143.61
753.808	135.11
754.249	133.51
754.69	134.51
755.131	127.91
755.572	133.81
756.013	129.51
756.453	126.11
756.894	133.51
757.335	137.01
757.776	145.01
758.216	136.31
758.657	140.41
759.098	138.71
759.538	164.91
759.979	195.31
760.42	261.71
760.86	478.61
761.301	1272.11
761.741	3206.21
762.182	5038.51
762.622	3547.41
763.063	989.01
763.503	397.21
763.943	249.61
764.384	245.61
764.824	288.31
765.264	322.31
765.705	226.71
766.145	157.21
766.585	134.81
767.025	123.11
767.465	124.91
767.906	166.11
768.346	225.51
768.786	240.91
769.226	181.31
769.666	223.51
770.106	422.61
770.546	1085.51
770.986	2000.31
771.426	1833.61
771.866	589.61
772.306	238.11
772.745	146.11
773.185	125.41
773.625	118.91
774.065	116.01
774.505	133.11
774.944	212.11
775.384	455.31
775.824	843.01
776.263	853.21
776.703	353.81
777.142	154.81
777.582	104.71
778.021	97.01
778.461	93.51
778.9	101.31
779.34	97.01
779.779	77.71
780.219	83.61
780.658	78.11
781.097	77.61
781.537	77.41
781.976	74.31
782.415	71.51
782.855	70.81
783.294	76.21
783.733	76.61
784.172	76.51
784.611	67.21
785.05	79.31
785.489	77.91
785.928	80.71
786.367	82.31
786.806	82.51
787.245	89.41
787.684	92.61
788.123	110.91
788.562	98.11
789.001	91.21
789.44	87.51
789.879	82.61
790.317	85.71
790.756	93.31
791.195	89.61
791.634	102.21
792.072	143.61
792.511	248.71
792.95	697.31
793.388	1606.11
793.827	1515.11
794.265	508.41
794.704	207.61
795.142	138.01
795.581	106.71
796.019	103.51
796.458	94.71
796.896	83.11
797.334	91.71
797.773	108.71
798.211	148.81
798.649	297.91
799.087	733.31
799.526	1170.81
799.964	1484.11
800.402	1566.01
800.84	567.21
801.278	218.91
801.716	134.61
802.154	108.41
802.592	115.61
803.03	101.71
803.468	95.71
803.906	102.81
804.344	102.81
804.782	97.21
805.22	97.01
805.658	93.61
806.096	105.11
806.533	111.11
806.971	128.31
807.409	153.31
807.847	222.01
808.284	450.81
808.722	1346.21
809.16	2502.81
809.597	2300.11
810.035	4105.01
810.472	4647.01
810.91	1629.41
811.347	609.61
811.785	304.51
812.222	186.71
812.66	147.31
813.097	123.31
813.535	99.91
813.972	88.31
814.409	90.81
814.846	78.01
815.284	82.21
815.721	72.31
816.158	72.31
816.595	82.51
817.032	120.31
817.47	152.61
817.907	124.51
818.344	105.41
818.781	72.51
819.218	64.71
819.655	90.81
820.092	141.01
820.529	162.81
820.966	132.61
821.403	100.71
821.839	79.41
822.276	78.61
822.713	87.71
823.15	107.31
823.587	87.41
824.023	98.31
824.46	203.71
824.897	636.91
825.333	1049.11
825.77	446.31
826.206	169.31
826.643	95.21
827.08	81.61
827.516	56.41
827.953	52.11
828.389	58.61
828.825	50.01
829.262	46.61
829.698	39.21
830.135	45.91
830.571	40.81
831.007	51.41
831.443	45.71
831.88	42.11
832.316	47.21
832.752	44.11
833.188	49.11
833.624	41.71
834.06	50.41
834.497	48.61
834.933	46.31
835.369	49.11
835.805	41.81
836.241	54.61
836.677	51.61
837.112	63.71
837.548	75.21
837.984	94.21
838.42	141.31
838.856	351.91
839.292	1105.11
839.727	1799.01
840.163	813.71
840.599	662.41
841.034	1528.71
841.47	1683.91
841.906	603.21
842.341	245.11
842.777	165.51
843.212	218.81
843.648	225.11
844.083	107.11
844.519	74.11
844.954	55.21
845.39	38.21
845.825	41.61
846.261	39.91
846.696	42.21
847.131	34.61
847.566	42.51
848.002	33.91
848.437	37.11
848.872	47.41
849.307	46.81
849.742	59.01
850.177	114.51
850.613	409.71
851.048	672.61
851.483	290.31
851.918	111.21
852.353	64.41
852.788	41.91
853.223	42.61
853.657	41.41
854.092	36.51
854.527	31.41
854.962	31.11
855.397	36.81
855.832	39.21
856.266	26.71
856.701	31.11
857.136	28.01
857.57	26.61
858.005	31.61
858.44	45.11
858.874	29.51
859.309	38.71
859.743	27.81
860.178	28.61
860.612	25.01
861.047	38.61
861.481	49.71
861.915	54.81
862.35	43.71
862.784	22.11
863.218	30.21
863.653	18.21
864.087	30.21
864.521	34.61
864.955	49.61
865.39	110.51
865.824	126.61
866.258	79.71
866.692	124.91
867.126	133.11
867.56	83.11
867.994	38.21
868.428	27.41
868.862	34.51
869.296	46.31
869.73	40.61
870.164	39.61
870.598	33.71
871.031	24.61
871.465	16.11
871.899	25.11
872.333	15.81
872.766	20.31
873.2	16.31
873.634	23.51
874.067	17.11
874.501	15.21
874.935	30.51
875.368	24.11
875.802	19.51
876.235	15.31
876.669	17.11
877.102	12.41
877.535	17.01
877.969	19.61
878.402	20.11
878.836	11.21
879.269	13.01
879.702	21.91
880.135	5.21
880.569	6.71
881.002	16.91
881.435	18.31
881.868	11.41
882.301	12.31
882.734	9.51
883.167	16.21
883.601	10.41
884.034	15.81
884.467	10.21
884.899	15.81
885.332	12.11
885.765	13.51
886.198	17.31
886.631	16.51
887.064	9.71
887.497	11.81
887.929	15.41
888.362	8.61
888.795	8.31
889.228	14.51
889.66	16.51
890.093	8.61
890.526	13.61
890.958	6.91
891.391	17.81
891.823	11.81
892.256	14.21
892.688	4.01
893.121	9.91
893.553	9.11
893.985	16.31
894.418	9.71
894.85	4.81
895.282	4.31
895.715	14.41
896.147	15.51
896.579	11.91
897.011	11.61
897.444	9.11
897.876	4.81
898.308	11.11
898.74	7.31
899.172	9.91
899.604	11.91
900.036	13.91
900.468	9.21
900.9	10.91
901.332	13.91
901.764	3.21
902.196	11.21
902.628	11.41
903.06	14.01
903.491	21.01
903.923	18.61
904.355	12.51
904.787	20.71
905.218	11.91
905.65	11.31
906.082	7.71
906.513	8.41
906.945	11.51
907.376	9.11
907.808	15.51
908.239	8.81
908.671	10.41
909.102	14.41
909.534	19.91
909.965	34.91
910.397	67.51
910.828	237.31
911.259	371.71
911.691	169.01
912.122	74.11
912.553	38.81
912.984	22.41
913.415	24.31
913.847	18.61
914.278	10.51
914.709	5.31
915.14	10.81
915.571	13.81
916.002	7.01
916.433	15.61
916.864	9.61
917.295	6.31
917.726	12.31
918.157	10.81
918.587	15.81
919.018	10.11
919.449	12.91
919.88	17.11
920.311	16.71
920.741	29.51
921.172	122.71
921.603	111.21
922.033	53.21
922.464	29.81
922.895	15.11
923.325	16.71
923.756	7.51
924.186	7.31
924.617	13.21
925.047	27.51
925.478	39.41
925.908	31.61
926.338	16.21
926.769	8.01
927.199	13.81
927.629	2.01
928.06	12.11
928.49	10.31
928.92	8.31
929.35	1.51
929.78	11.81
930.21	5.31
930.641	1.41
931.071	6.91
931.501	5.31
931.931	1.71
932.361	-0.69
932.791	-1.79
933.221	-0.19
933.651	3.61
934.08	6.41
934.51	19.51
934.94	3.51
935.37	1.31
935.8	9.41
936.229	3.21
936.659	9.01
937.089	-1.99
937.519	6.51
937.948	16.41
938.378	15.71
938.807	2.11
939.237	4.31
939.666	5.01
940.096	-6.99
940.525	3.21
940.955	-1.69
941.384	4.91
941.814	-9.19
942.243	-7.09
942.672	5.71
943.102	-6.39
943.531	-1.99
943.96	3.51
944.39	-1.79
944.819	-3.59
945.248	-3.69
945.677	-5.59
946.106	5.11
946.535	0.01
946.964	1.61
947.393	-1.59
947.822	-3.29
948.251	-5.79
948.68	-7.39
949.109	3.11
949.538	2.01
949.967	1.91
950.396	-1.29
950.825	-7.19
951.254	-7.09
951.682	-9.69
952.111	4.51
952.54	0.61
952.969	-0.09
953.397	-6.29
953.826	0.41
954.254	-7.69
954.683	-2.89
955.112	-4.89
955.54	-1.49
955.969	0.71
956.397	-3.19
956.826	-7.19
957.254	1.91
957.682	-0.69
958.111	-2.89
958.539	-3.19
958.967	0.21
959.396	3.61
959.824	4.11
960.252	-4.19
960.68	-6.69
961.109	-7.19
961.537	-7.69
961.965	-3.59
962.393	1.21
962.821	-1.39
963.249	-3.29
963.677	0.21
964.105	1.51
964.533	35.81
964.961	31.91
965.389	14.01
965.817	-1.39
966.245	-0.49
966.672	-7.99
967.1	-11.09
967.528	-0.69
967.956	-3.49
968.383	-2.29
968.811	-2.79
969.239	-6.59
969.666	-8.19
970.094	-2.39
970.522	-2.19
970.949	-1.79
971.377	-7.19
971.804	-0.19
972.232	1.21
972.659	-5.29
973.087	-4.09
973.514	-7.79
973.941	-9.29
974.369	3.61
974.796	-2.19
975.223	2.11
975.651	-6.59
976.078	1.61
976.505	-3.19
976.932	1.51
977.359	8.21
977.786	10.31
978.214	-3.09
978.641	-10.09
979.068	-5.79
979.495	-10.69
979.922	-2.79
980.349	-10.09
980.776	5.31
981.202	-8.39
981.629	4.61
982.056	-0.39
982.483	-8.29
982.91	-0.39
983.337	-6.59
983.763	-3.29
984.19	-3.59
984.617	-5.89
985.043	-4.69
985.47	-2.09
985.897	-10.59
986.323	-8.59
986.75	-0.59
987.176	-8.09
987.603	-2.19
988.029	-1.99
988.456	-5.79
988.882	-0.79
989.308	-4.19
989.735	-4.89
990.161	-1.59
990.587	-5.69
991.014	-6.99
991.44	7.61
991.866	-6.59
992.292	-5.79
992.719	-4.19
993.145	4.01
993.571	-15.29
993.997	-3.49
994.423	4.11
994.849	0.01
995.275	1.91
995.701	-1.79
996.127	-4.09
996.553	-6.99
996.979	-4.79
997.405	-2.49
997.83	-14.89
998.256	-7.99
998.682	-7.49
999.108	-4.29
999.534	-2.29
999.959	-3.89
1000.385	-6.89
1000.811	-0.89
1001.236	-12.19
1001.662	-9.49
1002.087	-14.49
1002.513	-6.29
1002.938	2.81
1003.364	-3.99
1003.789	1.91
1004.215	1.81
1004.64	-4.39
1005.066	2.41
1005.491	-6.89
1005.916	-2.49
1006.342	-1.29
1006.767	-7.89
1007.192	-0.09
1007.617	-7.79
1008.042	-3.79
1008.468	-3.59
1008.893	-5.19
1009.318	-3.09
1009.743	-1.59
1010.168	2.11
1010.593	-0.89
1011.018	-9.79
1011.443	-3.79
1011.868	0.91
1012.293	-4.99
1012.718	-4.89
1013.143	-0.49
1013.567	-0.99
1013.992	-4.09
1014.417	-15.69
1014.842	-0.39
1015.267	-3.19
1015.691	-3.89
1016.116	6.21
1016.541	-2.69
1016.965	2.51
1017.39	4.91
1017.814	-2.79
1018.239	-3.49
1018.663	-6.19
1019.088	-9.99
1019.512	-6.29
1019.937	-1.69
1020.361	-13.29
1020.785	-12.19
1021.21	-4.79
1021.634	-2.89
1022.058	-1.49
1022.483	-0.49
1022.907	-4.39
1023.331	-8.89
1023.755	-5.49
1024.179	-9.09
1024.604	-6.39
1025.028	-5.39
1025.452	-2.69
1025.876	-7.59
1026.3	-2.99
1026.724	-10.89
1027.148	-3.29
1027.572	-7.49
1027.996	-8.99
1028.42	-1.79
1028.843	-6.59
1029.267	-7.09
1029.691	-6.49
1030.115	-4.19
1030.539	-8.99
1030.962	-7.39
1031.386	-8.69
1031.81	-2.69
1032.233	-1.19
1032.657	-4.69
1033.08	-6.89
1033.504	-4.09
1033.927	-7.09
1034.351	-1.59
1034.774	-8.29
1035.198	-3.99
1035.621	-4.89
1036.045	-7.39
1036.468	0.71
1036.891	-7.09
1037.315	-11.99
1037.738	-9.29
1038.161	-3.39
1038.584	-6.69
1039.008	-3.59
1039.431	-7.69
1039.854	-0.69
1040.277	-13.69
1040.7	-9.69
1041.123	-6.79
1041.546	-10.39
1041.969	-8.29
1042.392	-7.89
1042.815	-4.89
1043.238	-2.29
1043.661	1.11
1044.084	-8.39
1044.507	-4.49
1044.93	-6.99
1045.352	-6.29
1045.775	-5.89
1046.198	-8.29
1046.621	-1.09
1047.043	-0.79
1047.466	3.81
1047.889	-3.79
1048.311	-13.69
1048.734	-5.39
1049.156	-4.39
1049.579	-3.29
1050.001	-8.49
1050.424	-4.29
1050.846	-2.79
1051.269	-2.99
1051.691	-9.29
1052.113	-1.59
1052.536	-6.49
1052.958	-0.59
1053.38	-7.19
1053.802	-12.89
1054.225	-2.19
1054.647	-7.69
1055.069	-5.99
1055.491	-3.89
1055.913	-6.19
1056.335	-4.19
1056.757	-8.49
1057.179	-10.49
1057.601	-4.49
1058.023	-5.49
1058.445	-5.99
1058.867	-0.59
1059.289	-4.29
1059.711	-5.99
1060.133	-4.99
1060.555	-4.29
1060.976	-12.59
1061.398	-7.09
1061.82	-5.19
1062.241	-7.79
1062.663	-8.99
1063.085	-8.79
1063.506	-4.19
1063.928	-6.79
1064.35	-4.49
1064.771	-16.79
1065.193	-6.99
1065.614	-13.69
1066.035	0.21
1066.457	-1.09
1066.878	-0.99
1067.3	-9.79
1067.721	-5.19
1068.142	-8.69
1068.564	-6.09
1068.985	-7.09
1069.406	-7.19
1069.827	-2.99
1070.248	2.01
1070.67	-3.29
1071.091	-5.69
1071.512	-6.59
1071.933	-7.39
1072.354	-12.89
1072.775	-5.69
1073.196	-6.09
1073.617	-7.79
1074.038	-9.09
1074.459	-3.49
1074.88	-7.99
1075.3	-0.49
1075.721	0.51
1076.142	-0.29
1076.563	2.71
1076.983	-10.69
1077.404	-10.89
1077.825	-11.19
1078.246	-9.39
1078.666	-10.39
1079.087	-5.79
1079.507	-6.49
1079.928	-2.29
1080.348	-3.59
1080.769	-8.59
1081.189	-4.79
1081.61	-3.19
1082.03	-8.19
1082.451	-7.89
1082.871	-7.29
1083.291	-9.09
1083.711	-13.39
1084.132	-8.29
1084.552	-7.59
1084.972	-2.19
1085.392	-10.99
1085.813	-14.29
1086.233	-7.69
1086.653	-7.59
1087.073	-1.99
1087.493	-12.89
1087.913	-8.49
1088.333	-9.89
1088.753	-8.19
1089.173	-4.59
1089.593	-5.69
1090.013	-3.19
1090.433	-1.09
1090.852	-1.09
1091.272	1.31
1091.692	-2.99
1092.112	-6.99
1092.531	-11.29
1092.951	-13.59
1093.371	-1.29
1093.79	-0.59
1094.21	-8.99
1094.63	-5.59
1095.049	-6.79
1095.469	-4.59
1095.888	-9.89
1096.308	1.51
1096.727	-0.19
1097.146	-11.39
1097.566	-8.89
1097.985	-11.39
1098.405	-7.59
1098.824	-8.79
1099.243	-5.79
1099.662	-14.79
1100.082	-6.39
1100.501	-3.99
1100.92	-11.69
1101.339	-7.49
1101.758	-3.79
