Data from 20171114-ORNL-Ar_H_NY_Subt18_08-03-52-781.txt Node
Date: Tue Nov 14 08:03:52 EST 2017
User: Ender
Spectrometer: HR+D1039
Trigger mode: 0
Integration Time (sec): 2.730000E-2
Scans to average: 10
Electric dark correction enabled: true
Nonlinearity correction enabled: false
Boxcar width: 0
XAxis mode: Wavelengths
Number of Pixels in Spectrum: 2048
>>>>>Begin Spectral Data<<<<<
187.836	-0.74
188.309	-0.74
188.782	-0.74
189.255	-1.64
189.728	-4.14
190.201	3.46
190.674	-0.94
191.147	3.16
191.619	-9.94
192.092	5.16
192.565	4.26
193.038	1.06
193.511	2.16
193.984	-3.24
194.456	-1.44
194.929	2.26
195.402	-2.54
195.874	3.06
196.347	3.76
196.82	-5.04
197.292	11.86
197.765	-0.14
198.237	-10.14
198.71	2.86
199.182	-2.14
199.655	-0.84
200.127	2.26
200.6	-1.24
201.072	1.66
201.544	-7.64
202.017	0.56
202.489	9.96
202.961	-3.54
203.433	-5.74
203.906	-6.54
204.378	-5.84
204.85	-4.74
205.322	-9.34
205.794	-5.14
206.266	-0.04
206.739	-6.04
207.211	2.36
207.683	-8.94
208.155	-2.54
208.627	-2.74
209.099	-1.74
209.57	-6.84
210.042	-2.04
210.514	-2.54
210.986	-0.24
211.458	-10.44
211.93	-6.84
212.402	-2.44
212.873	-1.04
213.345	-2.94
213.817	-7.84
214.288	-6.04
214.76	-13.04
215.232	-3.04
215.703	-4.24
216.175	-5.54
216.646	-12.24
217.118	-7.54
217.589	-6.04
218.061	-2.94
218.532	-3.64
219.004	2.86
219.475	-5.24
219.946	-4.64
220.418	-7.24
220.889	6.16
221.36	-1.64
221.832	-5.94
222.303	-8.24
222.774	-3.74
223.245	-8.84
223.717	-7.04
224.188	-2.64
224.659	-2.04
225.13	-1.74
225.601	0.56
226.072	2.86
226.543	1.86
227.014	-4.84
227.485	-4.94
227.956	-3.14
228.427	-1.24
228.898	-1.84
229.369	2.36
229.839	-6.04
230.31	-3.64
230.781	-0.74
231.252	-5.04
231.722	-7.94
232.193	-3.54
232.664	-1.14
233.135	-5.64
233.605	1.16
234.076	-4.24
234.546	-3.24
235.017	3.86
235.487	-3.64
235.958	-5.64
236.428	-5.34
236.899	-4.24
237.369	0.26
237.84	-6.34
238.31	0.36
238.78	-5.04
239.251	-8.54
239.721	-3.84
240.191	-4.14
240.662	-5.34
241.132	-4.74
241.602	-7.24
242.072	-5.24
242.542	4.96
243.013	0.26
243.483	9.36
243.953	3.76
244.423	-2.94
244.893	-4.94
245.363	2.66
245.833	4.36
246.303	-7.64
246.773	5.06
247.243	0.46
247.712	-5.04
248.182	4.36
248.652	0.76
249.122	-10.94
249.592	3.16
250.061	2.96
250.531	8.76
251.001	-0.24
251.471	8.06
251.94	8.76
252.41	-7.84
252.879	-1.34
253.349	7.46
253.818	6.76
254.288	4.26
254.757	-0.04
255.227	-1.34
255.696	0.16
256.166	0.06
256.635	1.36
257.105	-1.34
257.574	-2.14
258.043	-0.04
258.513	-2.24
258.982	-1.84
259.451	-9.24
259.92	5.06
260.389	3.26
260.859	5.26
261.328	1.66
261.797	-2.54
262.266	1.76
262.735	7.76
263.204	2.66
263.673	-4.24
264.142	1.66
264.611	-10.14
265.08	-1.54
265.549	-4.34
266.018	3.16
266.487	-3.04
266.955	-9.14
267.424	-3.24
267.893	1.26
268.362	-1.04
268.83	1.06
269.299	2.56
269.768	2.86
270.236	3.36
270.705	-1.94
271.174	5.06
271.642	2.56
272.111	-0.94
272.579	4.66
273.048	2.46
273.516	0.26
273.985	5.16
274.453	3.26
274.922	10.26
275.39	5.16
275.858	-0.54
276.327	6.26
276.795	16.06
277.263	-0.44
277.731	4.36
278.2	5.06
278.668	2.86
279.136	3.16
279.604	0.46
280.072	5.46
280.54	8.96
281.008	4.86
281.477	11.16
281.945	4.56
282.413	1.66
282.881	5.76
283.348	0.36
283.816	7.96
284.284	6.06
284.752	16.76
285.22	10.16
285.688	9.46
286.156	2.26
286.623	8.56
287.091	-0.64
287.559	10.36
288.026	3.16
288.494	12.46
288.962	4.86
289.429	2.16
289.897	10.96
290.364	8.96
290.832	10.06
291.3	10.16
291.767	7.26
292.234	12.66
292.702	6.46
293.169	1.46
293.637	10.56
294.104	12.96
294.571	5.66
295.039	7.66
295.506	3.76
295.973	6.66
296.44	9.26
296.908	9.66
297.375	8.36
297.842	11.46
298.309	8.46
298.776	3.76
299.243	9.66
299.71	1.66
300.177	14.96
300.644	14.06
301.111	10.46
301.578	13.76
302.045	6.96
302.512	13.56
302.979	13.16
303.446	17.26
303.913	6.96
304.379	12.56
304.846	18.16
305.313	15.36
305.78	9.56
306.246	19.96
306.713	15.76
307.18	13.86
307.646	17.36
308.113	19.66
308.579	15.06
309.046	16.36
309.512	15.66
309.979	12.96
310.445	21.66
310.912	19.76
311.378	22.76
311.845	25.26
312.311	13.76
312.777	19.66
313.244	20.26
313.71	28.16
314.176	14.86
314.642	19.06
315.109	16.06
315.575	28.06
316.041	29.36
316.507	16.26
316.973	26.46
317.439	21.86
317.905	25.16
318.371	22.96
318.837	26.06
319.303	27.86
319.769	28.16
320.235	22.86
320.701	25.86
321.167	26.76
321.633	21.26
322.099	28.26
322.564	27.96
323.03	31.56
323.496	25.36
323.962	33.96
324.427	27.96
324.893	33.66
325.359	29.36
325.824	28.96
326.29	22.96
326.755	29.26
327.221	31.96
327.686	34.46
328.152	33.86
328.617	26.76
329.083	32.26
329.548	35.86
330.014	33.66
330.479	30.96
330.944	32.56
331.41	32.56
331.875	35.36
332.34	34.46
332.805	29.66
333.271	35.66
333.736	28.26
334.201	38.56
334.666	46.46
335.131	47.46
335.596	38.66
336.061	43.26
336.526	32.26
336.991	38.26
337.456	49.66
337.921	37.46
338.386	37.56
338.851	34.46
339.316	37.06
339.781	37.56
340.246	45.16
340.711	47.56
341.175	47.96
341.64	34.96
342.105	40.16
342.569	46.66
343.034	49.36
343.499	46.06
343.963	42.66
344.428	52.06
344.893	48.46
345.357	54.36
345.822	45.26
346.286	54.06
346.751	52.96
347.215	53.26
347.679	60.86
348.144	70.66
348.608	64.86
349.073	58.06
349.537	62.16
350.001	61.56
350.465	71.06
350.93	62.86
351.394	69.86
351.858	60.36
352.322	76.86
352.786	67.66
353.25	79.86
353.715	85.26
354.179	83.56
354.643	92.76
355.107	95.56
355.571	82.06
356.035	87.96
356.498	88.66
356.962	97.56
357.426	98.56
357.89	88.76
358.354	74.06
358.818	75.76
359.281	70.96
359.745	65.86
360.209	69.96
360.673	68.26
361.136	73.56
361.6	75.66
362.064	74.36
362.527	78.76
362.991	80.16
363.454	71.86
363.918	66.46
364.381	73.66
364.845	72.56
365.308	77.26
365.772	82.36
366.235	76.96
366.698	71.06
367.162	72.76
367.625	78.96
368.088	82.66
368.552	82.36
369.015	84.76
369.478	85.86
369.941	92.06
370.404	80.56
370.867	87.06
371.331	89.26
371.794	94.26
372.257	90.46
372.72	88.06
373.183	89.26
373.646	88.56
374.109	89.76
374.572	90.96
375.035	88.56
375.497	93.26
375.96	97.76
376.423	97.26
376.886	104.66
377.349	95.96
377.811	93.46
378.274	100.76
378.737	99.26
379.199	102.66
379.662	96.86
380.125	109.46
380.587	95.96
381.05	103.26
381.512	105.86
381.975	113.06
382.437	110.06
382.9	112.26
383.362	115.06
383.825	120.86
384.287	119.26
384.75	113.86
385.212	117.06
385.674	125.06
386.136	125.46
386.599	116.06
387.061	108.56
387.523	115.26
387.985	124.76
388.447	118.86
388.91	118.76
389.372	118.96
389.834	124.16
390.296	116.16
390.758	118.96
391.22	128.26
391.682	130.56
392.144	141.16
392.606	136.66
393.068	133.96
393.529	141.96
393.991	128.56
394.453	126.06
394.915	129.36
395.377	128.96
395.838	134.26
396.3	125.06
396.762	132.86
397.224	130.56
397.685	122.96
398.147	126.56
398.608	127.36
399.07	129.46
399.531	137.06
399.993	136.96
400.454	142.26
400.916	143.06
401.377	143.96
401.839	146.76
402.3	148.16
402.762	158.76
403.223	178.56
403.684	160.46
404.145	160.76
404.607	156.86
405.068	158.96
405.529	159.66
405.99	177.86
406.451	171.26
406.913	163.66
407.374	166.26
407.835	159.66
408.296	169.96
408.757	158.96
409.218	179.16
409.679	170.96
410.14	166.86
410.601	169.16
411.062	173.86
411.522	177.16
411.983	165.46
412.444	174.16
412.905	180.16
413.366	178.66
413.826	191.86
414.287	223.16
414.748	261.76
415.208	247.36
415.669	212.76
416.13	202.86
416.59	203.56
417.051	217.36
417.511	222.56
417.972	238.66
418.432	255.96
418.893	290.06
419.353	256.46
419.814	203.86
420.274	187.46
420.734	182.86
421.195	187.16
421.655	191.06
422.115	188.26
422.576	189.86
423.036	195.66
423.496	205.26
423.956	215.86
424.416	223.36
424.876	263.96
425.336	256.36
425.797	252.76
426.257	240.66
426.717	233.16
427.177	233.76
427.637	224.66
428.097	225.26
428.556	235.16
429.016	259.66
429.476	256.06
429.936	257.76
430.396	266.56
430.856	274.16
431.315	295.46
431.775	313.76
432.235	348.66
432.694	330.36
433.154	335.86
433.614	356.16
434.073	312.56
434.533	272.06
434.993	252.36
435.452	263.66
435.912	270.66
436.371	268.26
436.83	264.96
437.29	240.36
437.749	235.86
438.209	227.36
438.668	247.46
439.127	256.56
439.587	244.86
440.046	228.86
440.505	243.06
440.964	252.56
441.424	287.06
441.883	278.56
442.342	242.46
442.801	214.86
443.26	217.06
443.719	219.16
444.178	218.56
444.637	204.66
445.096	222.76
445.555	220.26
446.014	219.16
446.473	220.26
446.932	230.16
447.391	223.76
447.849	231.66
448.308	210.66
448.767	218.86
449.226	229.26
449.685	235.56
450.143	247.56
450.602	230.56
451.061	228.76
451.519	222.16
451.978	224.76
452.436	221.46
452.895	223.46
453.353	234.86
453.812	236.36
454.27	237.36
454.729	235.26
455.187	227.06
455.646	233.36
456.104	232.26
456.562	238.56
457.021	248.46
457.479	233.36
457.937	265.16
458.395	248.66
458.854	239.56
459.312	246.06
459.77	253.16
460.228	246.96
460.686	238.46
461.144	245.76
461.602	239.76
462.06	240.96
462.518	256.76
462.976	246.66
463.434	244.96
463.892	249.86
464.35	255.46
464.808	270.86
465.266	263.26
465.724	262.06
466.181	264.06
466.639	262.86
467.097	275.56
467.555	289.16
468.012	286.06
468.47	297.16
468.928	311.56
469.385	323.76
469.843	323.66
470.3	322.46
470.758	337.26
471.215	339.36
471.673	365.46
472.13	371.56
472.588	377.66
473.045	353.86
473.503	362.66
473.96	376.16
474.417	378.76
474.875	403.86
475.332	433.16
475.789	425.16
476.246	433.06
476.704	451.56
477.161	462.56
477.618	471.36
478.075	516.06
478.532	549.76
478.989	602.66
479.446	684.86
479.903	671.56
480.36	715.86
480.817	764.86
481.274	826.46
481.731	908.86
482.188	988.16
482.645	1100.06
483.102	1174.66
483.558	1274.86
484.015	1337.36
484.472	1320.36
484.929	1276.06
485.385	1236.96
485.842	1208.76
486.299	1173.26
486.755	1106.46
487.212	959.16
487.668	831.56
488.125	766.66
488.582	717.36
489.038	672.16
489.494	646.26
489.951	629.66
490.407	613.96
490.864	593.86
491.32	588.16
491.776	582.46
492.233	580.76
492.689	560.56
493.145	563.86
493.602	548.96
494.058	563.06
494.514	556.16
494.97	568.16
495.426	577.06
495.882	557.56
496.338	555.16
496.794	553.26
497.251	559.66
497.707	572.76
498.163	566.66
498.618	573.56
499.074	580.46
499.53	598.26
499.986	584.36
500.442	571.66
500.898	562.16
501.354	558.56
501.809	563.36
502.265	562.66
502.721	569.26
503.177	566.26
503.632	579.16
504.088	588.46
504.543	599.36
504.999	609.16
505.455	594.96
505.91	570.16
506.366	580.46
506.821	577.16
507.277	567.76
507.732	577.36
508.187	568.96
508.643	561.26
509.098	578.56
509.553	594.26
510.009	598.46
510.464	605.86
510.919	621.76
511.375	622.06
511.83	627.66
512.285	648.66
512.74	663.06
513.195	679.96
513.65	673.36
514.105	677.96
514.56	679.76
515.015	703.46
515.47	712.76
515.925	689.16
516.38	689.36
516.835	706.36
517.29	693.86
517.745	698.46
518.2	682.66
518.655	664.36
519.109	650.06
519.564	649.16
520.019	647.66
520.474	640.66
520.928	639.86
521.383	630.66
521.838	629.76
522.292	629.16
522.747	630.56
523.201	629.86
523.656	619.96
524.11	620.76
524.565	607.26
525.019	606.06
525.474	619.46
525.928	611.06
526.382	608.16
526.837	614.66
527.291	615.46
527.745	606.66
528.2	603.46
528.654	609.36
529.108	597.66
529.562	596.06
530.016	596.16
530.47	595.56
530.925	600.26
531.379	592.76
531.833	605.66
532.287	602.46
532.741	604.76
533.195	613.16
533.649	610.16
534.103	618.36
534.556	613.26
535.01	601.86
535.464	594.26
535.918	601.26
536.372	608.86
536.826	612.46
537.279	599.96
537.733	600.86
538.187	608.36
538.64	607.46
539.094	608.96
539.548	614.86
540.001	621.16
540.455	614.96
540.908	614.86
541.362	626.96
541.815	644.76
542.269	647.26
542.722	638.16
543.175	646.16
543.629	659.46
544.082	672.56
544.536	660.76
544.989	664.46
545.442	676.96
545.895	675.36
546.349	666.66
546.802	668.06
547.255	674.56
547.708	677.96
548.161	687.26
548.614	684.36
549.067	702.66
549.52	696.56
549.973	687.56
550.426	676.06
550.879	674.26
551.332	667.36
551.785	671.36
552.238	669.16
552.691	683.26
553.144	699.16
553.596	703.96
554.049	724.46
554.502	737.96
554.955	758.06
555.407	746.36
555.86	741.56
556.313	725.26
556.765	718.06
557.218	721.86
557.67	715.46
558.123	706.76
558.576	713.46
559.028	721.16
559.48	717.76
559.933	720.16
560.385	689.26
560.838	658.86
561.29	638.46
561.742	646.36
562.195	628.56
562.647	638.56
563.099	648.66
563.551	641.46
564.004	648.96
564.456	627.86
564.908	618.56
565.36	596.36
565.812	594.26
566.264	585.26
566.716	579.46
567.168	563.96
567.62	578.06
568.072	570.76
568.524	560.96
568.976	558.36
569.428	555.56
569.88	548.56
570.332	560.26
570.784	553.36
571.235	544.76
571.687	559.06
572.139	563.06
572.59	570.86
573.042	567.56
573.494	574.56
573.945	566.36
574.397	544.06
574.849	550.86
575.3	556.16
575.752	544.66
576.203	536.26
576.655	548.26
577.106	536.76
577.557	528.56
578.009	525.26
578.46	524.16
578.912	530.56
579.363	525.26
579.814	523.26
580.265	526.66
580.717	522.46
581.168	529.46
581.619	531.96
582.07	541.56
582.521	530.66
582.972	522.86
583.423	535.36
583.875	521.36
584.326	541.66
584.777	536.16
585.227	559.16
585.678	572.96
586.129	587.26
586.58	602.56
587.031	620.66
587.482	652.86
587.933	675.66
588.384	650.46
588.834	621.06
589.285	601.26
589.736	602.26
590.186	597.76
590.637	602.06
591.088	584.86
591.538	572.96
591.989	560.56
592.439	560.36
592.89	555.16
593.34	543.36
593.791	540.56
594.241	532.26
594.692	534.66
595.142	530.86
595.593	524.86
596.043	539.56
596.493	535.36
596.943	540.16
597.394	548.96
597.844	541.96
598.294	560.16
598.744	575.66
599.195	597.46
599.645	626.16
600.095	649.66
600.545	698.06
600.995	730.96
601.445	774.36
601.895	819.76
602.345	861.46
602.795	842.66
603.245	813.76
603.695	783.96
604.145	727.26
604.594	689.96
605.044	655.86
605.494	617.46
605.944	576.76
606.393	555.66
606.843	549.86
607.293	546.26
607.743	555.56
608.192	543.36
608.642	560.76
609.091	564.46
609.541	559.06
609.99	572.56
610.44	569.56
610.889	531.76
611.339	520.46
611.788	506.76
612.238	516.36
612.687	526.86
613.136	518.06
613.586	523.86
614.035	515.66
614.484	529.26
614.933	524.76
615.383	525.36
615.832	517.26
616.281	517.96
616.73	494.86
617.179	489.86
617.628	478.76
618.077	466.26
618.526	460.56
618.975	462.26
619.424	456.26
619.873	447.36
620.322	455.26
620.771	446.16
621.22	447.76
621.669	426.96
622.118	439.76
622.567	425.36
623.015	417.76
623.464	417.76
623.913	408.96
624.361	398.26
624.81	405.26
625.259	408.86
625.707	409.06
626.156	406.96
626.604	412.46
627.053	414.56
627.501	410.66
627.95	420.46
628.398	416.26
628.847	412.56
629.295	414.26
629.744	421.06
630.192	409.56
630.64	409.46
631.089	394.16
631.537	393.46
631.985	379.46
632.433	388.26
632.881	380.46
633.33	390.26
633.778	377.86
634.226	372.56
634.674	390.16
635.122	389.86
635.57	398.56
636.018	405.26
636.466	404.76
636.914	396.76
637.362	418.16
637.81	420.46
638.258	421.16
638.705	411.76
639.153	445.06
639.601	444.06
640.049	458.56
640.497	481.86
640.944	508.26
641.392	468.66
641.84	454.66
642.287	414.86
642.735	398.46
643.182	398.06
643.63	402.36
644.078	395.16
644.525	410.56
644.973	420.96
645.42	423.86
645.867	435.76
646.315	453.96
646.762	463.96
647.21	481.16
647.657	501.06
648.104	515.26
648.551	542.56
648.999	571.36
649.446	611.96
649.893	661.66
650.34	755.96
650.787	906.16
651.234	1108.16
651.682	1410.26
652.129	1896.86
652.576	2669.56
653.023	3910.36
653.47	5400.86
653.917	6834.36
654.363	7998.26
654.81	9060.26
655.257	8638.76
655.704	5706.16
656.151	3381.96
656.598	2222.56
657.044	1592.86
657.491	1224.66
657.938	993.86
658.385	832.96
658.831	721.16
659.278	647.56
659.724	586.16
660.171	536.06
660.618	495.86
661.064	468.66
661.511	445.46
661.957	437.16
662.404	419.46
662.85	427.96
663.296	417.86
663.743	386.96
664.189	375.56
664.635	369.86
665.082	367.56
665.528	366.06
665.974	360.56
666.42	352.76
666.867	354.66
667.313	337.56
667.759	321.56
668.205	321.06
668.651	318.66
669.097	310.66
669.543	314.76
669.989	312.36
670.435	302.86
670.881	308.76
671.327	321.36
671.773	330.56
672.219	349.36
672.665	386.46
673.11	413.56
673.556	448.56
674.002	474.16
674.448	469.26
674.893	389.66
675.339	343.36
675.785	311.06
676.23	293.76
676.676	276.06
677.122	269.16
677.567	259.86
678.013	254.96
678.458	248.66
678.904	253.16
679.349	241.26
679.794	252.26
680.24	241.36
680.685	239.06
681.131	246.26
681.576	249.76
682.021	249.06
682.466	245.06
682.912	245.36
683.357	242.86
683.802	261.76
684.247	284.26
684.692	316.86
685.137	338.86
685.583	379.26
686.028	397.86
686.473	375.86
686.918	311.36
687.363	294.46
687.807	282.36
688.252	250.06
688.697	254.46
689.142	226.46
689.587	237.66
690.032	225.26
690.477	237.56
690.921	238.96
691.366	263.76
691.811	278.46
692.255	300.86
692.7	329.76
693.145	345.56
693.589	473.56
694.034	764.56
694.478	1075.06
694.923	1245.76
695.367	1679.96
695.812	878.76
696.256	357.86
696.701	261.96
697.145	236.96
697.59	223.66
698.034	218.86
698.478	227.46
698.922	226.06
699.367	227.46
699.811	236.86
700.255	240.66
700.699	262.26
701.143	287.86
701.588	330.96
702.032	363.26
702.476	362.06
702.92	350.36
703.364	338.56
703.808	432.96
704.252	693.06
704.696	1007.66
705.14	1201.76
705.584	1567.16
706.027	772.76
706.471	374.66
706.915	279.26
707.359	241.56
707.803	216.06
708.246	215.16
708.69	216.76
709.134	218.26
709.577	217.66
710.021	217.26
710.465	214.76
710.908	203.56
711.352	213.26
711.795	211.96
712.239	241.56
712.682	267.56
713.126	288.56
713.569	319.26
714.012	246.96
714.456	217.46
714.899	207.56
715.342	185.86
715.786	177.56
716.229	172.16
716.672	180.06
717.115	168.96
717.558	165.16
718.002	174.36
718.445	176.76
718.888	200.66
719.331	205.76
719.774	213.66
720.217	212.06
720.66	196.76
721.103	185.96
721.546	177.36
721.989	176.76
722.432	158.26
722.874	163.06
723.317	161.16
723.76	167.36
724.203	171.86
724.645	218.66
725.088	292.56
725.531	386.76
725.974	458.36
726.416	396.06
726.859	209.66
727.301	176.66
727.744	163.06
728.187	161.16
728.629	163.96
729.071	165.26
729.514	179.46
729.956	195.26
730.399	197.16
730.841	202.76
731.283	183.66
731.726	189.56
732.168	178.36
732.61	191.06
733.053	195.46
733.495	212.36
733.937	237.06
734.379	276.36
734.821	305.96
735.263	366.06
735.705	555.16
736.148	1056.76
736.59	1797.66
737.032	2249.66
737.474	1842.96
737.916	577.86
738.357	305.36
738.799	225.46
739.241	203.96
739.683	194.66
740.125	207.76
740.567	210.86
741.008	225.26
741.45	225.86
741.892	217.06
742.334	250.66
742.775	261.56
743.217	254.16
743.658	189.56
744.1	178.06
744.542	188.26
744.983	230.16
745.425	259.36
745.866	255.66
746.307	196.26
746.749	198.76
747.19	221.06
747.632	309.96
748.073	576.36
748.514	1250.46
748.956	2025.36
749.397	2523.16
749.838	2121.06
750.279	2188.96
750.72	1111.06
751.162	396.76
751.603	225.36
752.044	179.26
752.485	147.66
752.926	151.96
753.367	141.06
753.808	133.26
754.249	138.06
754.69	127.56
755.131	129.66
755.572	120.96
756.013	123.66
756.453	127.16
756.894	126.86
757.335	118.56
757.776	136.16
758.216	124.76
758.657	133.26
759.098	135.96
759.538	153.86
759.979	181.06
760.42	250.06
760.86	467.66
761.301	1224.56
761.741	3087.56
762.182	4872.36
762.622	3467.46
763.063	977.36
763.503	386.76
763.943	227.36
764.384	189.86
764.824	180.36
765.264	172.76
765.705	154.06
766.145	128.26
766.585	121.46
767.025	113.46
767.465	105.76
767.906	125.46
768.346	135.96
768.786	143.06
769.226	141.56
769.666	197.96
770.106	404.56
770.546	1046.46
770.986	1927.16
771.426	1775.16
771.866	572.76
772.306	222.46
772.745	137.06
773.185	114.86
773.625	117.06
774.065	110.16
774.505	113.66
774.944	141.86
775.384	249.56
775.824	452.36
776.263	454.26
776.703	204.16
777.142	120.16
777.582	92.76
778.021	82.16
778.461	81.16
778.9	83.56
779.34	88.36
779.779	71.76
780.219	77.06
780.658	63.46
781.097	71.06
781.537	75.46
781.976	72.36
782.415	64.86
782.855	66.36
783.294	62.26
783.733	71.26
784.172	71.66
784.611	65.66
785.05	70.76
785.489	73.86
785.928	76.46
786.367	83.96
786.806	74.36
787.245	90.16
787.684	92.66
788.123	101.76
788.562	98.16
789.001	87.36
789.44	83.86
789.879	80.36
790.317	71.26
790.756	88.36
791.195	80.16
791.634	91.86
792.072	133.66
792.511	244.26
792.95	665.26
793.388	1518.26
793.827	1441.96
794.265	480.36
794.704	199.96
795.142	129.16
795.581	113.76
796.019	96.16
796.458	90.76
796.896	83.16
797.334	88.86
797.773	105.56
798.211	150.06
798.649	289.46
799.087	701.16
799.526	1127.16
799.964	1439.86
800.402	1511.86
800.84	557.66
801.278	216.66
801.716	127.76
802.154	110.46
802.592	105.26
803.03	101.16
803.468	84.56
803.906	95.36
804.344	106.76
804.782	96.56
805.22	94.06
805.658	85.46
806.096	107.06
806.533	111.36
806.971	121.66
807.409	153.76
807.847	220.46
808.284	446.16
808.722	1302.06
809.16	2427.56
809.597	2230.86
810.035	3981.06
810.472	4534.76
810.91	1606.56
811.347	592.66
811.785	290.56
812.222	188.16
812.66	136.36
813.097	113.66
813.535	102.46
813.972	96.76
814.409	83.16
814.846	73.86
815.284	84.76
815.721	65.76
816.158	71.56
816.595	68.66
817.032	111.76
817.47	135.66
817.907	101.76
818.344	69.76
818.781	68.76
819.218	67.56
819.655	93.96
820.092	142.16
820.529	162.46
820.966	123.96
821.403	97.16
821.839	75.16
822.276	69.66
822.713	88.26
823.15	104.16
823.587	77.56
824.023	93.26
824.46	198.16
824.897	627.76
825.333	1005.86
825.77	435.96
826.206	160.56
826.643	98.16
827.08	74.26
827.516	60.56
827.953	53.06
828.389	59.26
828.825	45.86
829.262	44.06
829.698	44.16
830.135	45.06
830.571	41.16
831.007	41.66
831.443	42.66
831.88	46.06
832.316	41.06
832.752	46.96
833.188	44.46
833.624	49.56
834.06	46.06
834.497	47.56
834.933	47.86
835.369	58.46
835.805	40.86
836.241	51.86
836.677	49.06
837.112	61.46
837.548	66.66
837.984	89.36
838.42	125.86
838.856	331.66
839.292	1084.16
839.727	1754.76
840.163	800.56
840.599	658.76
841.034	1474.26
841.47	1633.36
841.906	579.36
842.341	234.16
842.777	137.66
843.212	144.06
843.648	142.06
844.083	76.06
844.519	51.16
844.954	52.56
845.39	43.26
845.825	38.66
846.261	40.36
846.696	34.46
847.131	38.16
847.566	46.56
848.002	38.66
848.437	33.96
848.872	38.66
849.307	35.06
849.742	51.26
850.177	117.06
850.613	388.16
851.048	656.66
851.483	280.76
851.918	110.36
852.353	60.26
852.788	33.56
853.223	37.36
853.657	32.86
854.092	28.86
854.527	24.96
854.962	25.16
855.397	33.16
855.832	35.96
856.266	27.26
856.701	25.26
857.136	24.36
857.57	28.96
858.005	32.86
858.44	37.86
858.874	35.06
859.309	37.86
859.743	24.66
860.178	31.46
860.612	26.46
861.047	38.96
861.481	51.36
861.915	52.16
862.35	35.16
862.784	24.96
863.218	27.86
863.653	24.16
864.087	34.96
864.521	42.56
864.955	47.46
865.39	104.76
865.824	129.56
866.258	87.06
866.692	133.26
867.126	149.76
867.56	93.36
867.994	38.46
868.428	22.66
868.862	34.46
869.296	44.96
869.73	44.56
870.164	42.66
870.598	38.96
871.031	21.36
871.465	22.96
871.899	22.56
872.333	15.96
872.766	17.06
873.2	13.66
873.634	14.96
874.067	14.66
874.501	14.06
874.935	24.06
875.368	23.76
875.802	20.46
876.235	14.16
876.669	14.66
877.102	16.66
877.535	19.56
877.969	14.36
878.402	23.56
878.836	7.16
879.269	13.76
879.702	12.56
880.135	17.76
880.569	12.76
881.002	14.96
881.435	14.86
881.868	8.96
882.301	17.26
882.734	14.46
883.167	19.66
883.601	7.96
884.034	21.36
884.467	17.76
884.899	10.26
885.332	11.46
885.765	9.86
886.198	8.16
886.631	7.26
887.064	12.46
887.497	17.06
887.929	25.16
888.362	8.26
888.795	6.86
889.228	9.96
889.66	15.66
890.093	8.46
890.526	13.56
890.958	14.46
891.391	11.96
891.823	15.26
892.256	9.96
892.688	5.26
893.121	3.96
893.553	6.56
893.985	23.46
894.418	12.36
894.85	10.76
895.282	12.46
895.715	9.26
896.147	6.66
896.579	15.26
897.011	10.86
897.444	10.66
897.876	9.76
898.308	11.56
898.74	8.36
899.172	3.86
899.604	18.06
900.036	17.56
900.468	11.66
900.9	11.66
901.332	11.06
901.764	7.66
902.196	13.76
902.628	10.16
903.06	11.06
903.491	21.96
903.923	14.16
904.355	14.76
904.787	14.66
905.218	14.86
905.65	13.16
906.082	4.66
906.513	4.36
906.945	10.66
907.376	6.96
907.808	13.46
908.239	14.86
908.671	14.16
909.102	18.56
909.534	17.96
909.965	32.86
910.397	59.76
910.828	229.46
911.259	362.16
911.691	160.26
912.122	82.46
912.553	38.56
912.984	22.46
913.415	16.76
913.847	16.56
914.278	10.36
914.709	6.46
915.14	18.46
915.571	12.86
916.002	5.86
916.433	16.76
916.864	13.36
917.295	14.66
917.726	16.86
918.157	13.06
918.587	20.16
919.018	15.96
919.449	13.36
919.88	15.86
920.311	22.06
920.741	30.46
921.172	116.36
921.603	107.06
922.033	51.36
922.464	32.76
922.895	15.36
923.325	14.66
923.756	7.26
924.186	3.96
924.617	12.86
925.047	10.56
925.478	21.16
925.908	12.26
926.338	2.26
926.769	7.66
927.199	14.56
927.629	2.66
928.06	9.16
928.49	12.96
928.92	7.26
929.35	4.76
929.78	8.26
930.21	6.36
930.641	10.46
931.071	4.46
931.501	2.76
931.931	-2.84
932.361	6.86
932.791	-0.34
933.221	-1.34
933.651	1.56
934.08	13.46
934.51	23.06
934.94	9.56
935.37	4.56
935.8	4.96
936.229	3.46
936.659	7.96
937.089	6.96
937.519	12.76
937.948	17.36
938.378	13.96
938.807	6.76
939.237	6.26
939.666	6.76
940.096	-5.14
940.525	0.76
940.955	3.96
941.384	1.36
941.814	-1.94
942.243	-0.54
942.672	6.26
943.102	-2.84
943.531	-1.74
943.96	3.96
944.39	1.16
944.819	-0.54
945.248	-0.14
945.677	3.36
946.106	4.36
946.535	0.96
946.964	2.06
947.393	-0.54
947.822	4.06
948.251	-2.54
948.68	2.66
949.109	3.66
949.538	5.06
949.967	0.06
950.396	1.76
950.825	-7.24
951.254	-1.64
951.682	-4.04
952.111	-1.64
952.54	8.16
952.969	-2.44
953.397	-5.54
953.826	2.56
954.254	-1.84
954.683	-1.24
955.112	-4.14
955.54	1.06
955.969	-1.14
956.397	0.36
956.826	-5.44
957.254	0.16
957.682	-1.34
958.111	6.86
958.539	-0.24
958.967	-4.94
959.396	-4.54
959.824	-4.54
960.252	1.66
960.68	-3.74
961.109	-3.04
961.537	-5.94
961.965	3.16
962.393	0.36
962.821	0.66
963.249	-1.24
963.677	0.86
964.105	-1.54
964.533	29.96
964.961	28.06
965.389	15.26
965.817	6.36
966.245	2.46
966.672	-4.24
967.1	-3.64
967.528	-1.94
967.956	-3.64
968.383	-1.04
968.811	-3.54
969.239	2.26
969.666	-5.64
970.094	2.26
970.522	-1.14
970.949	-2.34
971.377	-6.34
971.804	-1.94
972.232	-1.34
972.659	-7.64
973.087	-10.94
973.514	-3.64
973.941	-5.44
974.369	2.76
974.796	-0.64
975.223	-1.44
975.651	-4.34
976.078	0.36
976.505	-5.04
976.932	0.26
977.359	14.66
977.786	8.36
978.214	0.36
978.641	-6.94
979.068	-4.34
979.495	-7.04
979.922	-10.84
980.349	-2.44
980.776	2.96
981.202	-4.24
981.629	2.16
982.056	0.76
982.483	-4.44
982.91	2.96
983.337	-8.04
983.763	0.96
984.19	-4.14
984.617	-5.14
985.043	-4.14
985.47	-0.24
985.897	-5.94
986.323	-8.14
986.75	0.86
987.176	-5.94
987.603	-5.34
988.029	-2.54
988.456	-3.94
988.882	5.16
989.308	-12.04
989.735	-2.84
990.161	2.76
990.587	-6.54
991.014	1.36
991.44	10.06
991.866	-0.84
992.292	-9.64
992.719	-5.14
993.145	2.66
993.571	-5.94
993.997	-10.94
994.423	-2.94
994.849	-4.74
995.275	1.46
995.701	4.96
996.127	-3.04
996.553	-2.14
996.979	-6.74
997.405	-3.84
997.83	-8.84
998.256	-4.84
998.682	-6.84
999.108	-6.84
999.534	-0.94
999.959	-2.84
1000.385	-0.14
1000.811	-1.14
1001.236	-6.84
1001.662	-9.54
1002.087	-12.54
1002.513	2.46
1002.938	-0.24
1003.364	-4.94
1003.789	-0.04
1004.215	1.66
1004.64	0.56
1005.066	-2.14
1005.491	-2.94
1005.916	0.06
1006.342	-5.24
1006.767	-7.14
1007.192	8.16
1007.617	-4.24
1008.042	-5.34
1008.468	-8.14
1008.893	-1.74
1009.318	-1.74
1009.743	0.76
1010.168	6.16
1010.593	-5.84
1011.018	-9.74
1011.443	-3.44
1011.868	1.16
1012.293	-9.34
1012.718	-5.34
1013.143	0.76
1013.567	0.66
1013.992	-5.24
1014.417	-9.84
1014.842	3.76
1015.267	-5.34
1015.691	2.26
1016.116	5.16
1016.541	-1.04
1016.965	-4.34
1017.39	1.86
1017.814	1.36
1018.239	-2.34
1018.663	-8.84
1019.088	-11.74
1019.512	-2.44
1019.937	-0.64
1020.361	-4.04
1020.785	-10.14
1021.21	-5.84
1021.634	-8.04
1022.058	-1.74
1022.483	3.06
1022.907	-5.94
1023.331	-4.44
1023.755	-7.74
1024.179	-4.14
1024.604	-7.54
1025.028	-6.14
1025.452	-3.44
1025.876	0.76
1026.3	3.26
1026.724	-9.64
1027.148	-1.44
1027.572	-9.04
1027.996	-1.54
1028.42	-1.14
1028.843	-0.24
1029.267	-9.84
1029.691	-2.24
1030.115	-1.64
1030.539	-9.04
1030.962	-2.24
1031.386	-10.14
1031.81	-8.64
1032.233	-2.34
1032.657	-1.04
1033.08	-1.74
1033.504	-0.84
1033.927	-1.84
1034.351	-1.14
1034.774	-6.44
1035.198	-0.94
1035.621	-5.24
1036.045	-6.24
1036.468	2.46
1036.891	-12.04
1037.315	-8.14
1037.738	-8.04
1038.161	-0.54
1038.584	-6.24
1039.008	-10.04
1039.431	-15.64
1039.854	-0.94
1040.277	-3.64
1040.7	-12.24
1041.123	-3.24
1041.546	-8.74
1041.969	-0.04
1042.392	-10.14
1042.815	-3.84
1043.238	-3.04
1043.661	0.46
1044.084	-7.14
1044.507	-3.94
1044.93	-3.84
1045.352	-3.44
1045.775	1.36
1046.198	-4.44
1046.621	-2.94
1047.043	-3.74
1047.466	5.46
1047.889	-5.44
1048.311	-7.54
1048.734	-2.14
1049.156	0.76
1049.579	-5.14
1050.001	-2.74
1050.424	-0.84
1050.846	-0.84
1051.269	-9.14
1051.691	-1.44
1052.113	-7.34
1052.536	0.46
1052.958	-2.14
1053.38	-1.84
1053.802	-10.34
1054.225	2.16
1054.647	-10.34
1055.069	-4.54
1055.491	4.26
1055.913	-5.14
1056.335	3.86
1056.757	-1.34
1057.179	-4.04
1057.601	-3.14
1058.023	-5.04
1058.445	-4.84
1058.867	-4.14
1059.289	-0.84
1059.711	-6.54
1060.133	0.66
1060.555	-0.34
1060.976	-2.84
1061.398	-0.34
1061.82	-5.04
1062.241	-1.84
1062.663	-5.84
1063.085	-2.04
1063.506	0.46
1063.928	-5.44
1064.35	-1.94
1064.771	-9.64
1065.193	-9.24
1065.614	-10.54
1066.035	-3.84
1066.457	-3.34
1066.878	4.36
1067.3	-8.14
1067.721	-7.74
1068.142	-10.34
1068.564	0.86
1068.985	-7.84
1069.406	-6.54
1069.827	-9.04
1070.248	-4.24
1070.67	-2.74
1071.091	-6.24
1071.512	-3.24
1071.933	-8.34
1072.354	-9.64
1072.775	-1.64
1073.196	-8.24
1073.617	-0.84
1074.038	-7.04
1074.459	-1.14
1074.88	-12.74
1075.3	0.46
1075.721	-11.54
1076.142	4.26
1076.563	-4.44
1076.983	-5.34
1077.404	-7.04
1077.825	-12.14
1078.246	-4.74
1078.666	-14.34
1079.087	0.66
1079.507	-12.44
1079.928	-3.34
1080.348	3.86
1080.769	-2.84
1081.189	-1.14
1081.61	-2.44
1082.03	-4.04
1082.451	-3.54
1082.871	-5.44
1083.291	-3.74
1083.711	-5.64
1084.132	-7.74
1084.552	-5.74
1084.972	-0.44
1085.392	-5.94
1085.813	-11.64
1086.233	-5.84
1086.653	0.06
1087.073	-4.64
1087.493	-1.64
1087.913	-9.04
1088.333	-3.94
1088.753	0.86
1089.173	1.86
1089.593	-7.24
1090.013	-1.24
1090.433	4.76
1090.852	-4.44
1091.272	-2.34
1091.692	-4.94
1092.112	-2.24
1092.531	-6.14
1092.951	-13.94
1093.371	-1.74
1093.79	-3.04
1094.21	-3.94
1094.63	-11.64
1095.049	-4.04
1095.469	-4.14
1095.888	-4.84
1096.308	-2.64
1096.727	7.26
1097.146	-6.44
1097.566	-7.04
1097.985	-6.84
1098.405	-1.04
1098.824	-7.04
1099.243	-5.24
1099.662	-12.54
1100.082	-5.84
1100.501	1.36
1100.92	-9.74
1101.339	-3.84
1101.758	-4.34
