Data from 20170802-ORNL-NYSim-Air_HRD10391_10-36-15-579.txt Node
Date: Wed Aug 02 10:36:15 EDT 2017
User: Ender
Spectrometer: HR+D1039
Trigger mode: 0
Integration Time (sec): 3.750000E-3
Scans to average: 1
Electric dark correction enabled: true
Nonlinearity correction enabled: false
Boxcar width: 0
XAxis mode: Wavelengths
Number of Pixels in Spectrum: 2048
>>>>>Begin Spectral Data<<<<<
187.836	14.81
188.309	14.81
188.782	14.81
189.255	-1.19
189.728	-0.19
190.201	-15.19
190.674	-5.19
191.147	-5.19
191.619	-8.19
192.092	-4.19
192.565	-18.19
193.038	-2.19
193.511	18.81
193.984	16.81
194.456	-9.19
194.929	-4.19
195.402	-5.19
195.874	27.81
196.347	19.81
196.82	23.81
197.292	22.81
197.765	28.81
198.237	34.81
198.71	38.81
199.182	42.81
199.655	60.81
200.127	41.81
200.6	49.81
201.072	53.81
201.544	74.81
202.017	49.81
202.489	58.81
202.961	69.81
203.433	64.81
203.906	69.81
204.378	77.81
204.85	78.81
205.322	79.81
205.794	75.81
206.266	87.81
206.739	90.81
207.211	72.81
207.683	55.81
208.155	102.81
208.627	86.81
209.099	99.81
209.57	78.81
210.042	86.81
210.514	97.81
210.986	79.81
211.458	83.81
211.93	86.81
212.402	88.81
212.873	92.81
213.345	78.81
213.817	84.81
214.288	78.81
214.76	94.81
215.232	79.81
215.703	96.81
216.175	74.81
216.646	68.81
217.118	75.81
217.589	92.81
218.061	82.81
218.532	71.81
219.004	85.81
219.475	72.81
219.946	86.81
220.418	77.81
220.889	81.81
221.36	84.81
221.832	94.81
222.303	92.81
222.774	79.81
223.245	82.81
223.717	76.81
224.188	84.81
224.659	69.81
225.13	74.81
225.601	83.81
226.072	85.81
226.543	84.81
227.014	81.81
227.485	87.81
227.956	80.81
228.427	84.81
228.898	79.81
229.369	75.81
229.839	71.81
230.31	79.81
230.781	73.81
231.252	92.81
231.722	82.81
232.193	85.81
232.664	79.81
233.135	80.81
233.605	76.81
234.076	78.81
234.546	88.81
235.017	91.81
235.487	88.81
235.958	96.81
236.428	79.81
236.899	101.81
237.369	91.81
237.84	85.81
238.31	99.81
238.78	76.81
239.251	79.81
239.721	83.81
240.191	87.81
240.662	90.81
241.132	75.81
241.602	87.81
242.072	80.81
242.542	96.81
243.013	85.81
243.483	81.81
243.953	93.81
244.423	91.81
244.893	84.81
245.363	72.81
245.833	95.81
246.303	94.81
246.773	84.81
247.243	85.81
247.712	87.81
248.182	100.81
248.652	79.81
249.122	105.81
249.592	92.81
250.061	100.81
250.531	94.81
251.001	90.81
251.471	88.81
251.94	103.81
252.41	103.81
252.879	92.81
253.349	86.81
253.818	91.81
254.288	91.81
254.757	99.81
255.227	84.81
255.696	84.81
256.166	96.81
256.635	82.81
257.105	90.81
257.574	98.81
258.043	87.81
258.513	88.81
258.982	77.81
259.451	97.81
259.92	100.81
260.389	106.81
260.859	103.81
261.328	107.81
261.797	96.81
262.266	89.81
262.735	91.81
263.204	108.81
263.673	104.81
264.142	107.81
264.611	95.81
265.08	80.81
265.549	96.81
266.018	100.81
266.487	110.81
266.955	105.81
267.424	102.81
267.893	101.81
268.362	97.81
268.83	90.81
269.299	116.81
269.768	95.81
270.236	112.81
270.705	106.81
271.174	103.81
271.642	92.81
272.111	95.81
272.579	102.81
273.048	99.81
273.516	120.81
273.985	118.81
274.453	111.81
274.922	116.81
275.39	100.81
275.858	126.81
276.327	114.81
276.795	123.81
277.263	110.81
277.731	126.81
278.2	104.81
278.668	91.81
279.136	120.81
279.604	108.81
280.072	135.81
280.54	116.81
281.008	120.81
281.477	129.81
281.945	115.81
282.413	108.81
282.881	117.81
283.348	102.81
283.816	104.81
284.284	137.81
284.752	131.81
285.22	100.81
285.688	120.81
286.156	118.81
286.623	123.81
287.091	111.81
287.559	105.81
288.026	109.81
288.494	114.81
288.962	120.81
289.429	139.81
289.897	122.81
290.364	121.81
290.832	121.81
291.3	118.81
291.767	114.81
292.234	126.81
292.702	145.81
293.169	133.81
293.637	134.81
294.104	126.81
294.571	132.81
295.039	131.81
295.506	124.81
295.973	128.81
296.44	140.81
296.908	155.81
297.375	148.81
297.842	130.81
298.309	137.81
298.776	130.81
299.243	148.81
299.71	133.81
300.177	140.81
300.644	144.81
301.111	137.81
301.578	141.81
302.045	148.81
302.512	140.81
302.979	145.81
303.446	146.81
303.913	148.81
304.379	146.81
304.846	144.81
305.313	145.81
305.78	142.81
306.246	143.81
306.713	145.81
307.18	149.81
307.646	141.81
308.113	150.81
308.579	153.81
309.046	161.81
309.512	163.81
309.979	146.81
310.445	152.81
310.912	150.81
311.378	171.81
311.845	128.81
312.311	161.81
312.777	167.81
313.244	155.81
313.71	158.81
314.176	165.81
314.642	168.81
315.109	161.81
315.575	162.81
316.041	164.81
316.507	165.81
316.973	186.81
317.439	167.81
317.905	161.81
318.371	172.81
318.837	169.81
319.303	166.81
319.769	181.81
320.235	162.81
320.701	178.81
321.167	184.81
321.633	173.81
322.099	159.81
322.564	183.81
323.03	172.81
323.496	192.81
323.962	175.81
324.427	184.81
324.893	170.81
325.359	174.81
325.824	177.81
326.29	183.81
326.755	192.81
327.221	175.81
327.686	183.81
328.152	200.81
328.617	205.81
329.083	199.81
329.548	177.81
330.014	188.81
330.479	196.81
330.944	177.81
331.41	209.81
331.875	207.81
332.34	186.81
332.805	226.81
333.271	202.81
333.736	210.81
334.201	217.81
334.666	195.81
335.131	210.81
335.596	208.81
336.061	218.81
336.526	214.81
336.991	203.81
337.456	205.81
337.921	220.81
338.386	190.81
338.851	208.81
339.316	207.81
339.781	200.81
340.246	226.81
340.711	207.81
341.175	224.81
341.64	196.81
342.105	214.81
342.569	226.81
343.034	221.81
343.499	207.81
343.963	198.81
344.428	234.81
344.893	214.81
345.357	230.81
345.822	231.81
346.286	263.81
346.751	261.81
347.215	234.81
347.679	253.81
348.144	248.81
348.608	249.81
349.073	259.81
349.537	264.81
350.001	250.81
350.465	268.81
350.93	276.81
351.394	267.81
351.858	244.81
352.322	270.81
352.786	275.81
353.25	271.81
353.715	276.81
354.179	252.81
354.643	268.81
355.107	304.81
355.571	290.81
356.035	276.81
356.498	286.81
356.962	299.81
357.426	269.81
357.89	275.81
358.354	276.81
358.818	279.81
359.281	292.81
359.745	286.81
360.209	283.81
360.673	286.81
361.136	278.81
361.6	291.81
362.064	294.81
362.527	273.81
362.991	312.81
363.454	293.81
363.918	286.81
364.381	289.81
364.845	302.81
365.308	284.81
365.772	305.81
366.235	291.81
366.698	313.81
367.162	291.81
367.625	301.81
368.088	317.81
368.552	297.81
369.015	297.81
369.478	301.81
369.941	290.81
370.404	301.81
370.867	314.81
371.331	299.81
371.794	348.81
372.257	309.81
372.72	314.81
373.183	312.81
373.646	309.81
374.109	320.81
374.572	338.81
375.035	334.81
375.497	337.81
375.96	330.81
376.423	341.81
376.886	339.81
377.349	341.81
377.811	350.81
378.274	336.81
378.737	327.81
379.199	352.81
379.662	354.81
380.125	332.81
380.587	350.81
381.05	360.81
381.512	371.81
381.975	358.81
382.437	372.81
382.9	369.81
383.362	359.81
383.825	381.81
384.287	382.81
384.75	394.81
385.212	383.81
385.674	385.81
386.136	395.81
386.599	369.81
387.061	385.81
387.523	380.81
387.985	407.81
388.447	399.81
388.91	376.81
389.372	401.81
389.834	401.81
390.296	401.81
390.758	406.81
391.22	377.81
391.682	403.81
392.144	381.81
392.606	402.81
393.068	400.81
393.529	440.81
393.991	436.81
394.453	431.81
394.915	400.81
395.377	383.81
395.838	388.81
396.3	415.81
396.762	392.81
397.224	403.81
397.685	405.81
398.147	427.81
398.608	433.81
399.07	431.81
399.531	431.81
399.993	408.81
400.454	487.81
400.916	448.81
401.377	456.81
401.839	481.81
402.3	484.81
402.762	466.81
403.223	486.81
403.684	512.81
404.145	478.81
404.607	473.81
405.068	447.81
405.529	445.81
405.99	480.81
406.451	496.81
406.913	487.81
407.374	453.81
407.835	481.81
408.296	482.81
408.757	456.81
409.218	484.81
409.679	488.81
410.14	518.81
410.601	505.81
411.062	525.81
411.522	522.81
411.983	553.81
412.444	556.81
412.905	549.81
413.366	562.81
413.826	593.81
414.287	664.81
414.748	773.81
415.208	797.81
415.669	695.81
416.13	641.81
416.59	638.81
417.051	664.81
417.511	653.81
417.972	729.81
418.432	807.81
418.893	850.81
419.353	806.81
419.814	635.81
420.274	576.81
420.734	572.81
421.195	598.81
421.655	573.81
422.115	603.81
422.576	596.81
423.036	596.81
423.496	590.81
423.956	646.81
424.416	640.81
424.876	726.81
425.336	723.81
425.797	730.81
426.257	740.81
426.717	664.81
427.177	589.81
427.637	597.81
428.097	610.81
428.556	658.81
429.016	668.81
429.476	653.81
429.936	617.81
430.396	612.81
430.856	639.81
431.315	638.81
431.775	663.81
432.235	752.81
432.694	747.81
433.154	685.81
433.614	676.81
434.073	682.81
434.533	608.81
434.993	605.81
435.452	611.81
435.912	615.81
436.371	610.81
436.83	612.81
437.29	636.81
437.749	611.81
438.209	618.81
438.668	629.81
439.127	653.81
439.587	641.81
440.046	654.81
440.505	648.81
440.964	653.81
441.424	683.81
441.883	680.81
442.342	664.81
442.801	640.81
443.26	656.81
443.719	647.81
444.178	624.81
444.637	641.81
445.096	673.81
445.555	689.81
446.014	690.81
446.473	653.81
446.932	660.81
447.391	660.81
447.849	676.81
448.308	666.81
448.767	682.81
449.226	720.81
449.685	720.81
450.143	746.81
450.602	716.81
451.061	714.81
451.519	692.81
451.978	699.81
452.436	690.81
452.895	694.81
453.353	691.81
453.812	670.81
454.27	672.81
454.729	673.81
455.187	672.81
455.646	688.81
456.104	714.81
456.562	684.81
457.021	714.81
457.479	684.81
457.937	718.81
458.395	748.81
458.854	696.81
459.312	718.81
459.77	710.81
460.228	712.81
460.686	724.81
461.144	711.81
461.602	761.81
462.06	753.81
462.518	736.81
462.976	719.81
463.434	782.81
463.892	763.81
464.35	782.81
464.808	786.81
465.266	803.81
465.724	800.81
466.181	808.81
466.639	809.81
467.097	802.81
467.555	849.81
468.012	819.81
468.47	868.81
468.928	881.81
469.385	885.81
469.843	880.81
470.3	877.81
470.758	891.81
471.215	922.81
471.673	949.81
472.13	956.81
472.588	979.81
473.045	971.81
473.503	996.81
473.96	1061.81
474.417	1025.81
474.875	1068.81
475.332	1089.81
475.789	1068.81
476.246	1117.81
476.704	1126.81
477.161	1161.81
477.618	1113.81
478.075	1147.81
478.532	1204.81
478.989	1210.81
479.446	1285.81
479.903	1252.81
480.36	1297.81
480.817	1278.81
481.274	1286.81
481.731	1315.81
482.188	1331.81
482.645	1421.81
483.102	1402.81
483.558	1446.81
484.015	1436.81
484.472	1479.81
484.929	1437.81
485.385	1444.81
485.842	1469.81
486.299	1486.81
486.755	1506.81
487.212	1430.81
487.668	1433.81
488.125	1457.81
488.582	1398.81
489.038	1415.81
489.494	1408.81
489.951	1430.81
490.407	1456.81
490.864	1437.81
491.32	1424.81
491.776	1464.81
492.233	1492.81
492.689	1466.81
493.145	1463.81
493.602	1435.81
494.058	1489.81
494.514	1475.81
494.97	1496.81
495.426	1500.81
495.882	1556.81
496.338	1514.81
496.794	1542.81
497.251	1543.81
497.707	1560.81
498.163	1550.81
498.618	1561.81
499.074	1593.81
499.53	1543.81
499.986	1624.81
500.442	1586.81
500.898	1592.81
501.354	1580.81
501.809	1567.81
502.265	1570.81
502.721	1597.81
503.177	1625.81
503.632	1610.81
504.088	1603.81
504.543	1642.81
504.999	1672.81
505.455	1663.81
505.91	1648.81
506.366	1626.81
506.821	1654.81
507.277	1627.81
507.732	1648.81
508.187	1654.81
508.643	1661.81
509.098	1641.81
509.553	1718.81
510.009	1743.81
510.464	1726.81
510.919	1737.81
511.375	1798.81
511.83	1821.81
512.285	1799.81
512.74	1864.81
513.195	1899.81
513.65	1958.81
514.105	1937.81
514.56	1982.81
515.015	2012.81
515.47	1981.81
515.925	1984.81
516.38	2013.81
516.835	1988.81
517.29	1976.81
517.745	1987.81
518.2	1994.81
518.655	1886.81
519.109	1844.81
519.564	1884.81
520.019	1838.81
520.474	1836.81
520.928	1814.81
521.383	1796.81
521.838	1791.81
522.292	1758.81
522.747	1795.81
523.201	1750.81
523.656	1773.81
524.11	1727.81
524.565	1745.81
525.019	1739.81
525.474	1746.81
525.928	1712.81
526.382	1775.81
526.837	1723.81
527.291	1766.81
527.745	1742.81
528.2	1796.81
528.654	1727.81
529.108	1697.81
529.562	1722.81
530.016	1683.81
530.47	1692.81
530.925	1694.81
531.379	1719.81
531.833	1726.81
532.287	1754.81
532.741	1708.81
533.195	1712.81
533.649	1741.81
534.103	1752.81
534.556	1700.81
535.01	1760.81
535.464	1707.81
535.918	1757.81
536.372	1742.81
536.826	1731.81
537.279	1726.81
537.733	1717.81
538.187	1728.81
538.64	1730.81
539.094	1801.81
539.548	1775.81
540.001	1778.81
540.455	1759.81
540.908	1786.81
541.362	1840.81
541.815	1818.81
542.269	1832.81
542.722	1850.81
543.175	1922.81
543.629	1926.81
544.082	1914.81
544.536	1941.81
544.989	1928.81
545.442	1946.81
545.895	1930.81
546.349	1916.81
546.802	1960.81
547.255	1931.81
547.708	1964.81
548.161	1980.81
548.614	2051.81
549.067	2012.81
549.52	2010.81
549.973	1938.81
550.426	1936.81
550.879	1934.81
551.332	1943.81
551.785	1964.81
552.238	2002.81
552.691	2004.81
553.144	1975.81
553.596	2081.81
554.049	2068.81
554.502	2098.81
554.955	2179.81
555.407	2166.81
555.86	2189.81
556.313	2128.81
556.765	2143.81
557.218	2072.81
557.67	2076.81
558.123	2000.81
558.576	2052.81
559.028	2057.81
559.48	2112.81
559.933	2056.81
560.385	1979.81
560.838	1943.81
561.29	1880.81
561.742	1893.81
562.195	1802.81
562.647	1780.81
563.099	1788.81
563.551	1766.81
564.004	1814.81
564.456	1794.81
564.908	1750.81
565.36	1748.81
565.812	1708.81
566.264	1647.81
566.716	1670.81
567.168	1637.81
567.62	1629.81
568.072	1576.81
568.524	1610.81
568.976	1610.81
569.428	1591.81
569.88	1574.81
570.332	1592.81
570.784	1629.81
571.235	1593.81
571.687	1616.81
572.139	1617.81
572.59	1628.81
573.042	1641.81
573.494	1621.81
573.945	1625.81
574.397	1552.81
574.849	1607.81
575.3	1564.81
575.752	1580.81
576.203	1590.81
576.655	1558.81
577.106	1486.81
577.557	1508.81
578.009	1516.81
578.46	1518.81
578.912	1515.81
579.363	1528.81
579.814	1489.81
580.265	1496.81
580.717	1470.81
581.168	1524.81
581.619	1554.81
582.07	1559.81
582.521	1554.81
582.972	1491.81
583.423	1522.81
583.875	1548.81
584.326	1498.81
584.777	1568.81
585.227	1598.81
585.678	1597.81
586.129	1634.81
586.58	1638.81
587.031	1668.81
587.482	1733.81
587.933	1752.81
588.384	1746.81
588.834	1737.81
589.285	1700.81
589.736	1700.81
590.186	1699.81
590.637	1725.81
591.088	1708.81
591.538	1613.81
591.989	1579.81
592.439	1634.81
592.89	1575.81
593.34	1549.81
593.791	1566.81
594.241	1540.81
594.692	1564.81
595.142	1563.81
595.593	1510.81
596.043	1528.81
596.493	1559.81
596.943	1597.81
597.394	1556.81
597.844	1607.81
598.294	1633.81
598.744	1676.81
599.195	1772.81
599.645	1881.81
600.095	1993.81
600.545	2152.81
600.995	2191.81
601.445	2302.81
601.895	2395.81
602.345	2486.81
602.795	2495.81
603.245	2394.81
603.695	2216.81
604.145	2094.81
604.594	2002.81
605.044	1842.81
605.494	1730.81
605.944	1709.81
606.393	1623.81
606.843	1563.81
607.293	1629.81
607.743	1593.81
608.192	1611.81
608.642	1605.81
609.091	1584.81
609.541	1614.81
609.99	1589.81
610.44	1559.81
610.889	1534.81
611.339	1474.81
611.788	1490.81
612.238	1522.81
612.687	1477.81
613.136	1526.81
613.586	1514.81
614.035	1518.81
614.484	1567.81
614.933	1560.81
615.383	1527.81
615.832	1500.81
616.281	1442.81
616.73	1422.81
617.179	1421.81
617.628	1392.81
618.077	1366.81
618.526	1336.81
618.975	1324.81
619.424	1308.81
619.873	1302.81
620.322	1295.81
620.771	1271.81
621.22	1271.81
621.669	1226.81
622.118	1206.81
622.567	1236.81
623.015	1162.81
623.464	1180.81
623.913	1190.81
624.361	1158.81
624.81	1159.81
625.259	1149.81
625.707	1167.81
626.156	1172.81
626.604	1225.81
627.053	1173.81
627.501	1216.81
627.95	1219.81
628.398	1210.81
628.847	1224.81
629.295	1193.81
629.744	1199.81
630.192	1166.81
630.64	1128.81
631.089	1137.81
631.537	1126.81
631.985	1080.81
632.433	1101.81
632.881	1073.81
633.33	1045.81
633.778	1098.81
634.226	1077.81
634.674	1112.81
635.122	1077.81
635.57	1141.81
636.018	1174.81
636.466	1126.81
636.914	1125.81
637.362	1153.81
637.81	1145.81
638.258	1200.81
638.705	1180.81
639.153	1239.81
639.601	1261.81
640.049	1304.81
640.497	1327.81
640.944	1360.81
641.392	1318.81
641.84	1182.81
642.287	1124.81
642.735	1094.81
643.182	1076.81
643.63	1007.81
644.078	1046.81
644.525	1062.81
644.973	1051.81
645.42	1045.81
645.867	1082.81
646.315	1046.81
646.762	1070.81
647.21	1036.81
647.657	1039.81
648.104	1044.81
648.551	999.81
648.999	1027.81
649.446	1007.81
649.893	1000.81
650.34	977.81
650.787	998.81
651.234	1073.81
651.682	1129.81
652.129	1245.81
652.576	1412.81
653.023	1592.81
653.47	1712.81
653.917	1784.81
654.363	1838.81
654.81	1954.81
655.257	2054.81
655.704	1716.81
656.151	1332.81
656.598	1166.81
657.044	1019.81
657.491	1017.81
657.938	967.81
658.385	972.81
658.831	979.81
659.278	958.81
659.724	980.81
660.171	963.81
660.618	967.81
661.064	917.81
661.511	929.81
661.957	938.81
662.404	932.81
662.85	937.81
663.296	942.81
663.743	976.81
664.189	927.81
664.635	948.81
665.082	940.81
665.528	949.81
665.974	933.81
666.42	891.81
666.867	923.81
667.313	873.81
667.759	877.81
668.205	873.81
668.651	860.81
669.097	869.81
669.543	862.81
669.989	901.81
670.435	906.81
670.881	884.81
671.327	911.81
671.773	971.81
672.219	1036.81
672.665	1159.81
673.11	1197.81
673.556	1243.81
674.002	1254.81
674.448	1274.81
674.893	1127.81
675.339	980.81
675.785	910.81
676.23	852.81
676.676	808.81
677.122	823.81
677.567	788.81
678.013	766.81
678.458	742.81
678.904	739.81
679.349	737.81
679.794	773.81
680.24	719.81
680.685	716.81
681.131	713.81
681.576	754.81
682.021	732.81
682.466	721.81
682.912	779.81
683.357	764.81
683.802	844.81
684.247	881.81
684.692	983.81
685.137	1033.81
685.583	1089.81
686.028	1136.81
686.473	1078.81
686.918	948.81
687.363	859.81
687.807	798.81
688.252	818.81
688.697	755.81
689.142	729.81
689.587	736.81
690.032	737.81
690.477	742.81
690.921	806.81
691.366	846.81
691.811	856.81
692.255	914.81
692.7	1070.81
693.145	1395.81
693.589	2140.81
694.034	2862.81
694.478	3190.81
694.923	3043.81
695.367	3682.81
695.812	3314.81
696.256	1308.81
696.701	827.81
697.145	740.81
697.59	720.81
698.034	689.81
698.478	710.81
698.922	693.81
699.367	721.81
699.811	744.81
700.255	797.81
700.699	898.81
701.143	957.81
701.588	1034.81
702.032	1046.81
702.476	1066.81
702.92	1102.81
703.364	1290.81
703.808	1939.81
704.252	2718.81
704.696	3003.81
705.14	2878.81
705.584	3610.81
706.027	2907.81
706.471	1343.81
706.915	887.81
707.359	757.81
707.803	718.81
708.246	695.81
708.69	686.81
709.134	676.81
709.577	673.81
710.021	687.81
710.465	676.81
710.908	679.81
711.352	620.81
711.795	764.81
712.239	789.81
712.682	841.81
713.126	838.81
713.569	918.81
714.012	823.81
714.456	694.81
714.899	634.81
715.342	622.81
715.786	569.81
716.229	582.81
716.672	553.81
717.115	532.81
717.558	559.81
718.002	548.81
718.445	621.81
718.888	636.81
719.331	662.81
719.774	662.81
720.217	686.81
720.66	603.81
721.103	587.81
721.546	561.81
721.989	552.81
722.432	526.81
722.874	523.81
723.317	542.81
723.76	574.81
724.203	640.81
724.645	820.81
725.088	1028.81
725.531	1118.81
725.974	1093.81
726.416	1186.81
726.859	774.81
727.301	584.81
727.744	553.81
728.187	519.81
728.629	559.81
729.071	567.81
729.514	599.81
729.956	617.81
730.399	639.81
730.841	630.81
731.283	629.81
731.726	600.81
732.168	598.81
732.61	647.81
733.053	659.81
733.495	745.81
733.937	802.81
734.379	904.81
734.821	1057.81
735.263	1532.81
735.705	2661.81
736.148	4422.81
736.59	5158.81
737.032	4800.81
737.474	5242.81
737.916	2416.81
738.357	1123.81
738.799	776.81
739.241	647.81
739.683	668.81
740.125	678.81
740.567	683.81
741.008	706.81
741.45	765.81
741.892	824.81
742.334	799.81
742.775	762.81
743.217	820.81
743.658	698.81
744.1	641.81
744.542	708.81
744.983	762.81
745.425	782.81
745.866	788.81
746.307	693.81
746.749	678.81
747.19	850.81
747.632	1476.81
748.073	3037.81
748.514	4726.81
748.956	5756.81
749.397	7707.81
749.838	6250.81
750.279	5108.81
750.72	3657.81
751.162	1596.81
751.603	838.81
752.044	595.81
752.485	574.81
752.926	500.81
753.367	468.81
753.808	470.81
754.249	465.81
754.69	476.81
755.131	459.81
755.572	430.81
756.013	471.81
756.453	451.81
756.894	465.81
757.335	448.81
757.776	451.81
758.216	470.81
758.657	499.81
759.098	526.81
759.538	603.81
759.979	768.81
760.42	1238.81
760.86	2839.81
761.301	6920.81
761.741	10234.81
762.182	10510.81
762.622	9762.81
763.063	4242.81
763.503	1674.81
763.943	859.81
764.384	620.81
764.824	542.81
765.264	510.81
765.705	475.81
766.145	487.81
766.585	466.81
767.025	398.81
767.465	422.81
767.906	436.81
768.346	444.81
768.786	500.81
769.226	596.81
769.666	1001.81
770.106	2255.81
770.546	4059.81
770.986	4400.81
771.426	4284.81
771.866	2308.81
772.306	1013.81
772.745	562.81
773.185	453.81
773.625	418.81
774.065	441.81
774.505	474.81
774.944	736.81
775.384	1123.81
775.824	1334.81
776.263	1295.81
776.703	898.81
777.142	551.81
777.582	366.81
778.021	353.81
778.461	331.81
778.9	315.81
779.34	306.81
779.779	320.81
780.219	310.81
780.658	321.81
781.097	314.81
781.537	293.81
781.976	298.81
782.415	283.81
782.855	295.81
783.294	298.81
783.733	283.81
784.172	288.81
784.611	280.81
785.05	288.81
785.489	280.81
785.928	323.81
786.367	312.81
786.806	317.81
787.245	326.81
787.684	362.81
788.123	372.81
788.562	338.81
789.001	342.81
789.44	327.81
789.879	328.81
790.317	330.81
790.756	340.81
791.195	342.81
791.634	426.81
792.072	624.81
792.511	1330.81
792.95	3019.81
793.388	3862.81
793.827	3324.81
794.265	1882.81
794.704	914.81
795.142	512.81
795.581	384.81
796.019	355.81
796.458	362.81
796.896	340.81
797.334	377.81
797.773	435.81
798.211	682.81
798.649	1431.81
799.087	2472.81
799.526	3725.81
799.964	4175.81
800.402	3503.81
800.84	2019.81
801.278	988.81
801.716	574.81
802.154	430.81
802.592	380.81
803.03	386.81
803.468	393.81
803.906	391.81
804.344	365.81
804.782	357.81
805.22	381.81
805.658	378.81
806.096	397.81
806.533	434.81
806.971	468.81
807.409	650.81
807.847	1037.81
808.284	2467.81
808.722	5069.81
809.16	6953.81
809.597	9736.81
810.035	12437.81
810.472	10564.81
810.91	5719.81
811.347	2672.81
811.785	1187.81
812.222	709.81
812.66	530.81
813.097	443.81
813.535	358.81
813.972	366.81
814.409	343.81
814.846	350.81
815.284	309.81
815.721	298.81
816.158	323.81
816.595	370.81
817.032	454.81
817.47	472.81
817.907	391.81
818.344	356.81
818.781	319.81
819.218	324.81
819.655	414.81
820.092	558.81
820.529	542.81
820.966	473.81
821.403	410.81
821.839	326.81
822.276	328.81
822.713	375.81
823.15	385.81
823.587	401.81
824.023	511.81
824.46	1114.81
824.897	2212.81
825.333	2272.81
825.77	1309.81
826.206	754.81
826.643	426.81
827.08	311.81
827.516	279.81
827.953	268.81
828.389	230.81
828.825	233.81
829.262	229.81
829.698	226.81
830.135	214.81
830.571	218.81
831.007	216.81
831.443	213.81
831.88	212.81
832.316	211.81
832.752	205.81
833.188	212.81
833.624	214.81
834.06	227.81
834.497	237.81
834.933	233.81
835.369	232.81
835.805	223.81
836.241	266.81
836.677	274.81
837.112	289.81
837.548	325.81
837.984	422.81
838.42	687.81
838.856	1748.81
839.292	3926.81
839.727	4182.81
840.163	2742.81
840.599	3213.81
841.034	4914.81
841.47	3784.81
841.906	1974.81
842.341	1112.81
842.777	644.81
843.212	564.81
843.648	477.81
844.083	340.81
844.519	270.81
844.954	246.81
845.39	225.81
845.825	226.81
846.261	218.81
846.696	180.81
847.131	199.81
847.566	197.81
848.002	177.81
848.437	212.81
848.872	212.81
849.307	232.81
849.742	314.81
850.177	662.81
850.613	1424.81
851.048	1582.81
851.483	862.81
851.918	550.81
852.353	324.81
852.788	222.81
853.223	210.81
853.657	192.81
854.092	185.81
854.527	194.81
854.962	175.81
855.397	184.81
855.832	175.81
856.266	160.81
856.701	170.81
857.136	168.81
857.57	172.81
858.005	222.81
858.44	199.81
858.874	206.81
859.309	184.81
859.743	190.81
860.178	191.81
860.612	193.81
861.047	212.81
861.481	247.81
861.915	240.81
862.35	204.81
862.784	182.81
863.218	164.81
863.653	164.81
864.087	167.81
864.521	182.81
864.955	266.81
865.39	431.81
865.824	402.81
866.258	409.81
866.692	557.81
867.126	504.81
867.56	374.81
867.994	271.81
868.428	201.81
868.862	235.81
869.296	207.81
869.73	211.81
870.164	236.81
870.598	197.81
871.031	194.81
871.465	173.81
871.899	159.81
872.333	137.81
872.766	130.81
873.2	127.81
873.634	120.81
874.067	132.81
874.501	156.81
874.935	162.81
875.368	140.81
875.802	139.81
876.235	139.81
876.669	131.81
877.102	145.81
877.535	137.81
877.969	128.81
878.402	130.81
878.836	131.81
879.269	134.81
879.702	138.81
880.135	150.81
880.569	127.81
881.002	145.81
881.435	122.81
881.868	143.81
882.301	135.81
882.734	132.81
883.167	129.81
883.601	108.81
884.034	128.81
884.467	125.81
884.899	126.81
885.332	126.81
885.765	123.81
886.198	114.81
886.631	117.81
887.064	123.81
887.497	105.81
887.929	125.81
888.362	114.81
888.795	127.81
889.228	112.81
889.66	101.81
890.093	127.81
890.526	108.81
890.958	135.81
891.391	98.81
891.823	103.81
892.256	107.81
892.688	116.81
893.121	120.81
893.553	105.81
893.985	131.81
894.418	128.81
894.85	130.81
895.282	113.81
895.715	103.81
896.147	133.81
896.579	128.81
897.011	106.81
897.444	95.81
897.876	112.81
898.308	115.81
898.74	113.81
899.172	108.81
899.604	135.81
900.036	110.81
900.468	122.81
900.9	118.81
901.332	106.81
901.764	128.81
902.196	114.81
902.628	121.81
903.06	148.81
903.491	150.81
903.923	164.81
904.355	148.81
904.787	170.81
905.218	140.81
905.65	114.81
906.082	130.81
906.513	118.81
906.945	128.81
907.376	125.81
907.808	110.81
908.239	119.81
908.671	147.81
909.102	131.81
909.534	170.81
909.965	234.81
910.397	345.81
910.828	894.81
911.259	943.81
911.691	619.81
912.122	398.81
912.553	236.81
912.984	163.81
913.415	145.81
913.847	123.81
914.278	122.81
914.709	116.81
915.14	121.81
915.571	113.81
916.002	114.81
916.433	110.81
916.864	129.81
917.295	117.81
917.726	128.81
918.157	122.81
918.587	149.81
919.018	126.81
919.449	137.81
919.88	126.81
920.311	138.81
920.741	238.81
921.172	468.81
921.603	358.81
922.033	279.81
922.464	209.81
922.895	158.81
923.325	112.81
923.756	119.81
924.186	116.81
924.617	123.81
925.047	154.81
925.478	166.81
925.908	143.81
926.338	120.81
926.769	126.81
927.199	106.81
927.629	122.81
928.06	104.81
928.49	108.81
928.92	109.81
929.35	104.81
929.78	115.81
930.21	100.81
930.641	102.81
931.071	93.81
931.501	105.81
931.931	105.81
932.361	99.81
932.791	103.81
933.221	103.81
933.651	108.81
934.08	138.81
934.51	126.81
934.94	114.81
935.37	106.81
935.8	80.81
936.229	117.81
936.659	110.81
937.089	106.81
937.519	133.81
937.948	124.81
938.378	132.81
938.807	106.81
939.237	103.81
939.666	104.81
940.096	102.81
940.525	105.81
940.955	92.81
941.384	99.81
941.814	107.81
942.243	98.81
942.672	89.81
943.102	91.81
943.531	95.81
943.96	94.81
944.39	84.81
944.819	97.81
945.248	94.81
945.677	99.81
946.106	100.81
946.535	72.81
946.964	81.81
947.393	95.81
947.822	80.81
948.251	92.81
948.68	88.81
949.109	84.81
949.538	77.81
949.967	99.81
950.396	91.81
950.825	97.81
951.254	94.81
951.682	80.81
952.111	96.81
952.54	90.81
952.969	104.81
953.397	98.81
953.826	94.81
954.254	107.81
954.683	89.81
955.112	80.81
955.54	83.81
955.969	77.81
956.397	92.81
956.826	78.81
957.254	92.81
957.682	101.81
958.111	72.81
958.539	81.81
958.967	90.81
959.396	91.81
959.824	91.81
960.252	97.81
960.68	76.81
961.109	104.81
961.537	78.81
961.965	73.81
962.393	100.81
962.821	102.81
963.249	103.81
963.677	97.81
964.105	104.81
964.533	175.81
964.961	156.81
965.389	149.81
965.817	104.81
966.245	94.81
966.672	92.81
967.1	90.81
967.528	91.81
967.956	91.81
968.383	90.81
968.811	92.81
969.239	102.81
969.666	94.81
970.094	93.81
970.522	93.81
970.949	90.81
971.377	89.81
971.804	69.81
972.232	78.81
972.659	80.81
973.087	102.81
973.514	97.81
973.941	80.81
974.369	91.81
974.796	89.81
975.223	75.81
975.651	85.81
976.078	92.81
976.505	100.81
976.932	104.81
977.359	113.81
977.786	111.81
978.214	110.81
978.641	95.81
979.068	70.81
979.495	98.81
979.922	72.81
980.349	88.81
980.776	79.81
981.202	63.81
981.629	84.81
982.056	94.81
982.483	96.81
982.91	91.81
983.337	72.81
983.763	90.81
984.19	109.81
984.617	94.81
985.043	87.81
985.47	88.81
985.897	92.81
986.323	87.81
986.75	62.81
987.176	84.81
987.603	96.81
988.029	86.81
988.456	99.81
988.882	72.81
989.308	85.81
989.735	79.81
990.161	89.81
990.587	87.81
991.014	90.81
991.44	95.81
991.866	77.81
992.292	100.81
992.719	84.81
993.145	92.81
993.571	80.81
993.997	74.81
994.423	78.81
994.849	86.81
995.275	88.81
995.701	92.81
996.127	105.81
996.553	85.81
996.979	90.81
997.405	81.81
997.83	51.81
998.256	98.81
998.682	85.81
999.108	96.81
999.534	87.81
999.959	78.81
1000.385	90.81
1000.811	87.81
1001.236	85.81
1001.662	92.81
1002.087	100.81
1002.513	78.81
1002.938	88.81
1003.364	82.81
1003.789	82.81
1004.215	87.81
1004.64	91.81
1005.066	78.81
1005.491	76.81
1005.916	72.81
1006.342	101.81
1006.767	68.81
1007.192	78.81
1007.617	90.81
1008.042	66.81
1008.468	83.81
1008.893	81.81
1009.318	105.81
1009.743	100.81
1010.168	100.81
1010.593	111.81
1011.018	111.81
1011.443	94.81
1011.868	87.81
1012.293	77.81
1012.718	98.81
1013.143	88.81
1013.567	81.81
1013.992	82.81
1014.417	87.81
1014.842	94.81
1015.267	89.81
1015.691	96.81
1016.116	88.81
1016.541	81.81
1016.965	85.81
1017.39	90.81
1017.814	67.81
1018.239	100.81
1018.663	102.81
1019.088	89.81
1019.512	95.81
1019.937	68.81
1020.361	84.81
1020.785	87.81
1021.21	75.81
1021.634	79.81
1022.058	77.81
1022.483	90.81
1022.907	83.81
1023.331	98.81
1023.755	70.81
1024.179	73.81
1024.604	93.81
1025.028	76.81
1025.452	72.81
1025.876	92.81
1026.3	102.81
1026.724	104.81
1027.148	91.81
1027.572	97.81
1027.996	79.81
1028.42	92.81
1028.843	94.81
1029.267	80.81
1029.691	73.81
1030.115	79.81
1030.539	83.81
1030.962	84.81
1031.386	72.81
1031.81	82.81
1032.233	78.81
1032.657	85.81
1033.08	89.81
1033.504	90.81
1033.927	80.81
1034.351	73.81
1034.774	85.81
1035.198	86.81
1035.621	80.81
1036.045	65.81
1036.468	101.81
1036.891	98.81
1037.315	62.81
1037.738	77.81
1038.161	98.81
1038.584	75.81
1039.008	88.81
1039.431	72.81
1039.854	95.81
1040.277	99.81
1040.7	90.81
1041.123	76.81
1041.546	76.81
1041.969	89.81
1042.392	87.81
1042.815	75.81
1043.238	72.81
1043.661	87.81
1044.084	89.81
1044.507	83.81
1044.93	85.81
1045.352	74.81
1045.775	95.81
1046.198	75.81
1046.621	86.81
1047.043	87.81
1047.466	80.81
1047.889	85.81
1048.311	84.81
1048.734	82.81
1049.156	78.81
1049.579	78.81
1050.001	86.81
1050.424	88.81
1050.846	84.81
1051.269	82.81
1051.691	81.81
1052.113	68.81
1052.536	95.81
1052.958	82.81
1053.38	78.81
1053.802	84.81
1054.225	90.81
1054.647	78.81
1055.069	75.81
1055.491	78.81
1055.913	75.81
1056.335	68.81
1056.757	78.81
1057.179	89.81
1057.601	83.81
1058.023	84.81
1058.445	77.81
1058.867	82.81
1059.289	80.81
1059.711	63.81
1060.133	85.81
1060.555	84.81
1060.976	80.81
1061.398	79.81
1061.82	74.81
1062.241	95.81
1062.663	85.81
1063.085	82.81
1063.506	91.81
1063.928	89.81
1064.35	84.81
1064.771	72.81
1065.193	72.81
1065.614	76.81
1066.035	76.81
1066.457	80.81
1066.878	87.81
1067.3	98.81
1067.721	73.81
1068.142	77.81
1068.564	86.81
1068.985	74.81
1069.406	78.81
1069.827	85.81
1070.248	71.81
1070.67	78.81
1071.091	91.81
1071.512	88.81
1071.933	87.81
1072.354	82.81
1072.775	84.81
1073.196	68.81
1073.617	90.81
1074.038	80.81
1074.459	86.81
1074.88	90.81
1075.3	77.81
1075.721	82.81
1076.142	62.81
1076.563	70.81
1076.983	82.81
1077.404	90.81
1077.825	82.81
1078.246	76.81
1078.666	87.81
1079.087	76.81
1079.507	97.81
1079.928	79.81
1080.348	82.81
1080.769	82.81
1081.189	79.81
1081.61	93.81
1082.03	78.81
1082.451	77.81
1082.871	98.81
1083.291	98.81
1083.711	83.81
1084.132	76.81
1084.552	87.81
1084.972	86.81
1085.392	79.81
1085.813	82.81
1086.233	70.81
1086.653	75.81
1087.073	100.81
1087.493	83.81
1087.913	76.81
1088.333	91.81
1088.753	85.81
1089.173	65.81
1089.593	97.81
1090.013	75.81
1090.433	78.81
1090.852	85.81
1091.272	89.81
1091.692	73.81
1092.112	90.81
1092.531	86.81
1092.951	84.81
1093.371	90.81
1093.79	97.81
1094.21	70.81
1094.63	72.81
1095.049	95.81
1095.469	78.81
1095.888	85.81
1096.308	63.81
1096.727	75.81
1097.146	76.81
1097.566	68.81
1097.985	98.81
1098.405	88.81
1098.824	71.81
1099.243	64.81
1099.662	91.81
1100.082	91.81
1100.501	88.81
1100.92	78.81
1101.339	72.81
1101.758	89.81
