Data from 20170802-ORNL-NYSim-Air_HRD10391_10-36-03-565.txt Node
Date: Wed Aug 02 10:36:03 EDT 2017
User: Ender
Spectrometer: HR+D1039
Trigger mode: 0
Integration Time (sec): 3.750000E-3
Scans to average: 1
Electric dark correction enabled: true
Nonlinearity correction enabled: false
Boxcar width: 0
XAxis mode: Wavelengths
Number of Pixels in Spectrum: 2048
>>>>>Begin Spectral Data<<<<<
187.836	17.69
188.309	17.69
188.782	17.69
189.255	5.69
189.728	-11.31
190.201	-12.31
190.674	-1.31
191.147	-20.31
191.619	-10.31
192.092	-4.31
192.565	15.69
193.038	-10.31
193.511	-0.31
193.984	2.69
194.456	-4.31
194.929	13.69
195.402	13.69
195.874	5.69
196.347	3.69
196.82	35.69
197.292	11.69
197.765	45.69
198.237	46.69
198.71	39.69
199.182	49.69
199.655	59.69
200.127	44.69
200.6	65.69
201.072	68.69
201.544	55.69
202.017	55.69
202.489	65.69
202.961	89.69
203.433	53.69
203.906	67.69
204.378	76.69
204.85	72.69
205.322	93.69
205.794	91.69
206.266	85.69
206.739	94.69
207.211	85.69
207.683	85.69
208.155	92.69
208.627	71.69
209.099	76.69
209.57	71.69
210.042	84.69
210.514	87.69
210.986	90.69
211.458	74.69
211.93	74.69
212.402	99.69
212.873	71.69
213.345	94.69
213.817	82.69
214.288	97.69
214.76	95.69
215.232	71.69
215.703	91.69
216.175	68.69
216.646	70.69
217.118	85.69
217.589	81.69
218.061	71.69
218.532	69.69
219.004	89.69
219.475	92.69
219.946	97.69
220.418	87.69
220.889	94.69
221.36	78.69
221.832	77.69
222.303	75.69
222.774	91.69
223.245	85.69
223.717	77.69
224.188	80.69
224.659	76.69
225.13	97.69
225.601	87.69
226.072	91.69
226.543	85.69
227.014	71.69
227.485	81.69
227.956	77.69
228.427	91.69
228.898	83.69
229.369	85.69
229.839	73.69
230.31	69.69
230.781	89.69
231.252	89.69
231.722	92.69
232.193	87.69
232.664	91.69
233.135	71.69
233.605	80.69
234.076	84.69
234.546	106.69
235.017	75.69
235.487	94.69
235.958	78.69
236.428	81.69
236.899	74.69
237.369	78.69
237.84	86.69
238.31	91.69
238.78	72.69
239.251	100.69
239.721	92.69
240.191	96.69
240.662	99.69
241.132	87.69
241.602	103.69
242.072	92.69
242.542	99.69
243.013	102.69
243.483	96.69
243.953	81.69
244.423	85.69
244.893	95.69
245.363	99.69
245.833	98.69
246.303	97.69
246.773	92.69
247.243	93.69
247.712	91.69
248.182	94.69
248.652	103.69
249.122	111.69
249.592	94.69
250.061	91.69
250.531	102.69
251.001	93.69
251.471	78.69
251.94	93.69
252.41	109.69
252.879	95.69
253.349	87.69
253.818	87.69
254.288	106.69
254.757	103.69
255.227	104.69
255.696	102.69
256.166	96.69
256.635	100.69
257.105	106.69
257.574	101.69
258.043	100.69
258.513	89.69
258.982	120.69
259.451	104.69
259.92	94.69
260.389	110.69
260.859	104.69
261.328	93.69
261.797	95.69
262.266	96.69
262.735	107.69
263.204	119.69
263.673	99.69
264.142	107.69
264.611	99.69
265.08	101.69
265.549	88.69
266.018	111.69
266.487	101.69
266.955	88.69
267.424	107.69
267.893	108.69
268.362	119.69
268.83	108.69
269.299	102.69
269.768	114.69
270.236	108.69
270.705	104.69
271.174	113.69
271.642	106.69
272.111	98.69
272.579	118.69
273.048	113.69
273.516	112.69
273.985	121.69
274.453	113.69
274.922	112.69
275.39	125.69
275.858	133.69
276.327	113.69
276.795	117.69
277.263	117.69
277.731	121.69
278.2	118.69
278.668	110.69
279.136	125.69
279.604	127.69
280.072	114.69
280.54	105.69
281.008	111.69
281.477	123.69
281.945	115.69
282.413	121.69
282.881	128.69
283.348	123.69
283.816	116.69
284.284	125.69
284.752	120.69
285.22	121.69
285.688	123.69
286.156	114.69
286.623	121.69
287.091	116.69
287.559	117.69
288.026	132.69
288.494	123.69
288.962	127.69
289.429	126.69
289.897	121.69
290.364	125.69
290.832	126.69
291.3	138.69
291.767	122.69
292.234	141.69
292.702	122.69
293.169	142.69
293.637	117.69
294.104	133.69
294.571	135.69
295.039	130.69
295.506	129.69
295.973	142.69
296.44	144.69
296.908	131.69
297.375	143.69
297.842	138.69
298.309	138.69
298.776	144.69
299.243	131.69
299.71	142.69
300.177	128.69
300.644	137.69
301.111	145.69
301.578	148.69
302.045	134.69
302.512	143.69
302.979	149.69
303.446	121.69
303.913	166.69
304.379	141.69
304.846	143.69
305.313	146.69
305.78	143.69
306.246	142.69
306.713	154.69
307.18	145.69
307.646	149.69
308.113	176.69
308.579	165.69
309.046	147.69
309.512	147.69
309.979	165.69
310.445	172.69
310.912	153.69
311.378	163.69
311.845	163.69
312.311	173.69
312.777	179.69
313.244	175.69
313.71	152.69
314.176	171.69
314.642	160.69
315.109	165.69
315.575	175.69
316.041	146.69
316.507	173.69
316.973	164.69
317.439	173.69
317.905	178.69
318.371	176.69
318.837	163.69
319.303	163.69
319.769	185.69
320.235	185.69
320.701	192.69
321.167	180.69
321.633	175.69
322.099	205.69
322.564	164.69
323.03	171.69
323.496	193.69
323.962	182.69
324.427	179.69
324.893	169.69
325.359	177.69
325.824	168.69
326.29	199.69
326.755	193.69
327.221	193.69
327.686	209.69
328.152	202.69
328.617	210.69
329.083	168.69
329.548	191.69
330.014	188.69
330.479	199.69
330.944	198.69
331.41	217.69
331.875	193.69
332.34	210.69
332.805	213.69
333.271	179.69
333.736	206.69
334.201	211.69
334.666	177.69
335.131	204.69
335.596	234.69
336.061	223.69
336.526	205.69
336.991	191.69
337.456	185.69
337.921	219.69
338.386	203.69
338.851	212.69
339.316	212.69
339.781	209.69
340.246	214.69
340.711	211.69
341.175	208.69
341.64	222.69
342.105	228.69
342.569	213.69
343.034	238.69
343.499	233.69
343.963	231.69
344.428	222.69
344.893	216.69
345.357	237.69
345.822	230.69
346.286	238.69
346.751	226.69
347.215	251.69
347.679	251.69
348.144	253.69
348.608	250.69
349.073	254.69
349.537	243.69
350.001	253.69
350.465	274.69
350.93	267.69
351.394	270.69
351.858	281.69
352.322	275.69
352.786	279.69
353.25	276.69
353.715	276.69
354.179	273.69
354.643	306.69
355.107	297.69
355.571	281.69
356.035	267.69
356.498	267.69
356.962	296.69
357.426	281.69
357.89	282.69
358.354	289.69
358.818	279.69
359.281	275.69
359.745	286.69
360.209	285.69
360.673	294.69
361.136	290.69
361.6	292.69
362.064	293.69
362.527	275.69
362.991	292.69
363.454	313.69
363.918	306.69
364.381	303.69
364.845	294.69
365.308	296.69
365.772	289.69
366.235	304.69
366.698	317.69
367.162	297.69
367.625	300.69
368.088	300.69
368.552	298.69
369.015	292.69
369.478	321.69
369.941	317.69
370.404	314.69
370.867	312.69
371.331	295.69
371.794	326.69
372.257	315.69
372.72	319.69
373.183	306.69
373.646	333.69
374.109	314.69
374.572	308.69
375.035	327.69
375.497	342.69
375.96	343.69
376.423	344.69
376.886	344.69
377.349	365.69
377.811	353.69
378.274	345.69
378.737	368.69
379.199	358.69
379.662	365.69
380.125	366.69
380.587	355.69
381.05	374.69
381.512	384.69
381.975	398.69
382.437	399.69
382.9	368.69
383.362	366.69
383.825	394.69
384.287	387.69
384.75	362.69
385.212	411.69
385.674	393.69
386.136	374.69
386.599	406.69
387.061	376.69
387.523	391.69
387.985	397.69
388.447	399.69
388.91	400.69
389.372	399.69
389.834	399.69
390.296	389.69
390.758	393.69
391.22	399.69
391.682	385.69
392.144	410.69
392.606	428.69
393.068	414.69
393.529	427.69
393.991	437.69
394.453	396.69
394.915	423.69
395.377	398.69
395.838	385.69
396.3	404.69
396.762	432.69
397.224	393.69
397.685	428.69
398.147	421.69
398.608	426.69
399.07	410.69
399.531	395.69
399.993	420.69
400.454	431.69
400.916	439.69
401.377	443.69
401.839	451.69
402.3	471.69
402.762	480.69
403.223	499.69
403.684	503.69
404.145	468.69
404.607	452.69
405.068	450.69
405.529	488.69
405.99	478.69
406.451	447.69
406.913	459.69
407.374	464.69
407.835	476.69
408.296	455.69
408.757	479.69
409.218	517.69
409.679	458.69
410.14	520.69
410.601	509.69
411.062	538.69
411.522	524.69
411.983	530.69
412.444	543.69
412.905	564.69
413.366	586.69
413.826	608.69
414.287	659.69
414.748	812.69
415.208	831.69
415.669	703.69
416.13	626.69
416.59	624.69
417.051	624.69
417.511	677.69
417.972	745.69
418.432	778.69
418.893	870.69
419.353	819.69
419.814	657.69
420.274	538.69
420.734	569.69
421.195	579.69
421.655	605.69
422.115	597.69
422.576	589.69
423.036	609.69
423.496	592.69
423.956	652.69
424.416	667.69
424.876	731.69
425.336	733.69
425.797	753.69
426.257	705.69
426.717	667.69
427.177	609.69
427.637	593.69
428.097	625.69
428.556	614.69
429.016	661.69
429.476	635.69
429.936	617.69
430.396	622.69
430.856	631.69
431.315	637.69
431.775	677.69
432.235	737.69
432.694	753.69
433.154	695.69
433.614	681.69
434.073	666.69
434.533	624.69
434.993	591.69
435.452	627.69
435.912	627.69
436.371	626.69
436.83	635.69
437.29	634.69
437.749	637.69
438.209	627.69
438.668	628.69
439.127	644.69
439.587	648.69
440.046	653.69
440.505	656.69
440.964	645.69
441.424	695.69
441.883	710.69
442.342	689.69
442.801	640.69
443.26	659.69
443.719	660.69
444.178	672.69
444.637	693.69
445.096	672.69
445.555	663.69
446.014	689.69
446.473	682.69
446.932	639.69
447.391	672.69
447.849	710.69
448.308	686.69
448.767	646.69
449.226	688.69
449.685	703.69
450.143	729.69
450.602	725.69
451.061	708.69
451.519	711.69
451.978	733.69
452.436	701.69
452.895	695.69
453.353	658.69
453.812	699.69
454.27	686.69
454.729	699.69
455.187	681.69
455.646	695.69
456.104	710.69
456.562	688.69
457.021	706.69
457.479	702.69
457.937	730.69
458.395	721.69
458.854	693.69
459.312	705.69
459.77	751.69
460.228	744.69
460.686	757.69
461.144	727.69
461.602	758.69
462.06	707.69
462.518	729.69
462.976	737.69
463.434	774.69
463.892	757.69
464.35	805.69
464.808	798.69
465.266	824.69
465.724	786.69
466.181	805.69
466.639	788.69
467.097	851.69
467.555	849.69
468.012	833.69
468.47	843.69
468.928	905.69
469.385	913.69
469.843	883.69
470.3	886.69
470.758	945.69
471.215	937.69
471.673	967.69
472.13	959.69
472.588	966.69
473.045	982.69
473.503	1016.69
473.96	1033.69
474.417	1049.69
474.875	1087.69
475.332	1097.69
475.789	1099.69
476.246	1112.69
476.704	1142.69
477.161	1105.69
477.618	1141.69
478.075	1205.69
478.532	1204.69
478.989	1209.69
479.446	1310.69
479.903	1281.69
480.36	1320.69
480.817	1292.69
481.274	1311.69
481.731	1360.69
482.188	1373.69
482.645	1405.69
483.102	1394.69
483.558	1441.69
484.015	1495.69
484.472	1469.69
484.929	1481.69
485.385	1487.69
485.842	1515.69
486.299	1504.69
486.755	1511.69
487.212	1481.69
487.668	1393.69
488.125	1425.69
488.582	1389.69
489.038	1411.69
489.494	1432.69
489.951	1447.69
490.407	1477.69
490.864	1473.69
491.32	1427.69
491.776	1422.69
492.233	1493.69
492.689	1455.69
493.145	1493.69
493.602	1443.69
494.058	1505.69
494.514	1468.69
494.97	1486.69
495.426	1493.69
495.882	1542.69
496.338	1515.69
496.794	1600.69
497.251	1571.69
497.707	1638.69
498.163	1575.69
498.618	1570.69
499.074	1559.69
499.53	1592.69
499.986	1621.69
500.442	1598.69
500.898	1593.69
501.354	1619.69
501.809	1615.69
502.265	1636.69
502.721	1617.69
503.177	1584.69
503.632	1639.69
504.088	1639.69
504.543	1670.69
504.999	1662.69
505.455	1672.69
505.91	1653.69
506.366	1689.69
506.821	1675.69
507.277	1645.69
507.732	1690.69
508.187	1677.69
508.643	1710.69
509.098	1683.69
509.553	1684.69
510.009	1731.69
510.464	1763.69
510.919	1762.69
511.375	1809.69
511.83	1795.69
512.285	1865.69
512.74	1891.69
513.195	1885.69
513.65	1897.69
514.105	1945.69
514.56	1953.69
515.015	1994.69
515.47	2031.69
515.925	2005.69
516.38	1996.69
516.835	2047.69
517.29	2041.69
517.745	1999.69
518.2	2009.69
518.655	1902.69
519.109	1897.69
519.564	1892.69
520.019	1879.69
520.474	1877.69
520.928	1842.69
521.383	1810.69
521.838	1836.69
522.292	1825.69
522.747	1824.69
523.201	1796.69
523.656	1789.69
524.11	1781.69
524.565	1771.69
525.019	1761.69
525.474	1738.69
525.928	1763.69
526.382	1749.69
526.837	1774.69
527.291	1763.69
527.745	1757.69
528.2	1783.69
528.654	1761.69
529.108	1740.69
529.562	1753.69
530.016	1759.69
530.47	1762.69
530.925	1762.69
531.379	1740.69
531.833	1777.69
532.287	1762.69
532.741	1761.69
533.195	1718.69
533.649	1757.69
534.103	1735.69
534.556	1745.69
535.01	1762.69
535.464	1738.69
535.918	1744.69
536.372	1756.69
536.826	1739.69
537.279	1762.69
537.733	1748.69
538.187	1757.69
538.64	1707.69
539.094	1781.69
539.548	1772.69
540.001	1819.69
540.455	1774.69
540.908	1807.69
541.362	1842.69
541.815	1843.69
542.269	1873.69
542.722	1894.69
543.175	1901.69
543.629	1882.69
544.082	1902.69
544.536	1983.69
544.989	1978.69
545.442	1963.69
545.895	1926.69
546.349	1971.69
546.802	1961.69
547.255	2016.69
547.708	2037.69
548.161	1983.69
548.614	2059.69
549.067	2064.69
549.52	2016.69
549.973	1958.69
550.426	1969.69
550.879	1965.69
551.332	1964.69
551.785	1989.69
552.238	2009.69
552.691	2037.69
553.144	2025.69
553.596	2050.69
554.049	2079.69
554.502	2166.69
554.955	2192.69
555.407	2211.69
555.86	2211.69
556.313	2194.69
556.765	2181.69
557.218	2141.69
557.67	2119.69
558.123	2137.69
558.576	2039.69
559.028	2066.69
559.48	2119.69
559.933	2082.69
560.385	2049.69
560.838	1979.69
561.29	1899.69
561.742	1875.69
562.195	1836.69
562.647	1801.69
563.099	1833.69
563.551	1812.69
564.004	1891.69
564.456	1853.69
564.908	1765.69
565.36	1747.69
565.812	1723.69
566.264	1690.69
566.716	1671.69
567.168	1642.69
567.62	1643.69
568.072	1633.69
568.524	1628.69
568.976	1595.69
569.428	1575.69
569.88	1587.69
570.332	1637.69
570.784	1591.69
571.235	1647.69
571.687	1640.69
572.139	1648.69
572.59	1673.69
573.042	1666.69
573.494	1648.69
573.945	1640.69
574.397	1627.69
574.849	1577.69
575.3	1577.69
575.752	1610.69
576.203	1583.69
576.655	1595.69
577.106	1577.69
577.557	1549.69
578.009	1555.69
578.46	1556.69
578.912	1552.69
579.363	1529.69
579.814	1559.69
580.265	1544.69
580.717	1514.69
581.168	1529.69
581.619	1519.69
582.07	1588.69
582.521	1579.69
582.972	1570.69
583.423	1549.69
583.875	1545.69
584.326	1547.69
584.777	1567.69
585.227	1610.69
585.678	1607.69
586.129	1674.69
586.58	1676.69
587.031	1689.69
587.482	1741.69
587.933	1805.69
588.384	1785.69
588.834	1785.69
589.285	1733.69
589.736	1715.69
590.186	1737.69
590.637	1728.69
591.088	1656.69
591.538	1642.69
591.989	1658.69
592.439	1606.69
592.89	1629.69
593.34	1616.69
593.791	1584.69
594.241	1566.69
594.692	1540.69
595.142	1567.69
595.593	1538.69
596.043	1532.69
596.493	1583.69
596.943	1595.69
597.394	1645.69
597.844	1634.69
598.294	1693.69
598.744	1741.69
599.195	1820.69
599.645	1948.69
600.095	2039.69
600.545	2163.69
600.995	2193.69
601.445	2318.69
601.895	2419.69
602.345	2506.69
602.795	2529.69
603.245	2444.69
603.695	2251.69
604.145	2127.69
604.594	2025.69
605.044	1896.69
605.494	1796.69
605.944	1734.69
606.393	1671.69
606.843	1614.69
607.293	1605.69
607.743	1580.69
608.192	1654.69
608.642	1638.69
609.091	1600.69
609.541	1602.69
609.99	1625.69
610.44	1584.69
610.889	1555.69
611.339	1547.69
611.788	1548.69
612.238	1543.69
612.687	1545.69
613.136	1554.69
613.586	1539.69
614.035	1539.69
614.484	1576.69
614.933	1617.69
615.383	1527.69
615.832	1486.69
616.281	1479.69
616.73	1461.69
617.179	1429.69
617.628	1427.69
618.077	1363.69
618.526	1330.69
618.975	1305.69
619.424	1332.69
619.873	1343.69
620.322	1326.69
620.771	1333.69
621.22	1288.69
621.669	1282.69
622.118	1249.69
622.567	1242.69
623.015	1225.69
623.464	1215.69
623.913	1199.69
624.361	1198.69
624.81	1189.69
625.259	1190.69
625.707	1191.69
626.156	1189.69
626.604	1223.69
627.053	1218.69
627.501	1221.69
627.95	1230.69
628.398	1240.69
628.847	1240.69
629.295	1239.69
629.744	1199.69
630.192	1247.69
630.64	1174.69
631.089	1143.69
631.537	1154.69
631.985	1107.69
632.433	1104.69
632.881	1081.69
633.33	1132.69
633.778	1107.69
634.226	1098.69
634.674	1119.69
635.122	1133.69
635.57	1119.69
636.018	1133.69
636.466	1158.69
636.914	1175.69
637.362	1132.69
637.81	1175.69
638.258	1158.69
638.705	1219.69
639.153	1249.69
639.601	1297.69
640.049	1288.69
640.497	1311.69
640.944	1330.69
641.392	1287.69
641.84	1207.69
642.287	1171.69
642.735	1116.69
643.182	1100.69
643.63	1057.69
644.078	1071.69
644.525	1061.69
644.973	1071.69
645.42	1065.69
645.867	1048.69
646.315	1078.69
646.762	1088.69
647.21	1091.69
647.657	1104.69
648.104	1082.69
648.551	1048.69
648.999	1039.69
649.446	1005.69
649.893	1016.69
650.34	1012.69
650.787	1041.69
651.234	1117.69
651.682	1140.69
652.129	1222.69
652.576	1393.69
653.023	1649.69
653.47	1815.69
653.917	1902.69
654.363	1975.69
654.81	2025.69
655.257	2090.69
655.704	1765.69
656.151	1410.69
656.598	1153.69
657.044	1085.69
657.491	1073.69
657.938	997.69
658.385	975.69
658.831	1007.69
659.278	980.69
659.724	980.69
660.171	981.69
660.618	947.69
661.064	925.69
661.511	935.69
661.957	948.69
662.404	945.69
662.85	956.69
663.296	947.69
663.743	948.69
664.189	977.69
664.635	965.69
665.082	963.69
665.528	979.69
665.974	951.69
666.42	901.69
666.867	915.69
667.313	895.69
667.759	914.69
668.205	871.69
668.651	849.69
669.097	864.69
669.543	881.69
669.989	901.69
670.435	901.69
670.881	923.69
671.327	938.69
671.773	1042.69
672.219	1064.69
672.665	1163.69
673.11	1242.69
673.556	1270.69
674.002	1297.69
674.448	1361.69
674.893	1173.69
675.339	1014.69
675.785	939.69
676.23	865.69
676.676	823.69
677.122	841.69
677.567	796.69
678.013	799.69
678.458	772.69
678.904	740.69
679.349	743.69
679.794	742.69
680.24	744.69
680.685	780.69
681.131	783.69
681.576	774.69
682.021	749.69
682.466	764.69
682.912	773.69
683.357	809.69
683.802	858.69
684.247	918.69
684.692	1011.69
685.137	1045.69
685.583	1055.69
686.028	1138.69
686.473	1121.69
686.918	977.69
687.363	859.69
687.807	850.69
688.252	779.69
688.697	763.69
689.142	757.69
689.587	709.69
690.032	709.69
690.477	790.69
690.921	799.69
691.366	850.69
691.811	887.69
692.255	915.69
692.7	1061.69
693.145	1411.69
693.589	2144.69
694.034	2916.69
694.478	3288.69
694.923	2966.69
695.367	3805.69
695.812	3359.69
696.256	1333.69
696.701	857.69
697.145	767.69
697.59	717.69
698.034	732.69
698.478	717.69
698.922	725.69
699.367	720.69
699.811	749.69
700.255	827.69
700.699	885.69
701.143	964.69
701.588	1041.69
702.032	1064.69
702.476	1131.69
702.92	1145.69
703.364	1322.69
703.808	1967.69
704.252	2754.69
704.696	3072.69
705.14	2885.69
705.584	3654.69
706.027	2901.69
706.471	1369.69
706.915	907.69
707.359	782.69
707.803	711.69
708.246	700.69
708.69	694.69
709.134	689.69
709.577	711.69
710.021	671.69
710.465	700.69
710.908	688.69
711.352	686.69
711.795	739.69
712.239	831.69
712.682	883.69
713.126	835.69
713.569	906.69
714.012	809.69
714.456	695.69
714.899	651.69
715.342	638.69
715.786	613.69
716.229	597.69
716.672	586.69
717.115	569.69
717.558	568.69
718.002	594.69
718.445	614.69
718.888	641.69
719.331	666.69
719.774	672.69
720.217	649.69
720.66	637.69
721.103	637.69
721.546	588.69
721.989	567.69
722.432	530.69
722.874	531.69
723.317	529.69
723.76	560.69
724.203	640.69
724.645	873.69
725.088	1077.69
725.531	1122.69
725.974	1086.69
726.416	1204.69
726.859	786.69
727.301	568.69
727.744	562.69
728.187	529.69
728.629	553.69
729.071	579.69
729.514	605.69
729.956	630.69
730.399	654.69
730.841	654.69
731.283	622.69
731.726	616.69
732.168	582.69
732.61	627.69
733.053	668.69
733.495	740.69
733.937	801.69
734.379	909.69
734.821	1129.69
735.263	1540.69
735.705	2710.69
736.148	4506.69
736.59	5171.69
737.032	4884.69
737.474	5273.69
737.916	2453.69
738.357	1158.69
738.799	829.69
739.241	671.69
739.683	684.69
740.125	700.69
740.567	683.69
741.008	723.69
741.45	751.69
741.892	821.69
742.334	812.69
742.775	807.69
743.217	798.69
743.658	701.69
744.1	670.69
744.542	726.69
744.983	802.69
745.425	798.69
745.866	853.69
746.307	773.69
746.749	741.69
747.19	877.69
747.632	1527.69
748.073	3013.69
748.514	4759.69
748.956	5811.69
749.397	7931.69
749.838	6303.69
750.279	5263.69
750.72	3745.69
751.162	1584.69
751.603	847.69
752.044	641.69
752.485	579.69
752.926	525.69
753.367	492.69
753.808	503.69
754.249	457.69
754.69	463.69
755.131	458.69
755.572	459.69
756.013	442.69
756.453	439.69
756.894	484.69
757.335	473.69
757.776	471.69
758.216	500.69
758.657	493.69
759.098	547.69
759.538	609.69
759.979	758.69
760.42	1226.69
760.86	2919.69
761.301	6988.69
761.741	10465.69
762.182	10725.69
762.622	10013.69
763.063	4349.69
763.503	1674.69
763.943	823.69
764.384	647.69
764.824	543.69
765.264	526.69
765.705	475.69
766.145	464.69
766.585	457.69
767.025	445.69
767.465	429.69
767.906	450.69
768.346	447.69
768.786	502.69
769.226	591.69
769.666	1041.69
770.106	2335.69
770.546	4263.69
770.986	4517.69
771.426	4453.69
771.866	2350.69
772.306	1025.69
772.745	553.69
773.185	453.69
773.625	425.69
774.065	419.69
774.505	491.69
774.944	750.69
775.384	1149.69
775.824	1354.69
776.263	1302.69
776.703	926.69
777.142	557.69
777.582	395.69
778.021	350.69
778.461	357.69
778.9	340.69
779.34	324.69
779.779	321.69
780.219	319.69
780.658	323.69
781.097	322.69
781.537	310.69
781.976	289.69
782.415	293.69
782.855	302.69
783.294	289.69
783.733	297.69
784.172	318.69
784.611	275.69
785.05	297.69
785.489	310.69
785.928	312.69
786.367	314.69
786.806	323.69
787.245	347.69
787.684	367.69
788.123	382.69
788.562	357.69
789.001	317.69
789.44	345.69
789.879	326.69
790.317	314.69
790.756	363.69
791.195	371.69
791.634	440.69
792.072	645.69
792.511	1416.69
792.95	3135.69
793.388	3920.69
793.827	3476.69
794.265	1913.69
794.704	925.69
795.142	529.69
795.581	398.69
796.019	364.69
796.458	369.69
796.896	366.69
797.334	373.69
797.773	451.69
798.211	689.69
798.649	1483.69
799.087	2500.69
799.526	3773.69
799.964	4330.69
800.402	3601.69
800.84	1973.69
801.278	974.69
801.716	573.69
802.154	431.69
802.592	391.69
803.03	405.69
803.468	377.69
803.906	365.69
804.344	396.69
804.782	390.69
805.22	349.69
805.658	369.69
806.096	388.69
806.533	421.69
806.971	487.69
807.409	662.69
807.847	1070.69
808.284	2509.69
808.722	5127.69
809.16	7199.69
809.597	9783.69
810.035	12694.69
810.472	10790.69
810.91	5779.69
811.347	2703.69
811.785	1207.69
812.222	718.69
812.66	551.69
813.097	449.69
813.535	391.69
813.972	351.69
814.409	336.69
814.846	325.69
815.284	305.69
815.721	313.69
816.158	309.69
816.595	394.69
817.032	440.69
817.47	487.69
817.907	393.69
818.344	349.69
818.781	327.69
819.218	351.69
819.655	459.69
820.092	581.69
820.529	618.69
820.966	550.69
821.403	403.69
821.839	366.69
822.276	343.69
822.713	399.69
823.15	396.69
823.587	377.69
824.023	513.69
824.46	1174.69
824.897	2203.69
825.333	2337.69
825.77	1359.69
826.206	775.69
826.643	412.69
827.08	304.69
827.516	281.69
827.953	261.69
828.389	247.69
828.825	239.69
829.262	250.69
829.698	237.69
830.135	215.69
830.571	221.69
831.007	210.69
831.443	212.69
831.88	209.69
832.316	231.69
832.752	231.69
833.188	235.69
833.624	220.69
834.06	210.69
834.497	214.69
834.933	232.69
835.369	240.69
835.805	222.69
836.241	242.69
836.677	260.69
837.112	284.69
837.548	349.69
837.984	421.69
838.42	731.69
838.856	1803.69
839.292	4001.69
839.727	4377.69
840.163	2777.69
840.599	3288.69
841.034	5004.69
841.47	3863.69
841.906	2035.69
842.341	1128.69
842.777	677.69
843.212	595.69
843.648	501.69
844.083	374.69
844.519	286.69
844.954	250.69
845.39	209.69
845.825	203.69
846.261	207.69
846.696	209.69
847.131	210.69
847.566	202.69
848.002	195.69
848.437	208.69
848.872	218.69
849.307	223.69
849.742	304.69
850.177	665.69
850.613	1484.69
851.048	1553.69
851.483	895.69
851.918	545.69
852.353	313.69
852.788	228.69
853.223	224.69
853.657	210.69
854.092	187.69
854.527	174.69
854.962	189.69
855.397	195.69
855.832	181.69
856.266	175.69
856.701	186.69
857.136	172.69
857.57	180.69
858.005	204.69
858.44	203.69
858.874	199.69
859.309	198.69
859.743	199.69
860.178	197.69
860.612	204.69
861.047	209.69
861.481	254.69
861.915	240.69
862.35	196.69
862.784	183.69
863.218	176.69
863.653	180.69
864.087	176.69
864.521	205.69
864.955	263.69
865.39	433.69
865.824	434.69
866.258	426.69
866.692	578.69
867.126	524.69
867.56	376.69
867.994	283.69
868.428	245.69
868.862	223.69
869.296	222.69
869.73	253.69
870.164	213.69
870.598	195.69
871.031	182.69
871.465	181.69
871.899	163.69
872.333	157.69
872.766	140.69
873.2	140.69
873.634	157.69
874.067	155.69
874.501	147.69
874.935	151.69
875.368	159.69
875.802	137.69
876.235	149.69
876.669	157.69
877.102	127.69
877.535	157.69
877.969	137.69
878.402	137.69
878.836	124.69
879.269	131.69
879.702	131.69
880.135	129.69
880.569	126.69
881.002	142.69
881.435	151.69
881.868	131.69
882.301	125.69
882.734	113.69
883.167	123.69
883.601	131.69
884.034	118.69
884.467	125.69
884.899	115.69
885.332	137.69
885.765	122.69
886.198	133.69
886.631	132.69
887.064	109.69
887.497	117.69
887.929	125.69
888.362	127.69
888.795	132.69
889.228	115.69
889.66	113.69
890.093	116.69
890.526	112.69
890.958	136.69
891.391	137.69
891.823	130.69
892.256	128.69
892.688	121.69
893.121	126.69
893.553	130.69
893.985	125.69
894.418	117.69
894.85	109.69
895.282	127.69
895.715	123.69
896.147	136.69
896.579	112.69
897.011	126.69
897.444	107.69
897.876	133.69
898.308	119.69
898.74	111.69
899.172	115.69
899.604	116.69
900.036	117.69
900.468	117.69
900.9	126.69
901.332	142.69
901.764	137.69
902.196	153.69
902.628	142.69
903.06	139.69
903.491	141.69
903.923	143.69
904.355	127.69
904.787	167.69
905.218	160.69
905.65	131.69
906.082	119.69
906.513	123.69
906.945	144.69
907.376	125.69
907.808	125.69
908.239	126.69
908.671	104.69
909.102	127.69
909.534	151.69
909.965	196.69
910.397	345.69
910.828	932.69
911.259	989.69
911.691	611.69
912.122	425.69
912.553	241.69
912.984	177.69
913.415	157.69
913.847	129.69
914.278	120.69
914.709	115.69
915.14	131.69
915.571	115.69
916.002	131.69
916.433	120.69
916.864	123.69
917.295	126.69
917.726	121.69
918.157	150.69
918.587	164.69
919.018	137.69
919.449	143.69
919.88	150.69
920.311	162.69
920.741	239.69
921.172	461.69
921.603	379.69
922.033	286.69
922.464	213.69
922.895	170.69
923.325	122.69
923.756	125.69
924.186	122.69
924.617	137.69
925.047	155.69
925.478	147.69
925.908	139.69
926.338	126.69
926.769	137.69
927.199	123.69
927.629	104.69
928.06	105.69
928.49	127.69
928.92	119.69
929.35	107.69
929.78	105.69
930.21	108.69
930.641	118.69
931.071	110.69
931.501	98.69
931.931	93.69
932.361	101.69
932.791	97.69
933.221	105.69
933.651	131.69
934.08	145.69
934.51	123.69
934.94	125.69
935.37	118.69
935.8	115.69
936.229	100.69
936.659	112.69
937.089	107.69
937.519	128.69
937.948	141.69
938.378	131.69
938.807	121.69
939.237	113.69
939.666	119.69
940.096	89.69
940.525	113.69
940.955	70.69
941.384	102.69
941.814	89.69
942.243	96.69
942.672	95.69
943.102	97.69
943.531	99.69
943.96	89.69
944.39	100.69
944.819	84.69
945.248	98.69
945.677	97.69
946.106	91.69
946.535	108.69
946.964	116.69
947.393	98.69
947.822	92.69
948.251	93.69
948.68	104.69
949.109	91.69
949.538	95.69
949.967	101.69
950.396	87.69
950.825	93.69
951.254	86.69
951.682	95.69
952.111	92.69
952.54	97.69
952.969	60.69
953.397	96.69
953.826	93.69
954.254	103.69
954.683	85.69
955.112	95.69
955.54	113.69
955.969	96.69
956.397	81.69
956.826	86.69
957.254	95.69
957.682	97.69
958.111	94.69
958.539	106.69
958.967	95.69
959.396	91.69
959.824	99.69
960.252	96.69
960.68	74.69
961.109	103.69
961.537	88.69
961.965	104.69
962.393	112.69
962.821	94.69
963.249	98.69
963.677	106.69
964.105	128.69
964.533	202.69
964.961	185.69
965.389	139.69
965.817	125.69
966.245	135.69
966.672	94.69
967.1	89.69
967.528	77.69
967.956	109.69
968.383	91.69
968.811	93.69
969.239	72.69
969.666	86.69
970.094	107.69
970.522	82.69
970.949	99.69
971.377	68.69
971.804	89.69
972.232	98.69
972.659	89.69
973.087	77.69
973.514	90.69
973.941	73.69
974.369	91.69
974.796	95.69
975.223	74.69
975.651	75.69
976.078	93.69
976.505	98.69
976.932	82.69
977.359	127.69
977.786	121.69
978.214	103.69
978.641	102.69
979.068	99.69
979.495	91.69
979.922	92.69
980.349	95.69
980.776	88.69
981.202	99.69
981.629	82.69
982.056	87.69
982.483	82.69
982.91	81.69
983.337	85.69
983.763	101.69
984.19	89.69
984.617	90.69
985.043	80.69
985.47	98.69
985.897	95.69
986.323	96.69
986.75	94.69
987.176	94.69
987.603	95.69
988.029	105.69
988.456	93.69
988.882	90.69
989.308	97.69
989.735	102.69
990.161	101.69
990.587	101.69
991.014	70.69
991.44	72.69
991.866	94.69
992.292	99.69
992.719	107.69
993.145	84.69
993.571	88.69
993.997	89.69
994.423	113.69
994.849	86.69
995.275	91.69
995.701	100.69
996.127	84.69
996.553	105.69
996.979	82.69
997.405	93.69
997.83	96.69
998.256	97.69
998.682	78.69
999.108	89.69
999.534	103.69
999.959	77.69
1000.385	79.69
1000.811	65.69
1001.236	103.69
1001.662	89.69
1002.087	78.69
1002.513	98.69
1002.938	93.69
1003.364	95.69
1003.789	84.69
1004.215	99.69
1004.64	105.69
1005.066	103.69
1005.491	86.69
1005.916	79.69
1006.342	89.69
1006.767	99.69
1007.192	92.69
1007.617	93.69
1008.042	95.69
1008.468	77.69
1008.893	79.69
1009.318	96.69
1009.743	103.69
1010.168	99.69
1010.593	91.69
1011.018	113.69
1011.443	102.69
1011.868	106.69
1012.293	77.69
1012.718	93.69
1013.143	95.69
1013.567	104.69
1013.992	81.69
1014.417	98.69
1014.842	94.69
1015.267	89.69
1015.691	85.69
1016.116	65.69
1016.541	80.69
1016.965	85.69
1017.39	93.69
1017.814	88.69
1018.239	99.69
1018.663	100.69
1019.088	82.69
1019.512	98.69
1019.937	91.69
1020.361	102.69
1020.785	92.69
1021.21	82.69
1021.634	75.69
1022.058	94.69
1022.483	92.69
1022.907	91.69
1023.331	86.69
1023.755	89.69
1024.179	76.69
1024.604	86.69
1025.028	82.69
1025.452	86.69
1025.876	88.69
1026.3	87.69
1026.724	79.69
1027.148	80.69
1027.572	79.69
1027.996	88.69
1028.42	93.69
1028.843	93.69
1029.267	87.69
1029.691	94.69
1030.115	79.69
1030.539	71.69
1030.962	102.69
1031.386	82.69
1031.81	94.69
1032.233	85.69
1032.657	71.69
1033.08	70.69
1033.504	91.69
1033.927	87.69
1034.351	95.69
1034.774	71.69
1035.198	79.69
1035.621	74.69
1036.045	79.69
1036.468	78.69
1036.891	91.69
1037.315	84.69
1037.738	88.69
1038.161	96.69
1038.584	93.69
1039.008	79.69
1039.431	79.69
1039.854	79.69
1040.277	81.69
1040.7	87.69
1041.123	97.69
1041.546	86.69
1041.969	78.69
1042.392	85.69
1042.815	80.69
1043.238	97.69
1043.661	98.69
1044.084	85.69
1044.507	83.69
1044.93	94.69
1045.352	83.69
1045.775	87.69
1046.198	89.69
1046.621	84.69
1047.043	96.69
1047.466	96.69
1047.889	82.69
1048.311	90.69
1048.734	88.69
1049.156	70.69
1049.579	83.69
1050.001	84.69
1050.424	67.69
1050.846	90.69
1051.269	75.69
1051.691	95.69
1052.113	94.69
1052.536	84.69
1052.958	83.69
1053.38	76.69
1053.802	100.69
1054.225	91.69
1054.647	90.69
1055.069	86.69
1055.491	72.69
1055.913	81.69
1056.335	91.69
1056.757	81.69
1057.179	84.69
1057.601	92.69
1058.023	89.69
1058.445	84.69
1058.867	70.69
1059.289	71.69
1059.711	91.69
1060.133	86.69
1060.555	92.69
1060.976	88.69
1061.398	81.69
1061.82	84.69
1062.241	93.69
1062.663	93.69
1063.085	94.69
1063.506	90.69
1063.928	97.69
1064.35	91.69
1064.771	92.69
1065.193	93.69
1065.614	81.69
1066.035	80.69
1066.457	95.69
1066.878	86.69
1067.3	105.69
1067.721	95.69
1068.142	95.69
1068.564	85.69
1068.985	77.69
1069.406	81.69
1069.827	85.69
1070.248	106.69
1070.67	77.69
1071.091	85.69
1071.512	92.69
1071.933	82.69
1072.354	98.69
1072.775	78.69
1073.196	64.69
1073.617	91.69
1074.038	89.69
1074.459	87.69
1074.88	82.69
1075.3	82.69
1075.721	73.69
1076.142	79.69
1076.563	75.69
1076.983	96.69
1077.404	96.69
1077.825	94.69
1078.246	75.69
1078.666	82.69
1079.087	77.69
1079.507	80.69
1079.928	93.69
1080.348	77.69
1080.769	75.69
1081.189	88.69
1081.61	75.69
1082.03	89.69
1082.451	70.69
1082.871	73.69
1083.291	91.69
1083.711	82.69
1084.132	84.69
1084.552	91.69
1084.972	82.69
1085.392	103.69
1085.813	85.69
1086.233	79.69
1086.653	77.69
1087.073	87.69
1087.493	91.69
1087.913	88.69
1088.333	75.69
1088.753	78.69
1089.173	70.69
1089.593	88.69
1090.013	87.69
1090.433	94.69
1090.852	84.69
1091.272	81.69
1091.692	71.69
1092.112	81.69
1092.531	83.69
1092.951	92.69
1093.371	88.69
1093.79	75.69
1094.21	84.69
1094.63	92.69
1095.049	92.69
1095.469	80.69
1095.888	96.69
1096.308	76.69
1096.727	78.69
1097.146	84.69
1097.566	86.69
1097.985	97.69
1098.405	83.69
1098.824	83.69
1099.243	85.69
1099.662	101.69
1100.082	106.69
1100.501	89.69
1100.92	91.69
1101.339	82.69
1101.758	86.69
