Data from 20170802-ORNL-NYSim-Air_HRD10391_10-36-02-564.txt Node
Date: Wed Aug 02 10:36:02 EDT 2017
User: Ender
Spectrometer: HR+D1039
Trigger mode: 0
Integration Time (sec): 3.750000E-3
Scans to average: 1
Electric dark correction enabled: true
Nonlinearity correction enabled: false
Boxcar width: 0
XAxis mode: Wavelengths
Number of Pixels in Spectrum: 2048
>>>>>Begin Spectral Data<<<<<
187.836	3.75
188.309	3.75
188.782	3.75
189.255	-16.25
189.728	-11.25
190.201	0.75
190.674	-4.25
191.147	-6.25
191.619	-12.25
192.092	-11.25
192.565	4.75
193.038	9.75
193.511	-3.25
193.984	3.75
194.456	11.75
194.929	6.75
195.402	7.75
195.874	15.75
196.347	13.75
196.82	36.75
197.292	45.75
197.765	23.75
198.237	38.75
198.71	31.75
199.182	42.75
199.655	58.75
200.127	42.75
200.6	52.75
201.072	53.75
201.544	50.75
202.017	67.75
202.489	70.75
202.961	68.75
203.433	86.75
203.906	82.75
204.378	72.75
204.85	82.75
205.322	80.75
205.794	70.75
206.266	83.75
206.739	76.75
207.211	80.75
207.683	75.75
208.155	92.75
208.627	91.75
209.099	74.75
209.57	100.75
210.042	85.75
210.514	92.75
210.986	86.75
211.458	99.75
211.93	72.75
212.402	94.75
212.873	81.75
213.345	99.75
213.817	69.75
214.288	91.75
214.76	84.75
215.232	74.75
215.703	92.75
216.175	63.75
216.646	67.75
217.118	83.75
217.589	80.75
218.061	81.75
218.532	81.75
219.004	74.75
219.475	84.75
219.946	83.75
220.418	77.75
220.889	75.75
221.36	78.75
221.832	86.75
222.303	79.75
222.774	74.75
223.245	79.75
223.717	79.75
224.188	68.75
224.659	84.75
225.13	70.75
225.601	58.75
226.072	88.75
226.543	96.75
227.014	71.75
227.485	74.75
227.956	95.75
228.427	88.75
228.898	79.75
229.369	72.75
229.839	82.75
230.31	69.75
230.781	82.75
231.252	92.75
231.722	85.75
232.193	89.75
232.664	85.75
233.135	82.75
233.605	84.75
234.076	64.75
234.546	95.75
235.017	70.75
235.487	76.75
235.958	88.75
236.428	89.75
236.899	73.75
237.369	82.75
237.84	75.75
238.31	71.75
238.78	87.75
239.251	104.75
239.721	89.75
240.191	85.75
240.662	99.75
241.132	77.75
241.602	101.75
242.072	86.75
242.542	74.75
243.013	101.75
243.483	104.75
243.953	95.75
244.423	87.75
244.893	88.75
245.363	105.75
245.833	80.75
246.303	80.75
246.773	77.75
247.243	90.75
247.712	102.75
248.182	92.75
248.652	89.75
249.122	98.75
249.592	94.75
250.061	82.75
250.531	102.75
251.001	98.75
251.471	90.75
251.94	96.75
252.41	90.75
252.879	86.75
253.349	92.75
253.818	104.75
254.288	108.75
254.757	100.75
255.227	103.75
255.696	100.75
256.166	82.75
256.635	96.75
257.105	94.75
257.574	92.75
258.043	103.75
258.513	100.75
258.982	102.75
259.451	91.75
259.92	99.75
260.389	110.75
260.859	100.75
261.328	85.75
261.797	98.75
262.266	104.75
262.735	100.75
263.204	91.75
263.673	111.75
264.142	99.75
264.611	115.75
265.08	87.75
265.549	104.75
266.018	101.75
266.487	93.75
266.955	98.75
267.424	94.75
267.893	82.75
268.362	101.75
268.83	110.75
269.299	103.75
269.768	114.75
270.236	117.75
270.705	106.75
271.174	102.75
271.642	111.75
272.111	101.75
272.579	116.75
273.048	96.75
273.516	102.75
273.985	109.75
274.453	93.75
274.922	113.75
275.39	99.75
275.858	99.75
276.327	111.75
276.795	121.75
277.263	116.75
277.731	125.75
278.2	110.75
278.668	117.75
279.136	122.75
279.604	109.75
280.072	114.75
280.54	112.75
281.008	122.75
281.477	100.75
281.945	119.75
282.413	126.75
282.881	131.75
283.348	104.75
283.816	128.75
284.284	132.75
284.752	121.75
285.22	106.75
285.688	142.75
286.156	113.75
286.623	129.75
287.091	132.75
287.559	126.75
288.026	125.75
288.494	128.75
288.962	126.75
289.429	131.75
289.897	121.75
290.364	130.75
290.832	126.75
291.3	141.75
291.767	114.75
292.234	126.75
292.702	126.75
293.169	110.75
293.637	138.75
294.104	128.75
294.571	150.75
295.039	118.75
295.506	127.75
295.973	131.75
296.44	142.75
296.908	139.75
297.375	122.75
297.842	123.75
298.309	135.75
298.776	125.75
299.243	145.75
299.71	154.75
300.177	135.75
300.644	127.75
301.111	152.75
301.578	122.75
302.045	131.75
302.512	148.75
302.979	150.75
303.446	144.75
303.913	156.75
304.379	150.75
304.846	148.75
305.313	152.75
305.78	150.75
306.246	140.75
306.713	142.75
307.18	150.75
307.646	153.75
308.113	161.75
308.579	157.75
309.046	165.75
309.512	159.75
309.979	167.75
310.445	148.75
310.912	177.75
311.378	180.75
311.845	168.75
312.311	142.75
312.777	150.75
313.244	156.75
313.71	158.75
314.176	168.75
314.642	171.75
315.109	182.75
315.575	165.75
316.041	173.75
316.507	175.75
316.973	171.75
317.439	171.75
317.905	157.75
318.371	192.75
318.837	170.75
319.303	173.75
319.769	154.75
320.235	180.75
320.701	167.75
321.167	173.75
321.633	185.75
322.099	186.75
322.564	176.75
323.03	166.75
323.496	188.75
323.962	190.75
324.427	170.75
324.893	205.75
325.359	184.75
325.824	163.75
326.29	188.75
326.755	202.75
327.221	182.75
327.686	183.75
328.152	201.75
328.617	200.75
329.083	207.75
329.548	190.75
330.014	204.75
330.479	197.75
330.944	192.75
331.41	188.75
331.875	186.75
332.34	211.75
332.805	208.75
333.271	201.75
333.736	210.75
334.201	208.75
334.666	199.75
335.131	198.75
335.596	190.75
336.061	198.75
336.526	220.75
336.991	210.75
337.456	200.75
337.921	206.75
338.386	182.75
338.851	207.75
339.316	206.75
339.781	209.75
340.246	205.75
340.711	233.75
341.175	220.75
341.64	224.75
342.105	220.75
342.569	233.75
343.034	226.75
343.499	222.75
343.963	223.75
344.428	231.75
344.893	231.75
345.357	223.75
345.822	234.75
346.286	249.75
346.751	230.75
347.215	232.75
347.679	251.75
348.144	263.75
348.608	241.75
349.073	247.75
349.537	270.75
350.001	268.75
350.465	251.75
350.93	260.75
351.394	266.75
351.858	246.75
352.322	250.75
352.786	255.75
353.25	273.75
353.715	282.75
354.179	274.75
354.643	298.75
355.107	296.75
355.571	283.75
356.035	266.75
356.498	296.75
356.962	274.75
357.426	276.75
357.89	285.75
358.354	274.75
358.818	280.75
359.281	290.75
359.745	288.75
360.209	295.75
360.673	304.75
361.136	289.75
361.6	264.75
362.064	292.75
362.527	285.75
362.991	289.75
363.454	302.75
363.918	279.75
364.381	301.75
364.845	280.75
365.308	295.75
365.772	288.75
366.235	290.75
366.698	270.75
367.162	301.75
367.625	316.75
368.088	295.75
368.552	299.75
369.015	281.75
369.478	295.75
369.941	305.75
370.404	324.75
370.867	308.75
371.331	307.75
371.794	319.75
372.257	334.75
372.72	319.75
373.183	323.75
373.646	338.75
374.109	313.75
374.572	298.75
375.035	320.75
375.497	340.75
375.96	325.75
376.423	346.75
376.886	323.75
377.349	328.75
377.811	328.75
378.274	342.75
378.737	334.75
379.199	370.75
379.662	343.75
380.125	367.75
380.587	351.75
381.05	370.75
381.512	360.75
381.975	361.75
382.437	374.75
382.9	394.75
383.362	378.75
383.825	403.75
384.287	354.75
384.75	369.75
385.212	376.75
385.674	393.75
386.136	375.75
386.599	376.75
387.061	388.75
387.523	392.75
387.985	371.75
388.447	378.75
388.91	380.75
389.372	412.75
389.834	382.75
390.296	398.75
390.758	405.75
391.22	404.75
391.682	399.75
392.144	389.75
392.606	403.75
393.068	404.75
393.529	444.75
393.991	446.75
394.453	424.75
394.915	416.75
395.377	426.75
395.838	399.75
396.3	417.75
396.762	420.75
397.224	402.75
397.685	402.75
398.147	420.75
398.608	429.75
399.07	448.75
399.531	431.75
399.993	410.75
400.454	442.75
400.916	451.75
401.377	461.75
401.839	435.75
402.3	456.75
402.762	486.75
403.223	521.75
403.684	477.75
404.145	473.75
404.607	469.75
405.068	473.75
405.529	482.75
405.99	463.75
406.451	482.75
406.913	464.75
407.374	484.75
407.835	472.75
408.296	491.75
408.757	485.75
409.218	509.75
409.679	486.75
410.14	514.75
410.601	525.75
411.062	494.75
411.522	526.75
411.983	555.75
412.444	532.75
412.905	546.75
413.366	583.75
413.826	602.75
414.287	680.75
414.748	831.75
415.208	828.75
415.669	707.75
416.13	658.75
416.59	622.75
417.051	631.75
417.511	674.75
417.972	722.75
418.432	758.75
418.893	865.75
419.353	842.75
419.814	642.75
420.274	562.75
420.734	549.75
421.195	583.75
421.655	563.75
422.115	598.75
422.576	582.75
423.036	629.75
423.496	614.75
423.956	644.75
424.416	663.75
424.876	787.75
425.336	741.75
425.797	717.75
426.257	716.75
426.717	649.75
427.177	611.75
427.637	613.75
428.097	599.75
428.556	652.75
429.016	662.75
429.476	639.75
429.936	626.75
430.396	600.75
430.856	640.75
431.315	614.75
431.775	674.75
432.235	734.75
432.694	728.75
433.154	671.75
433.614	701.75
434.073	654.75
434.533	629.75
434.993	601.75
435.452	593.75
435.912	610.75
436.371	616.75
436.83	632.75
437.29	620.75
437.749	606.75
438.209	631.75
438.668	633.75
439.127	642.75
439.587	625.75
440.046	631.75
440.505	650.75
440.964	650.75
441.424	660.75
441.883	721.75
442.342	674.75
442.801	652.75
443.26	644.75
443.719	634.75
444.178	675.75
444.637	642.75
445.096	699.75
445.555	673.75
446.014	655.75
446.473	666.75
446.932	658.75
447.391	693.75
447.849	691.75
448.308	694.75
448.767	679.75
449.226	692.75
449.685	702.75
450.143	729.75
450.602	718.75
451.061	657.75
451.519	684.75
451.978	683.75
452.436	695.75
452.895	679.75
453.353	683.75
453.812	701.75
454.27	697.75
454.729	688.75
455.187	696.75
455.646	668.75
456.104	691.75
456.562	702.75
457.021	680.75
457.479	668.75
457.937	690.75
458.395	742.75
458.854	763.75
459.312	729.75
459.77	702.75
460.228	728.75
460.686	748.75
461.144	737.75
461.602	720.75
462.06	760.75
462.518	758.75
462.976	742.75
463.434	748.75
463.892	760.75
464.35	795.75
464.808	776.75
465.266	791.75
465.724	779.75
466.181	804.75
466.639	787.75
467.097	810.75
467.555	851.75
468.012	860.75
468.47	843.75
468.928	861.75
469.385	890.75
469.843	902.75
470.3	887.75
470.758	914.75
471.215	954.75
471.673	938.75
472.13	945.75
472.588	963.75
473.045	948.75
473.503	978.75
473.96	1016.75
474.417	1058.75
474.875	1042.75
475.332	1054.75
475.789	1074.75
476.246	1107.75
476.704	1104.75
477.161	1097.75
477.618	1140.75
478.075	1136.75
478.532	1190.75
478.989	1208.75
479.446	1269.75
479.903	1262.75
480.36	1252.75
480.817	1256.75
481.274	1288.75
481.731	1303.75
482.188	1333.75
482.645	1370.75
483.102	1392.75
483.558	1468.75
484.015	1440.75
484.472	1430.75
484.929	1483.75
485.385	1512.75
485.842	1458.75
486.299	1517.75
486.755	1480.75
487.212	1430.75
487.668	1404.75
488.125	1418.75
488.582	1421.75
489.038	1399.75
489.494	1425.75
489.951	1426.75
490.407	1445.75
490.864	1452.75
491.32	1430.75
491.776	1437.75
492.233	1472.75
492.689	1468.75
493.145	1464.75
493.602	1488.75
494.058	1466.75
494.514	1468.75
494.97	1493.75
495.426	1527.75
495.882	1503.75
496.338	1528.75
496.794	1532.75
497.251	1490.75
497.707	1516.75
498.163	1590.75
498.618	1572.75
499.074	1524.75
499.53	1585.75
499.986	1571.75
500.442	1578.75
500.898	1519.75
501.354	1570.75
501.809	1624.75
502.265	1582.75
502.721	1596.75
503.177	1630.75
503.632	1645.75
504.088	1610.75
504.543	1643.75
504.999	1659.75
505.455	1656.75
505.91	1618.75
506.366	1645.75
506.821	1639.75
507.277	1665.75
507.732	1677.75
508.187	1662.75
508.643	1665.75
509.098	1690.75
509.553	1684.75
510.009	1672.75
510.464	1742.75
510.919	1729.75
511.375	1787.75
511.83	1811.75
512.285	1856.75
512.74	1860.75
513.195	1836.75
513.65	1903.75
514.105	1960.75
514.56	1937.75
515.015	1986.75
515.47	2052.75
515.925	1954.75
516.38	1976.75
516.835	1971.75
517.29	1967.75
517.745	1988.75
518.2	1950.75
518.655	1918.75
519.109	1905.75
519.564	1841.75
520.019	1847.75
520.474	1834.75
520.928	1847.75
521.383	1818.75
521.838	1812.75
522.292	1804.75
522.747	1774.75
523.201	1768.75
523.656	1778.75
524.11	1786.75
524.565	1770.75
525.019	1726.75
525.474	1724.75
525.928	1717.75
526.382	1743.75
526.837	1722.75
527.291	1707.75
527.745	1740.75
528.2	1727.75
528.654	1700.75
529.108	1750.75
529.562	1712.75
530.016	1683.75
530.47	1715.75
530.925	1676.75
531.379	1713.75
531.833	1775.75
532.287	1722.75
532.741	1748.75
533.195	1762.75
533.649	1713.75
534.103	1715.75
534.556	1723.75
535.01	1718.75
535.464	1712.75
535.918	1687.75
536.372	1764.75
536.826	1719.75
537.279	1684.75
537.733	1729.75
538.187	1682.75
538.64	1734.75
539.094	1772.75
539.548	1792.75
540.001	1782.75
540.455	1785.75
540.908	1814.75
541.362	1837.75
541.815	1819.75
542.269	1872.75
542.722	1826.75
543.175	1864.75
543.629	1895.75
544.082	1839.75
544.536	1901.75
544.989	1911.75
545.442	1962.75
545.895	1968.75
546.349	1934.75
546.802	1966.75
547.255	1934.75
547.708	1934.75
548.161	1983.75
548.614	1966.75
549.067	2038.75
549.52	1998.75
549.973	1928.75
550.426	1941.75
550.879	1942.75
551.332	1930.75
551.785	1926.75
552.238	1950.75
552.691	1941.75
553.144	2014.75
553.596	2001.75
554.049	2017.75
554.502	2106.75
554.955	2121.75
555.407	2146.75
555.86	2175.75
556.313	2128.75
556.765	2094.75
557.218	2056.75
557.67	2054.75
558.123	2058.75
558.576	2024.75
559.028	2046.75
559.48	2070.75
559.933	2059.75
560.385	1992.75
560.838	1901.75
561.29	1876.75
561.742	1861.75
562.195	1854.75
562.647	1791.75
563.099	1804.75
563.551	1771.75
564.004	1774.75
564.456	1778.75
564.908	1740.75
565.36	1707.75
565.812	1689.75
566.264	1678.75
566.716	1630.75
567.168	1595.75
567.62	1662.75
568.072	1598.75
568.524	1575.75
568.976	1594.75
569.428	1566.75
569.88	1583.75
570.332	1575.75
570.784	1584.75
571.235	1582.75
571.687	1597.75
572.139	1629.75
572.59	1603.75
573.042	1620.75
573.494	1666.75
573.945	1617.75
574.397	1546.75
574.849	1569.75
575.3	1596.75
575.752	1551.75
576.203	1560.75
576.655	1538.75
577.106	1527.75
577.557	1527.75
578.009	1523.75
578.46	1490.75
578.912	1508.75
579.363	1527.75
579.814	1494.75
580.265	1517.75
580.717	1492.75
581.168	1504.75
581.619	1507.75
582.07	1541.75
582.521	1535.75
582.972	1497.75
583.423	1491.75
583.875	1526.75
584.326	1530.75
584.777	1509.75
585.227	1568.75
585.678	1625.75
586.129	1651.75
586.58	1648.75
587.031	1686.75
587.482	1713.75
587.933	1688.75
588.384	1714.75
588.834	1719.75
589.285	1697.75
589.736	1735.75
590.186	1736.75
590.637	1700.75
591.088	1648.75
591.538	1629.75
591.989	1648.75
592.439	1583.75
592.89	1584.75
593.34	1545.75
593.791	1550.75
594.241	1498.75
594.692	1538.75
595.142	1536.75
595.593	1542.75
596.043	1570.75
596.493	1585.75
596.943	1571.75
597.394	1608.75
597.844	1575.75
598.294	1668.75
598.744	1676.75
599.195	1782.75
599.645	1853.75
600.095	1955.75
600.545	2068.75
600.995	2172.75
601.445	2281.75
601.895	2421.75
602.345	2490.75
602.795	2442.75
603.245	2363.75
603.695	2255.75
604.145	2101.75
604.594	2015.75
605.044	1898.75
605.494	1767.75
605.944	1650.75
606.393	1575.75
606.843	1563.75
607.293	1554.75
607.743	1558.75
608.192	1630.75
608.642	1550.75
609.091	1554.75
609.541	1545.75
609.99	1552.75
610.44	1539.75
610.889	1529.75
611.339	1453.75
611.788	1491.75
612.238	1487.75
612.687	1508.75
613.136	1540.75
613.586	1537.75
614.035	1556.75
614.484	1519.75
614.933	1575.75
615.383	1477.75
615.832	1496.75
616.281	1438.75
616.73	1403.75
617.179	1400.75
617.628	1364.75
618.077	1364.75
618.526	1354.75
618.975	1314.75
619.424	1293.75
619.873	1329.75
620.322	1276.75
620.771	1280.75
621.22	1280.75
621.669	1266.75
622.118	1242.75
622.567	1195.75
623.015	1205.75
623.464	1155.75
623.913	1149.75
624.361	1164.75
624.81	1170.75
625.259	1176.75
625.707	1171.75
626.156	1175.75
626.604	1192.75
627.053	1210.75
627.501	1200.75
627.95	1217.75
628.398	1225.75
628.847	1181.75
629.295	1169.75
629.744	1209.75
630.192	1160.75
630.64	1163.75
631.089	1124.75
631.537	1102.75
631.985	1132.75
632.433	1071.75
632.881	1078.75
633.33	1087.75
633.778	1098.75
634.226	1079.75
634.674	1102.75
635.122	1083.75
635.57	1124.75
636.018	1134.75
636.466	1131.75
636.914	1090.75
637.362	1149.75
637.81	1162.75
638.258	1165.75
638.705	1207.75
639.153	1266.75
639.601	1276.75
640.049	1255.75
640.497	1282.75
640.944	1349.75
641.392	1294.75
641.84	1187.75
642.287	1136.75
642.735	1096.75
643.182	1057.75
643.63	1043.75
644.078	1041.75
644.525	1021.75
644.973	1066.75
645.42	1055.75
645.867	1049.75
646.315	1056.75
646.762	1055.75
647.21	1067.75
647.657	1073.75
648.104	1098.75
648.551	1011.75
648.999	1000.75
649.446	1012.75
649.893	983.75
650.34	1006.75
650.787	1066.75
651.234	1088.75
651.682	1150.75
652.129	1259.75
652.576	1381.75
653.023	1611.75
653.47	1747.75
653.917	1804.75
654.363	1844.75
654.81	1894.75
655.257	2044.75
655.704	1722.75
656.151	1334.75
656.598	1154.75
657.044	1026.75
657.491	1009.75
657.938	987.75
658.385	940.75
658.831	984.75
659.278	966.75
659.724	960.75
660.171	907.75
660.618	928.75
661.064	912.75
661.511	910.75
661.957	917.75
662.404	910.75
662.85	944.75
663.296	928.75
663.743	955.75
664.189	913.75
664.635	964.75
665.082	937.75
665.528	942.75
665.974	919.75
666.42	870.75
666.867	909.75
667.313	885.75
667.759	843.75
668.205	827.75
668.651	846.75
669.097	890.75
669.543	873.75
669.989	897.75
670.435	857.75
670.881	872.75
671.327	906.75
671.773	993.75
672.219	1080.75
672.665	1146.75
673.11	1189.75
673.556	1237.75
674.002	1244.75
674.448	1319.75
674.893	1167.75
675.339	994.75
675.785	896.75
676.23	856.75
676.676	782.75
677.122	795.75
677.567	806.75
678.013	768.75
678.458	762.75
678.904	726.75
679.349	745.75
679.794	739.75
680.24	702.75
680.685	730.75
681.131	728.75
681.576	760.75
682.021	729.75
682.466	746.75
682.912	764.75
683.357	773.75
683.802	817.75
684.247	899.75
684.692	1010.75
685.137	1046.75
685.583	1060.75
686.028	1122.75
686.473	1114.75
686.918	959.75
687.363	870.75
687.807	813.75
688.252	765.75
688.697	725.75
689.142	740.75
689.587	692.75
690.032	725.75
690.477	771.75
690.921	804.75
691.366	837.75
691.811	898.75
692.255	913.75
692.7	1057.75
693.145	1370.75
693.589	2133.75
694.034	2891.75
694.478	3234.75
694.923	2934.75
695.367	3746.75
695.812	3268.75
696.256	1301.75
696.701	830.75
697.145	718.75
697.59	738.75
698.034	722.75
698.478	685.75
698.922	697.75
699.367	736.75
699.811	728.75
700.255	778.75
700.699	884.75
701.143	948.75
701.588	988.75
702.032	1027.75
702.476	1081.75
702.92	1136.75
703.364	1318.75
703.808	1918.75
704.252	2678.75
704.696	3074.75
705.14	2782.75
705.584	3614.75
706.027	2876.75
706.471	1298.75
706.915	897.75
707.359	750.75
707.803	696.75
708.246	700.75
708.69	675.75
709.134	686.75
709.577	661.75
710.021	662.75
710.465	666.75
710.908	678.75
711.352	644.75
711.795	714.75
712.239	788.75
712.682	806.75
713.126	828.75
713.569	875.75
714.012	804.75
714.456	681.75
714.899	635.75
715.342	587.75
715.786	584.75
716.229	564.75
716.672	537.75
717.115	565.75
717.558	576.75
718.002	559.75
718.445	583.75
718.888	624.75
719.331	622.75
719.774	683.75
720.217	666.75
720.66	628.75
721.103	613.75
721.546	574.75
721.989	544.75
722.432	538.75
722.874	556.75
723.317	522.75
723.76	554.75
724.203	612.75
724.645	872.75
725.088	1058.75
725.531	1100.75
725.974	1112.75
726.416	1175.75
726.859	767.75
727.301	588.75
727.744	555.75
728.187	546.75
728.629	552.75
729.071	588.75
729.514	574.75
729.956	595.75
730.399	622.75
730.841	626.75
731.283	611.75
731.726	584.75
732.168	612.75
732.61	608.75
733.053	632.75
733.495	723.75
733.937	785.75
734.379	908.75
734.821	1106.75
735.263	1510.75
735.705	2666.75
736.148	4393.75
736.59	5035.75
737.032	4790.75
737.474	5163.75
737.916	2380.75
738.357	1130.75
738.799	787.75
739.241	726.75
739.683	687.75
740.125	683.75
740.567	678.75
741.008	713.75
741.45	725.75
741.892	781.75
742.334	832.75
742.775	753.75
743.217	808.75
743.658	688.75
744.1	655.75
744.542	698.75
744.983	774.75
745.425	808.75
745.866	803.75
746.307	718.75
746.749	687.75
747.19	849.75
747.632	1498.75
748.073	2964.75
748.514	4623.75
748.956	5825.75
749.397	7744.75
749.838	6142.75
750.279	5044.75
750.72	3696.75
751.162	1595.75
751.603	823.75
752.044	614.75
752.485	527.75
752.926	500.75
753.367	475.75
753.808	456.75
754.249	453.75
754.69	469.75
755.131	412.75
755.572	439.75
756.013	430.75
756.453	460.75
756.894	466.75
757.335	444.75
757.776	457.75
758.216	446.75
758.657	490.75
759.098	518.75
759.538	614.75
759.979	760.75
760.42	1183.75
760.86	2830.75
761.301	6786.75
761.741	10227.75
762.182	10569.75
762.622	9655.75
763.063	4281.75
763.503	1672.75
763.943	842.75
764.384	632.75
764.824	554.75
765.264	470.75
765.705	458.75
766.145	464.75
766.585	461.75
767.025	409.75
767.465	394.75
767.906	419.75
768.346	415.75
768.786	475.75
769.226	624.75
769.666	1007.75
770.106	2233.75
770.546	4080.75
770.986	4419.75
771.426	4322.75
771.866	2286.75
772.306	998.75
772.745	565.75
773.185	434.75
773.625	412.75
774.065	417.75
774.505	469.75
774.944	708.75
775.384	1140.75
775.824	1328.75
776.263	1250.75
776.703	886.75
777.142	528.75
777.582	416.75
778.021	334.75
778.461	334.75
778.9	314.75
779.34	324.75
779.779	300.75
780.219	307.75
780.658	315.75
781.097	318.75
781.537	299.75
781.976	288.75
782.415	288.75
782.855	277.75
783.294	295.75
783.733	295.75
784.172	295.75
784.611	291.75
785.05	282.75
785.489	288.75
785.928	319.75
786.367	307.75
786.806	351.75
787.245	350.75
787.684	353.75
788.123	365.75
788.562	342.75
789.001	337.75
789.44	335.75
789.879	309.75
790.317	339.75
790.756	335.75
791.195	346.75
791.634	431.75
792.072	646.75
792.511	1388.75
792.95	3021.75
793.388	3895.75
793.827	3366.75
794.265	1839.75
794.704	883.75
795.142	508.75
795.581	423.75
796.019	360.75
796.458	343.75
796.896	371.75
797.334	358.75
797.773	454.75
798.211	701.75
798.649	1396.75
799.087	2431.75
799.526	3802.75
799.964	4213.75
800.402	3518.75
800.84	2003.75
801.278	1018.75
801.716	584.75
802.154	428.75
802.592	392.75
803.03	384.75
803.468	382.75
803.906	389.75
804.344	367.75
804.782	359.75
805.22	375.75
805.658	360.75
806.096	386.75
806.533	423.75
806.971	465.75
807.409	631.75
807.847	1003.75
808.284	2476.75
808.722	4934.75
809.16	6964.75
809.597	9624.75
810.035	12373.75
810.472	10409.75
810.91	5616.75
811.347	2634.75
811.785	1208.75
812.222	689.75
812.66	519.75
813.097	429.75
813.535	386.75
813.972	365.75
814.409	324.75
814.846	302.75
815.284	305.75
815.721	308.75
816.158	319.75
816.595	368.75
817.032	438.75
817.47	437.75
817.907	374.75
818.344	328.75
818.781	320.75
819.218	334.75
819.655	472.75
820.092	574.75
820.529	594.75
820.966	508.75
821.403	387.75
821.839	334.75
822.276	344.75
822.713	378.75
823.15	358.75
823.587	361.75
824.023	525.75
824.46	1113.75
824.897	2189.75
825.333	2284.75
825.77	1326.75
826.206	746.75
826.643	418.75
827.08	302.75
827.516	268.75
827.953	251.75
828.389	258.75
828.825	256.75
829.262	230.75
829.698	206.75
830.135	210.75
830.571	200.75
831.007	214.75
831.443	203.75
831.88	205.75
832.316	195.75
832.752	206.75
833.188	213.75
833.624	205.75
834.06	189.75
834.497	242.75
834.933	240.75
835.369	241.75
835.805	250.75
836.241	246.75
836.677	269.75
837.112	278.75
837.548	347.75
837.984	423.75
838.42	700.75
838.856	1817.75
839.292	3839.75
839.727	4217.75
840.163	2698.75
840.599	3210.75
841.034	4891.75
841.47	3735.75
841.906	2022.75
842.341	1088.75
842.777	654.75
843.212	588.75
843.648	488.75
844.083	367.75
844.519	278.75
844.954	271.75
845.39	241.75
845.825	224.75
846.261	206.75
846.696	209.75
847.131	188.75
847.566	203.75
848.002	202.75
848.437	207.75
848.872	190.75
849.307	238.75
849.742	307.75
850.177	672.75
850.613	1468.75
851.048	1587.75
851.483	856.75
851.918	530.75
852.353	314.75
852.788	224.75
853.223	182.75
853.657	184.75
854.092	152.75
854.527	169.75
854.962	186.75
855.397	198.75
855.832	170.75
856.266	184.75
856.701	175.75
857.136	173.75
857.57	184.75
858.005	198.75
858.44	202.75
858.874	197.75
859.309	184.75
859.743	191.75
860.178	195.75
860.612	180.75
861.047	201.75
861.481	258.75
861.915	240.75
862.35	216.75
862.784	162.75
863.218	162.75
863.653	153.75
864.087	195.75
864.521	193.75
864.955	280.75
865.39	415.75
865.824	413.75
866.258	394.75
866.692	552.75
867.126	516.75
867.56	381.75
867.994	264.75
868.428	199.75
868.862	208.75
869.296	204.75
869.73	231.75
870.164	228.75
870.598	220.75
871.031	162.75
871.465	164.75
871.899	151.75
872.333	144.75
872.766	145.75
873.2	144.75
873.634	140.75
874.067	146.75
874.501	152.75
874.935	158.75
875.368	142.75
875.802	144.75
876.235	140.75
876.669	118.75
877.102	119.75
877.535	131.75
877.969	139.75
878.402	132.75
878.836	141.75
879.269	106.75
879.702	140.75
880.135	106.75
880.569	126.75
881.002	134.75
881.435	147.75
881.868	128.75
882.301	120.75
882.734	127.75
883.167	103.75
883.601	146.75
884.034	118.75
884.467	113.75
884.899	138.75
885.332	127.75
885.765	120.75
886.198	124.75
886.631	112.75
887.064	120.75
887.497	123.75
887.929	126.75
888.362	135.75
888.795	121.75
889.228	128.75
889.66	123.75
890.093	114.75
890.526	120.75
890.958	107.75
891.391	118.75
891.823	118.75
892.256	122.75
892.688	121.75
893.121	115.75
893.553	110.75
893.985	109.75
894.418	120.75
894.85	122.75
895.282	116.75
895.715	126.75
896.147	114.75
896.579	111.75
897.011	118.75
897.444	106.75
897.876	137.75
898.308	113.75
898.74	112.75
899.172	127.75
899.604	114.75
900.036	118.75
900.468	128.75
900.9	116.75
901.332	124.75
901.764	126.75
902.196	127.75
902.628	125.75
903.06	140.75
903.491	179.75
903.923	156.75
904.355	142.75
904.787	132.75
905.218	153.75
905.65	140.75
906.082	128.75
906.513	131.75
906.945	132.75
907.376	112.75
907.808	121.75
908.239	128.75
908.671	121.75
909.102	127.75
909.534	138.75
909.965	202.75
910.397	352.75
910.828	877.75
911.259	978.75
911.691	620.75
912.122	443.75
912.553	254.75
912.984	165.75
913.415	135.75
913.847	136.75
914.278	127.75
914.709	115.75
915.14	140.75
915.571	110.75
916.002	124.75
916.433	112.75
916.864	116.75
917.295	117.75
917.726	127.75
918.157	146.75
918.587	138.75
919.018	146.75
919.449	155.75
919.88	135.75
920.311	166.75
920.741	224.75
921.172	471.75
921.603	338.75
922.033	287.75
922.464	208.75
922.895	154.75
923.325	148.75
923.756	124.75
924.186	104.75
924.617	113.75
925.047	155.75
925.478	157.75
925.908	131.75
926.338	134.75
926.769	101.75
927.199	106.75
927.629	110.75
928.06	141.75
928.49	104.75
928.92	98.75
929.35	111.75
929.78	108.75
930.21	101.75
930.641	103.75
931.071	102.75
931.501	88.75
931.931	102.75
932.361	97.75
932.791	98.75
933.221	120.75
933.651	116.75
934.08	129.75
934.51	125.75
934.94	129.75
935.37	98.75
935.8	92.75
936.229	94.75
936.659	96.75
937.089	101.75
937.519	103.75
937.948	130.75
938.378	114.75
938.807	123.75
939.237	115.75
939.666	117.75
940.096	94.75
940.525	78.75
940.955	101.75
941.384	112.75
941.814	96.75
942.243	85.75
942.672	77.75
943.102	77.75
943.531	100.75
943.96	94.75
944.39	83.75
944.819	97.75
945.248	87.75
945.677	88.75
946.106	95.75
946.535	92.75
946.964	95.75
947.393	90.75
947.822	92.75
948.251	118.75
948.68	73.75
949.109	101.75
949.538	95.75
949.967	81.75
950.396	92.75
950.825	85.75
951.254	102.75
951.682	86.75
952.111	90.75
952.54	86.75
952.969	84.75
953.397	100.75
953.826	102.75
954.254	88.75
954.683	82.75
955.112	71.75
955.54	102.75
955.969	87.75
956.397	92.75
956.826	92.75
957.254	86.75
957.682	87.75
958.111	90.75
958.539	78.75
958.967	76.75
959.396	72.75
959.824	79.75
960.252	88.75
960.68	92.75
961.109	75.75
961.537	84.75
961.965	88.75
962.393	85.75
962.821	78.75
963.249	87.75
963.677	100.75
964.105	114.75
964.533	199.75
964.961	165.75
965.389	131.75
965.817	117.75
966.245	98.75
966.672	101.75
967.1	92.75
967.528	95.75
967.956	95.75
968.383	102.75
968.811	87.75
969.239	97.75
969.666	72.75
970.094	88.75
970.522	85.75
970.949	92.75
971.377	85.75
971.804	97.75
972.232	99.75
972.659	90.75
973.087	102.75
973.514	103.75
973.941	74.75
974.369	86.75
974.796	74.75
975.223	99.75
975.651	99.75
976.078	86.75
976.505	84.75
976.932	99.75
977.359	130.75
977.786	109.75
978.214	102.75
978.641	90.75
979.068	78.75
979.495	76.75
979.922	106.75
980.349	88.75
980.776	85.75
981.202	94.75
981.629	77.75
982.056	93.75
982.483	83.75
982.91	83.75
983.337	88.75
983.763	94.75
984.19	78.75
984.617	71.75
985.043	97.75
985.47	87.75
985.897	95.75
986.323	85.75
986.75	80.75
987.176	90.75
987.603	89.75
988.029	106.75
988.456	74.75
988.882	86.75
989.308	76.75
989.735	86.75
990.161	94.75
990.587	88.75
991.014	87.75
991.44	87.75
991.866	88.75
992.292	103.75
992.719	83.75
993.145	77.75
993.571	91.75
993.997	85.75
994.423	85.75
994.849	86.75
995.275	83.75
995.701	90.75
996.127	77.75
996.553	84.75
996.979	87.75
997.405	89.75
997.83	86.75
998.256	75.75
998.682	98.75
999.108	79.75
999.534	82.75
999.959	90.75
1000.385	94.75
1000.811	75.75
1001.236	90.75
1001.662	92.75
1002.087	92.75
1002.513	93.75
1002.938	103.75
1003.364	94.75
1003.789	84.75
1004.215	93.75
1004.64	94.75
1005.066	94.75
1005.491	90.75
1005.916	96.75
1006.342	78.75
1006.767	89.75
1007.192	92.75
1007.617	78.75
1008.042	95.75
1008.468	75.75
1008.893	85.75
1009.318	102.75
1009.743	86.75
1010.168	97.75
1010.593	104.75
1011.018	108.75
1011.443	102.75
1011.868	90.75
1012.293	87.75
1012.718	93.75
1013.143	81.75
1013.567	94.75
1013.992	93.75
1014.417	90.75
1014.842	63.75
1015.267	70.75
1015.691	82.75
1016.116	80.75
1016.541	98.75
1016.965	94.75
1017.39	93.75
1017.814	93.75
1018.239	86.75
1018.663	80.75
1019.088	104.75
1019.512	78.75
1019.937	86.75
1020.361	87.75
1020.785	82.75
1021.21	88.75
1021.634	62.75
1022.058	69.75
1022.483	82.75
1022.907	73.75
1023.331	82.75
1023.755	76.75
1024.179	80.75
1024.604	106.75
1025.028	92.75
1025.452	81.75
1025.876	95.75
1026.3	88.75
1026.724	74.75
1027.148	82.75
1027.572	93.75
1027.996	87.75
1028.42	84.75
1028.843	91.75
1029.267	81.75
1029.691	90.75
1030.115	83.75
1030.539	92.75
1030.962	81.75
1031.386	90.75
1031.81	77.75
1032.233	80.75
1032.657	74.75
1033.08	69.75
1033.504	86.75
1033.927	74.75
1034.351	79.75
1034.774	97.75
1035.198	83.75
1035.621	73.75
1036.045	86.75
1036.468	100.75
1036.891	98.75
1037.315	84.75
1037.738	83.75
1038.161	59.75
1038.584	85.75
1039.008	84.75
1039.431	82.75
1039.854	78.75
1040.277	85.75
1040.7	81.75
1041.123	77.75
1041.546	66.75
1041.969	61.75
1042.392	97.75
1042.815	80.75
1043.238	74.75
1043.661	94.75
1044.084	77.75
1044.507	106.75
1044.93	65.75
1045.352	76.75
1045.775	88.75
1046.198	81.75
1046.621	78.75
1047.043	83.75
1047.466	85.75
1047.889	84.75
1048.311	77.75
1048.734	85.75
1049.156	90.75
1049.579	71.75
1050.001	83.75
1050.424	84.75
1050.846	94.75
1051.269	88.75
1051.691	77.75
1052.113	89.75
1052.536	68.75
1052.958	86.75
1053.38	78.75
1053.802	88.75
1054.225	89.75
1054.647	72.75
1055.069	90.75
1055.491	92.75
1055.913	73.75
1056.335	74.75
1056.757	96.75
1057.179	72.75
1057.601	66.75
1058.023	93.75
1058.445	90.75
1058.867	74.75
1059.289	86.75
1059.711	64.75
1060.133	65.75
1060.555	87.75
1060.976	95.75
1061.398	64.75
1061.82	75.75
1062.241	88.75
1062.663	95.75
1063.085	80.75
1063.506	80.75
1063.928	78.75
1064.35	93.75
1064.771	92.75
1065.193	77.75
1065.614	89.75
1066.035	86.75
1066.457	82.75
1066.878	90.75
1067.3	89.75
1067.721	89.75
1068.142	90.75
1068.564	72.75
1068.985	73.75
1069.406	80.75
1069.827	68.75
1070.248	82.75
1070.67	74.75
1071.091	83.75
1071.512	84.75
1071.933	84.75
1072.354	94.75
1072.775	72.75
1073.196	90.75
1073.617	72.75
1074.038	77.75
1074.459	79.75
1074.88	87.75
1075.3	79.75
1075.721	66.75
1076.142	81.75
1076.563	86.75
1076.983	76.75
1077.404	100.75
1077.825	83.75
1078.246	91.75
1078.666	72.75
1079.087	75.75
1079.507	74.75
1079.928	72.75
1080.348	71.75
1080.769	83.75
1081.189	84.75
1081.61	70.75
1082.03	94.75
1082.451	85.75
1082.871	83.75
1083.291	65.75
1083.711	62.75
1084.132	88.75
1084.552	84.75
1084.972	86.75
1085.392	74.75
1085.813	90.75
1086.233	86.75
1086.653	100.75
1087.073	81.75
1087.493	73.75
1087.913	87.75
1088.333	83.75
1088.753	80.75
1089.173	86.75
1089.593	74.75
1090.013	89.75
1090.433	84.75
1090.852	70.75
1091.272	55.75
1091.692	106.75
1092.112	80.75
1092.531	88.75
1092.951	77.75
1093.371	78.75
1093.79	79.75
1094.21	104.75
1094.63	90.75
1095.049	72.75
1095.469	72.75
1095.888	79.75
1096.308	73.75
1096.727	91.75
1097.146	75.75
1097.566	77.75
1097.985	59.75
1098.405	84.75
1098.824	70.75
1099.243	95.75
1099.662	64.75
1100.082	81.75
1100.501	70.75
1100.92	81.75
1101.339	97.75
1101.758	93.75
