Data from 20170802-ORNL-NYSim-Air_HRD10391_10-36-26-600.txt Node
Date: Wed Aug 02 10:36:26 EDT 2017
User: Ender
Spectrometer: HR+D1039
Trigger mode: 0
Integration Time (sec): 3.750000E-3
Scans to average: 1
Electric dark correction enabled: true
Nonlinearity correction enabled: false
Boxcar width: 0
XAxis mode: Wavelengths
Number of Pixels in Spectrum: 2048
>>>>>Begin Spectral Data<<<<<
187.836	-11.25
188.309	-11.25
188.782	-11.25
189.255	4.75
189.728	0.75
190.201	-4.25
190.674	-5.25
191.147	-8.25
191.619	-21.25
192.092	-20.25
192.565	7.75
193.038	-13.25
193.511	9.75
193.984	4.75
194.456	16.75
194.929	16.75
195.402	15.75
195.874	6.75
196.347	19.75
196.82	26.75
197.292	30.75
197.765	28.75
198.237	35.75
198.71	56.75
199.182	50.75
199.655	58.75
200.127	55.75
200.6	66.75
201.072	60.75
201.544	68.75
202.017	73.75
202.489	80.75
202.961	70.75
203.433	74.75
203.906	74.75
204.378	80.75
204.85	72.75
205.322	81.75
205.794	79.75
206.266	100.75
206.739	78.75
207.211	78.75
207.683	101.75
208.155	69.75
208.627	89.75
209.099	94.75
209.57	90.75
210.042	93.75
210.514	78.75
210.986	93.75
211.458	90.75
211.93	97.75
212.402	101.75
212.873	81.75
213.345	90.75
213.817	83.75
214.288	90.75
214.76	74.75
215.232	96.75
215.703	86.75
216.175	95.75
216.646	98.75
217.118	84.75
217.589	83.75
218.061	87.75
218.532	76.75
219.004	81.75
219.475	80.75
219.946	71.75
220.418	83.75
220.889	84.75
221.36	88.75
221.832	82.75
222.303	64.75
222.774	92.75
223.245	79.75
223.717	81.75
224.188	96.75
224.659	92.75
225.13	93.75
225.601	69.75
226.072	75.75
226.543	76.75
227.014	81.75
227.485	84.75
227.956	80.75
228.427	82.75
228.898	93.75
229.369	88.75
229.839	93.75
230.31	85.75
230.781	75.75
231.252	81.75
231.722	85.75
232.193	89.75
232.664	71.75
233.135	80.75
233.605	91.75
234.076	95.75
234.546	91.75
235.017	102.75
235.487	102.75
235.958	75.75
236.428	90.75
236.899	83.75
237.369	86.75
237.84	102.75
238.31	90.75
238.78	72.75
239.251	92.75
239.721	79.75
240.191	90.75
240.662	82.75
241.132	100.75
241.602	81.75
242.072	94.75
242.542	97.75
243.013	97.75
243.483	82.75
243.953	78.75
244.423	72.75
244.893	98.75
245.363	77.75
245.833	101.75
246.303	91.75
246.773	81.75
247.243	104.75
247.712	100.75
248.182	92.75
248.652	99.75
249.122	94.75
249.592	91.75
250.061	104.75
250.531	86.75
251.001	91.75
251.471	93.75
251.94	97.75
252.41	102.75
252.879	106.75
253.349	89.75
253.818	90.75
254.288	90.75
254.757	107.75
255.227	107.75
255.696	102.75
256.166	122.75
256.635	111.75
257.105	78.75
257.574	108.75
258.043	94.75
258.513	103.75
258.982	104.75
259.451	106.75
259.92	90.75
260.389	84.75
260.859	111.75
261.328	110.75
261.797	112.75
262.266	88.75
262.735	113.75
263.204	103.75
263.673	92.75
264.142	104.75
264.611	96.75
265.08	104.75
265.549	107.75
266.018	93.75
266.487	109.75
266.955	111.75
267.424	116.75
267.893	120.75
268.362	117.75
268.83	107.75
269.299	107.75
269.768	107.75
270.236	109.75
270.705	124.75
271.174	114.75
271.642	113.75
272.111	125.75
272.579	107.75
273.048	111.75
273.516	104.75
273.985	117.75
274.453	116.75
274.922	109.75
275.39	103.75
275.858	124.75
276.327	131.75
276.795	113.75
277.263	103.75
277.731	122.75
278.2	106.75
278.668	102.75
279.136	128.75
279.604	120.75
280.072	120.75
280.54	120.75
281.008	135.75
281.477	112.75
281.945	134.75
282.413	107.75
282.881	118.75
283.348	140.75
283.816	120.75
284.284	118.75
284.752	115.75
285.22	119.75
285.688	106.75
286.156	136.75
286.623	122.75
287.091	134.75
287.559	130.75
288.026	117.75
288.494	122.75
288.962	117.75
289.429	116.75
289.897	140.75
290.364	132.75
290.832	118.75
291.3	134.75
291.767	124.75
292.234	140.75
292.702	128.75
293.169	127.75
293.637	124.75
294.104	134.75
294.571	147.75
295.039	138.75
295.506	129.75
295.973	145.75
296.44	122.75
296.908	136.75
297.375	133.75
297.842	132.75
298.309	137.75
298.776	130.75
299.243	156.75
299.71	146.75
300.177	167.75
300.644	136.75
301.111	157.75
301.578	134.75
302.045	137.75
302.512	170.75
302.979	140.75
303.446	153.75
303.913	148.75
304.379	152.75
304.846	146.75
305.313	144.75
305.78	158.75
306.246	157.75
306.713	158.75
307.18	147.75
307.646	156.75
308.113	162.75
308.579	160.75
309.046	164.75
309.512	183.75
309.979	160.75
310.445	172.75
310.912	136.75
311.378	154.75
311.845	171.75
312.311	174.75
312.777	154.75
313.244	156.75
313.71	155.75
314.176	190.75
314.642	163.75
315.109	160.75
315.575	151.75
316.041	180.75
316.507	166.75
316.973	164.75
317.439	176.75
317.905	189.75
318.371	171.75
318.837	172.75
319.303	187.75
319.769	165.75
320.235	187.75
320.701	177.75
321.167	180.75
321.633	180.75
322.099	181.75
322.564	166.75
323.03	180.75
323.496	200.75
323.962	178.75
324.427	184.75
324.893	194.75
325.359	183.75
325.824	199.75
326.29	182.75
326.755	195.75
327.221	198.75
327.686	200.75
328.152	182.75
328.617	174.75
329.083	179.75
329.548	211.75
330.014	205.75
330.479	181.75
330.944	194.75
331.41	208.75
331.875	207.75
332.34	199.75
332.805	207.75
333.271	201.75
333.736	200.75
334.201	213.75
334.666	206.75
335.131	205.75
335.596	204.75
336.061	215.75
336.526	205.75
336.991	216.75
337.456	198.75
337.921	218.75
338.386	232.75
338.851	226.75
339.316	194.75
339.781	225.75
340.246	221.75
340.711	215.75
341.175	196.75
341.64	227.75
342.105	225.75
342.569	214.75
343.034	224.75
343.499	212.75
343.963	227.75
344.428	226.75
344.893	231.75
345.357	233.75
345.822	218.75
346.286	242.75
346.751	237.75
347.215	264.75
347.679	249.75
348.144	290.75
348.608	253.75
349.073	281.75
349.537	280.75
350.001	267.75
350.465	290.75
350.93	264.75
351.394	266.75
351.858	260.75
352.322	269.75
352.786	286.75
353.25	282.75
353.715	282.75
354.179	283.75
354.643	294.75
355.107	288.75
355.571	301.75
356.035	288.75
356.498	302.75
356.962	290.75
357.426	285.75
357.89	313.75
358.354	282.75
358.818	282.75
359.281	284.75
359.745	300.75
360.209	279.75
360.673	304.75
361.136	283.75
361.6	279.75
362.064	300.75
362.527	294.75
362.991	306.75
363.454	305.75
363.918	290.75
364.381	305.75
364.845	309.75
365.308	345.75
365.772	306.75
366.235	328.75
366.698	302.75
367.162	313.75
367.625	326.75
368.088	317.75
368.552	335.75
369.015	304.75
369.478	302.75
369.941	311.75
370.404	304.75
370.867	300.75
371.331	328.75
371.794	329.75
372.257	313.75
372.72	323.75
373.183	333.75
373.646	312.75
374.109	320.75
374.572	328.75
375.035	338.75
375.497	338.75
375.96	359.75
376.423	360.75
376.886	334.75
377.349	350.75
377.811	330.75
378.274	363.75
378.737	350.75
379.199	368.75
379.662	360.75
380.125	362.75
380.587	351.75
381.05	367.75
381.512	364.75
381.975	376.75
382.437	377.75
382.9	369.75
383.362	388.75
383.825	409.75
384.287	388.75
384.75	386.75
385.212	393.75
385.674	382.75
386.136	396.75
386.599	392.75
387.061	417.75
387.523	401.75
387.985	389.75
388.447	412.75
388.91	404.75
389.372	434.75
389.834	384.75
390.296	420.75
390.758	413.75
391.22	386.75
391.682	400.75
392.144	386.75
392.606	402.75
393.068	394.75
393.529	432.75
393.991	466.75
394.453	428.75
394.915	430.75
395.377	432.75
395.838	406.75
396.3	427.75
396.762	427.75
397.224	421.75
397.685	426.75
398.147	418.75
398.608	434.75
399.07	440.75
399.531	437.75
399.993	438.75
400.454	449.75
400.916	446.75
401.377	489.75
401.839	462.75
402.3	459.75
402.762	483.75
403.223	500.75
403.684	542.75
404.145	509.75
404.607	464.75
405.068	456.75
405.529	489.75
405.99	489.75
406.451	487.75
406.913	488.75
407.374	480.75
407.835	486.75
408.296	477.75
408.757	512.75
409.218	522.75
409.679	515.75
410.14	521.75
410.601	546.75
411.062	541.75
411.522	547.75
411.983	532.75
412.444	544.75
412.905	554.75
413.366	584.75
413.826	627.75
414.287	690.75
414.748	816.75
415.208	874.75
415.669	722.75
416.13	669.75
416.59	676.75
417.051	695.75
417.511	696.75
417.972	745.75
418.432	802.75
418.893	898.75
419.353	850.75
419.814	634.75
420.274	623.75
420.734	572.75
421.195	598.75
421.655	600.75
422.115	608.75
422.576	610.75
423.036	608.75
423.496	626.75
423.956	626.75
424.416	684.75
424.876	739.75
425.336	740.75
425.797	715.75
426.257	710.75
426.717	687.75
427.177	617.75
427.637	578.75
428.097	598.75
428.556	646.75
429.016	678.75
429.476	664.75
429.936	628.75
430.396	642.75
430.856	621.75
431.315	643.75
431.775	681.75
432.235	762.75
432.694	744.75
433.154	690.75
433.614	675.75
434.073	692.75
434.533	652.75
434.993	638.75
435.452	639.75
435.912	626.75
436.371	611.75
436.83	618.75
437.29	651.75
437.749	622.75
438.209	626.75
438.668	641.75
439.127	682.75
439.587	667.75
440.046	685.75
440.505	680.75
440.964	651.75
441.424	665.75
441.883	686.75
442.342	666.75
442.801	661.75
443.26	674.75
443.719	673.75
444.178	650.75
444.637	641.75
445.096	655.75
445.555	673.75
446.014	667.75
446.473	670.75
446.932	692.75
447.391	685.75
447.849	720.75
448.308	688.75
448.767	694.75
449.226	700.75
449.685	699.75
450.143	741.75
450.602	704.75
451.061	716.75
451.519	680.75
451.978	715.75
452.436	720.75
452.895	704.75
453.353	700.75
453.812	673.75
454.27	698.75
454.729	717.75
455.187	686.75
455.646	712.75
456.104	724.75
456.562	718.75
457.021	749.75
457.479	709.75
457.937	754.75
458.395	750.75
458.854	739.75
459.312	713.75
459.77	708.75
460.228	738.75
460.686	757.75
461.144	768.75
461.602	768.75
462.06	759.75
462.518	752.75
462.976	778.75
463.434	762.75
463.892	765.75
464.35	783.75
464.808	800.75
465.266	794.75
465.724	810.75
466.181	821.75
466.639	826.75
467.097	856.75
467.555	902.75
468.012	848.75
468.47	890.75
468.928	890.75
469.385	917.75
469.843	892.75
470.3	911.75
470.758	949.75
471.215	918.75
471.673	942.75
472.13	972.75
472.588	1004.75
473.045	1001.75
473.503	1018.75
473.96	1048.75
474.417	1056.75
474.875	1088.75
475.332	1104.75
475.789	1113.75
476.246	1087.75
476.704	1138.75
477.161	1166.75
477.618	1131.75
478.075	1172.75
478.532	1190.75
478.989	1208.75
479.446	1274.75
479.903	1296.75
480.36	1324.75
480.817	1299.75
481.274	1300.75
481.731	1372.75
482.188	1368.75
482.645	1412.75
483.102	1408.75
483.558	1453.75
484.015	1518.75
484.472	1518.75
484.929	1469.75
485.385	1500.75
485.842	1491.75
486.299	1500.75
486.755	1552.75
487.212	1510.75
487.668	1436.75
488.125	1410.75
488.582	1391.75
489.038	1420.75
489.494	1439.75
489.951	1401.75
490.407	1421.75
490.864	1454.75
491.32	1468.75
491.776	1442.75
492.233	1481.75
492.689	1459.75
493.145	1489.75
493.602	1488.75
494.058	1478.75
494.514	1482.75
494.97	1487.75
495.426	1510.75
495.882	1547.75
496.338	1546.75
496.794	1582.75
497.251	1558.75
497.707	1581.75
498.163	1566.75
498.618	1549.75
499.074	1600.75
499.53	1599.75
499.986	1615.75
500.442	1613.75
500.898	1552.75
501.354	1598.75
501.809	1600.75
502.265	1609.75
502.721	1615.75
503.177	1619.75
503.632	1639.75
504.088	1644.75
504.543	1659.75
504.999	1660.75
505.455	1679.75
505.91	1642.75
506.366	1658.75
506.821	1690.75
507.277	1662.75
507.732	1672.75
508.187	1696.75
508.643	1688.75
509.098	1654.75
509.553	1722.75
510.009	1710.75
510.464	1759.75
510.919	1746.75
511.375	1819.75
511.83	1824.75
512.285	1829.75
512.74	1887.75
513.195	1908.75
513.65	1940.75
514.105	1938.75
514.56	1986.75
515.015	2026.75
515.47	2022.75
515.925	1966.75
516.38	1996.75
516.835	2004.75
517.29	2033.75
517.745	2015.75
518.2	1990.75
518.655	1951.75
519.109	1900.75
519.564	1861.75
520.019	1874.75
520.474	1847.75
520.928	1837.75
521.383	1796.75
521.838	1832.75
522.292	1802.75
522.747	1808.75
523.201	1787.75
523.656	1732.75
524.11	1746.75
524.565	1732.75
525.019	1712.75
525.474	1760.75
525.928	1748.75
526.382	1764.75
526.837	1762.75
527.291	1762.75
527.745	1703.75
528.2	1790.75
528.654	1767.75
529.108	1722.75
529.562	1748.75
530.016	1710.75
530.47	1720.75
530.925	1716.75
531.379	1734.75
531.833	1731.75
532.287	1745.75
532.741	1728.75
533.195	1746.75
533.649	1742.75
534.103	1744.75
534.556	1698.75
535.01	1768.75
535.464	1715.75
535.918	1743.75
536.372	1742.75
536.826	1740.75
537.279	1719.75
537.733	1761.75
538.187	1738.75
538.64	1726.75
539.094	1769.75
539.548	1802.75
540.001	1812.75
540.455	1811.75
540.908	1795.75
541.362	1805.75
541.815	1867.75
542.269	1892.75
542.722	1894.75
543.175	1883.75
543.629	1852.75
544.082	1902.75
544.536	1923.75
544.989	1948.75
545.442	1943.75
545.895	1934.75
546.349	1931.75
546.802	1962.75
547.255	1931.75
547.708	1948.75
548.161	1970.75
548.614	1988.75
549.067	2034.75
549.52	2022.75
549.973	1991.75
550.426	1958.75
550.879	1955.75
551.332	1940.75
551.785	1957.75
552.238	1995.75
552.691	2014.75
553.144	2016.75
553.596	1992.75
554.049	2081.75
554.502	2168.75
554.955	2198.75
555.407	2190.75
555.86	2149.75
556.313	2131.75
556.765	2119.75
557.218	2109.75
557.67	2112.75
558.123	2047.75
558.576	2076.75
559.028	2052.75
559.48	2056.75
559.933	2080.75
560.385	1977.75
560.838	1912.75
561.29	1891.75
561.742	1877.75
562.195	1861.75
562.647	1790.75
563.099	1845.75
563.551	1797.75
564.004	1852.75
564.456	1806.75
564.908	1793.75
565.36	1713.75
565.812	1679.75
566.264	1679.75
566.716	1652.75
567.168	1623.75
567.62	1660.75
568.072	1629.75
568.524	1620.75
568.976	1618.75
569.428	1601.75
569.88	1591.75
570.332	1655.75
570.784	1612.75
571.235	1598.75
571.687	1662.75
572.139	1649.75
572.59	1651.75
573.042	1657.75
573.494	1620.75
573.945	1623.75
574.397	1598.75
574.849	1558.75
575.3	1581.75
575.752	1574.75
576.203	1530.75
576.655	1582.75
577.106	1522.75
577.557	1502.75
578.009	1532.75
578.46	1516.75
578.912	1539.75
579.363	1548.75
579.814	1505.75
580.265	1539.75
580.717	1521.75
581.168	1536.75
581.619	1557.75
582.07	1527.75
582.521	1504.75
582.972	1554.75
583.423	1535.75
583.875	1565.75
584.326	1556.75
584.777	1585.75
585.227	1616.75
585.678	1618.75
586.129	1643.75
586.58	1666.75
587.031	1676.75
587.482	1779.75
587.933	1740.75
588.384	1766.75
588.834	1748.75
589.285	1736.75
589.736	1738.75
590.186	1724.75
590.637	1738.75
591.088	1684.75
591.538	1620.75
591.989	1596.75
592.439	1615.75
592.89	1600.75
593.34	1602.75
593.791	1595.75
594.241	1540.75
594.692	1504.75
595.142	1548.75
595.593	1532.75
596.043	1545.75
596.493	1609.75
596.943	1562.75
597.394	1606.75
597.844	1606.75
598.294	1679.75
598.744	1734.75
599.195	1750.75
599.645	1859.75
600.095	2006.75
600.545	2080.75
600.995	2162.75
601.445	2288.75
601.895	2408.75
602.345	2496.75
602.795	2488.75
603.245	2309.75
603.695	2222.75
604.145	2096.75
604.594	1994.75
605.044	1886.75
605.494	1720.75
605.944	1664.75
606.393	1595.75
606.843	1584.75
607.293	1604.75
607.743	1569.75
608.192	1569.75
608.642	1620.75
609.091	1579.75
609.541	1581.75
609.99	1604.75
610.44	1556.75
610.889	1529.75
611.339	1509.75
611.788	1494.75
612.238	1545.75
612.687	1528.75
613.136	1515.75
613.586	1473.75
614.035	1546.75
614.484	1522.75
614.933	1554.75
615.383	1523.75
615.832	1492.75
616.281	1463.75
616.73	1439.75
617.179	1388.75
617.628	1374.75
618.077	1382.75
618.526	1365.75
618.975	1320.75
619.424	1279.75
619.873	1298.75
620.322	1314.75
620.771	1260.75
621.22	1275.75
621.669	1246.75
622.118	1228.75
622.567	1253.75
623.015	1205.75
623.464	1190.75
623.913	1201.75
624.361	1188.75
624.81	1225.75
625.259	1164.75
625.707	1116.75
626.156	1155.75
626.604	1217.75
627.053	1186.75
627.501	1199.75
627.95	1221.75
628.398	1226.75
628.847	1235.75
629.295	1250.75
629.744	1220.75
630.192	1181.75
630.64	1140.75
631.089	1140.75
631.537	1116.75
631.985	1116.75
632.433	1104.75
632.881	1053.75
633.33	1086.75
633.778	1089.75
634.226	1082.75
634.674	1096.75
635.122	1082.75
635.57	1122.75
636.018	1146.75
636.466	1117.75
636.914	1147.75
637.362	1170.75
637.81	1197.75
638.258	1180.75
638.705	1208.75
639.153	1252.75
639.601	1263.75
640.049	1270.75
640.497	1315.75
640.944	1357.75
641.392	1295.75
641.84	1173.75
642.287	1117.75
642.735	1114.75
643.182	1088.75
643.63	1082.75
644.078	1037.75
644.525	1040.75
644.973	1066.75
645.42	1070.75
645.867	1034.75
646.315	1066.75
646.762	1080.75
647.21	1086.75
647.657	1112.75
648.104	1056.75
648.551	1027.75
648.999	990.75
649.446	1012.75
649.893	1031.75
650.34	1030.75
650.787	1050.75
651.234	1102.75
651.682	1126.75
652.129	1221.75
652.576	1385.75
653.023	1614.75
653.47	1743.75
653.917	1826.75
654.363	1922.75
654.81	1916.75
655.257	2040.75
655.704	1700.75
656.151	1348.75
656.598	1144.75
657.044	1102.75
657.491	1020.75
657.938	1008.75
658.385	991.75
658.831	1021.75
659.278	993.75
659.724	970.75
660.171	955.75
660.618	911.75
661.064	904.75
661.511	907.75
661.957	938.75
662.404	908.75
662.85	954.75
663.296	963.75
663.743	973.75
664.189	934.75
664.635	924.75
665.082	992.75
665.528	964.75
665.974	922.75
666.42	910.75
666.867	907.75
667.313	895.75
667.759	855.75
668.205	860.75
668.651	886.75
669.097	902.75
669.543	874.75
669.989	877.75
670.435	890.75
670.881	873.75
671.327	954.75
671.773	980.75
672.219	1089.75
672.665	1142.75
673.11	1173.75
673.556	1231.75
674.002	1295.75
674.448	1350.75
674.893	1170.75
675.339	969.75
675.785	926.75
676.23	852.75
676.676	849.75
677.122	800.75
677.567	822.75
678.013	780.75
678.458	763.75
678.904	760.75
679.349	759.75
679.794	744.75
680.24	741.75
680.685	732.75
681.131	723.75
681.576	746.75
682.021	724.75
682.466	757.75
682.912	783.75
683.357	791.75
683.802	837.75
684.247	896.75
684.692	958.75
685.137	1042.75
685.583	1038.75
686.028	1125.75
686.473	1096.75
686.918	935.75
687.363	843.75
687.807	810.75
688.252	794.75
688.697	766.75
689.142	725.75
689.587	737.75
690.032	753.75
690.477	752.75
690.921	824.75
691.366	855.75
691.811	880.75
692.255	936.75
692.7	1078.75
693.145	1356.75
693.589	2134.75
694.034	2918.75
694.478	3295.75
694.923	3002.75
695.367	3707.75
695.812	3333.75
696.256	1316.75
696.701	875.75
697.145	754.75
697.59	724.75
698.034	710.75
698.478	700.75
698.922	724.75
699.367	710.75
699.811	746.75
700.255	777.75
700.699	870.75
701.143	962.75
701.588	986.75
702.032	1049.75
702.476	1112.75
702.92	1129.75
703.364	1288.75
703.808	1928.75
704.252	2752.75
704.696	3086.75
705.14	2864.75
705.584	3687.75
706.027	2910.75
706.471	1340.75
706.915	909.75
707.359	786.75
707.803	710.75
708.246	684.75
708.69	690.75
709.134	664.75
709.577	671.75
710.021	674.75
710.465	693.75
710.908	670.75
711.352	656.75
711.795	722.75
712.239	826.75
712.682	838.75
713.126	852.75
713.569	892.75
714.012	800.75
714.456	666.75
714.899	644.75
715.342	597.75
715.786	584.75
716.229	584.75
716.672	585.75
717.115	553.75
717.558	569.75
718.002	569.75
718.445	605.75
718.888	624.75
719.331	640.75
719.774	682.75
720.217	690.75
720.66	635.75
721.103	613.75
721.546	545.75
721.989	532.75
722.432	549.75
722.874	523.75
723.317	548.75
723.76	556.75
724.203	627.75
724.645	867.75
725.088	1076.75
725.531	1125.75
725.974	1094.75
726.416	1201.75
726.859	736.75
727.301	578.75
727.744	539.75
728.187	545.75
728.629	557.75
729.071	570.75
729.514	570.75
729.956	579.75
730.399	639.75
730.841	630.75
731.283	603.75
731.726	601.75
732.168	586.75
732.61	660.75
733.053	652.75
733.495	765.75
733.937	816.75
734.379	943.75
734.821	1112.75
735.263	1526.75
735.705	2644.75
736.148	4474.75
736.59	5254.75
737.032	4814.75
737.474	5227.75
737.916	2442.75
738.357	1117.75
738.799	794.75
739.241	694.75
739.683	672.75
740.125	677.75
740.567	698.75
741.008	715.75
741.45	767.75
741.892	789.75
742.334	793.75
742.775	792.75
743.217	787.75
743.658	681.75
744.1	650.75
744.542	686.75
744.983	760.75
745.425	778.75
745.866	856.75
746.307	702.75
746.749	696.75
747.19	866.75
747.632	1502.75
748.073	2934.75
748.514	4725.75
748.956	5808.75
749.397	7863.75
749.838	6277.75
750.279	5109.75
750.72	3743.75
751.162	1598.75
751.603	830.75
752.044	616.75
752.485	558.75
752.926	538.75
753.367	471.75
753.808	491.75
754.249	471.75
754.69	478.75
755.131	443.75
755.572	465.75
756.013	461.75
756.453	423.75
756.894	452.75
757.335	453.75
757.776	466.75
758.216	469.75
758.657	503.75
759.098	518.75
759.538	610.75
759.979	762.75
760.42	1247.75
760.86	2877.75
761.301	6920.75
761.741	10334.75
762.182	10643.75
762.622	9829.75
763.063	4320.75
763.503	1673.75
763.943	878.75
764.384	652.75
764.824	569.75
765.264	510.75
765.705	466.75
766.145	452.75
766.585	437.75
767.025	426.75
767.465	422.75
767.906	467.75
768.346	438.75
768.786	522.75
769.226	590.75
769.666	1006.75
770.106	2315.75
770.546	4136.75
770.986	4522.75
771.426	4326.75
771.866	2302.75
772.306	1044.75
772.745	584.75
773.185	431.75
773.625	417.75
774.065	400.75
774.505	470.75
774.944	728.75
775.384	1173.75
775.824	1342.75
776.263	1280.75
776.703	925.75
777.142	538.75
777.582	385.75
778.021	330.75
778.461	358.75
778.9	327.75
779.34	337.75
779.779	319.75
780.219	328.75
780.658	310.75
781.097	313.75
781.537	283.75
781.976	303.75
782.415	277.75
782.855	288.75
783.294	284.75
783.733	293.75
784.172	303.75
784.611	315.75
785.05	290.75
785.489	312.75
785.928	307.75
786.367	300.75
786.806	323.75
787.245	340.75
787.684	340.75
788.123	364.75
788.562	370.75
789.001	340.75
789.44	326.75
789.879	318.75
790.317	309.75
790.756	334.75
791.195	371.75
791.634	412.75
792.072	638.75
792.511	1340.75
792.95	3082.75
793.388	3931.75
793.827	3387.75
794.265	1849.75
794.704	867.75
795.142	502.75
795.581	390.75
796.019	362.75
796.458	351.75
796.896	348.75
797.334	386.75
797.773	432.75
798.211	724.75
798.649	1459.75
799.087	2450.75
799.526	3783.75
799.964	4270.75
800.402	3555.75
800.84	1949.75
801.278	966.75
801.716	539.75
802.154	414.75
802.592	384.75
803.03	381.75
803.468	382.75
803.906	371.75
804.344	393.75
804.782	404.75
805.22	395.75
805.658	384.75
806.096	396.75
806.533	431.75
806.971	501.75
807.409	631.75
807.847	1060.75
808.284	2506.75
808.722	5107.75
809.16	7111.75
809.597	9792.75
810.035	12613.75
810.472	10599.75
810.91	5804.75
811.347	2680.75
811.785	1210.75
812.222	699.75
812.66	520.75
813.097	455.75
813.535	389.75
813.972	356.75
814.409	345.75
814.846	347.75
815.284	321.75
815.721	311.75
816.158	322.75
816.595	383.75
817.032	463.75
817.47	459.75
817.907	388.75
818.344	359.75
818.781	352.75
819.218	350.75
819.655	447.75
820.092	565.75
820.529	596.75
820.966	522.75
821.403	396.75
821.839	345.75
822.276	335.75
822.713	356.75
823.15	382.75
823.587	381.75
824.023	526.75
824.46	1162.75
824.897	2156.75
825.333	2349.75
825.77	1336.75
826.206	772.75
826.643	431.75
827.08	322.75
827.516	294.75
827.953	264.75
828.389	250.75
828.825	247.75
829.262	244.75
829.698	227.75
830.135	218.75
830.571	227.75
831.007	226.75
831.443	240.75
831.88	207.75
832.316	223.75
832.752	225.75
833.188	234.75
833.624	221.75
834.06	218.75
834.497	228.75
834.933	230.75
835.369	234.75
835.805	246.75
836.241	266.75
836.677	271.75
837.112	285.75
837.548	340.75
837.984	436.75
838.42	692.75
838.856	1832.75
839.292	3968.75
839.727	4282.75
840.163	2730.75
840.599	3254.75
841.034	4916.75
841.47	3786.75
841.906	2001.75
842.341	1113.75
842.777	666.75
843.212	574.75
843.648	498.75
844.083	378.75
844.519	290.75
844.954	226.75
845.39	208.75
845.825	201.75
846.261	192.75
846.696	197.75
847.131	202.75
847.566	203.75
848.002	203.75
848.437	218.75
848.872	218.75
849.307	232.75
849.742	334.75
850.177	710.75
850.613	1417.75
851.048	1587.75
851.483	893.75
851.918	560.75
852.353	323.75
852.788	234.75
853.223	192.75
853.657	202.75
854.092	199.75
854.527	182.75
854.962	184.75
855.397	198.75
855.832	188.75
856.266	177.75
856.701	178.75
857.136	179.75
857.57	203.75
858.005	236.75
858.44	196.75
858.874	203.75
859.309	200.75
859.743	184.75
860.178	175.75
860.612	176.75
861.047	208.75
861.481	242.75
861.915	245.75
862.35	207.75
862.784	167.75
863.218	174.75
863.653	162.75
864.087	190.75
864.521	211.75
864.955	278.75
865.39	420.75
865.824	404.75
866.258	423.75
866.692	570.75
867.126	540.75
867.56	387.75
867.994	277.75
868.428	221.75
868.862	227.75
869.296	212.75
869.73	217.75
870.164	241.75
870.598	221.75
871.031	176.75
871.465	169.75
871.899	139.75
872.333	140.75
872.766	137.75
873.2	148.75
873.634	138.75
874.067	131.75
874.501	127.75
874.935	151.75
875.368	170.75
875.802	130.75
876.235	144.75
876.669	144.75
877.102	142.75
877.535	118.75
877.969	144.75
878.402	131.75
878.836	126.75
879.269	132.75
879.702	129.75
880.135	147.75
880.569	127.75
881.002	142.75
881.435	143.75
881.868	139.75
882.301	128.75
882.734	125.75
883.167	129.75
883.601	134.75
884.034	111.75
884.467	125.75
884.899	114.75
885.332	128.75
885.765	126.75
886.198	123.75
886.631	119.75
887.064	108.75
887.497	118.75
887.929	122.75
888.362	115.75
888.795	129.75
889.228	134.75
889.66	137.75
890.093	119.75
890.526	133.75
890.958	122.75
891.391	127.75
891.823	132.75
892.256	116.75
892.688	126.75
893.121	109.75
893.553	121.75
893.985	119.75
894.418	127.75
894.85	131.75
895.282	131.75
895.715	95.75
896.147	130.75
896.579	127.75
897.011	128.75
897.444	111.75
897.876	124.75
898.308	120.75
898.74	108.75
899.172	133.75
899.604	117.75
900.036	122.75
900.468	127.75
900.9	136.75
901.332	112.75
901.764	128.75
902.196	138.75
902.628	110.75
903.06	136.75
903.491	144.75
903.923	143.75
904.355	154.75
904.787	128.75
905.218	148.75
905.65	150.75
906.082	124.75
906.513	135.75
906.945	107.75
907.376	139.75
907.808	122.75
908.239	116.75
908.671	150.75
909.102	137.75
909.534	166.75
909.965	214.75
910.397	327.75
910.828	906.75
911.259	992.75
911.691	615.75
912.122	403.75
912.553	230.75
912.984	161.75
913.415	169.75
913.847	143.75
914.278	134.75
914.709	138.75
915.14	114.75
915.571	117.75
916.002	103.75
916.433	114.75
916.864	131.75
917.295	127.75
917.726	112.75
918.157	124.75
918.587	143.75
919.018	126.75
919.449	126.75
919.88	134.75
920.311	158.75
920.741	251.75
921.172	460.75
921.603	373.75
922.033	280.75
922.464	218.75
922.895	158.75
923.325	152.75
923.756	121.75
924.186	118.75
924.617	149.75
925.047	172.75
925.478	166.75
925.908	165.75
926.338	140.75
926.769	133.75
927.199	120.75
927.629	112.75
928.06	110.75
928.49	126.75
928.92	124.75
929.35	121.75
929.78	111.75
930.21	106.75
930.641	106.75
931.071	98.75
931.501	124.75
931.931	106.75
932.361	100.75
932.791	106.75
933.221	100.75
933.651	149.75
934.08	137.75
934.51	123.75
934.94	121.75
935.37	125.75
935.8	119.75
936.229	97.75
936.659	100.75
937.089	118.75
937.519	120.75
937.948	143.75
938.378	120.75
938.807	95.75
939.237	104.75
939.666	100.75
940.096	121.75
940.525	104.75
940.955	109.75
941.384	87.75
941.814	114.75
942.243	94.75
942.672	106.75
943.102	109.75
943.531	103.75
943.96	82.75
944.39	90.75
944.819	92.75
945.248	101.75
945.677	96.75
946.106	86.75
946.535	92.75
946.964	103.75
947.393	101.75
947.822	92.75
948.251	123.75
948.68	97.75
949.109	102.75
949.538	82.75
949.967	97.75
950.396	85.75
950.825	100.75
951.254	108.75
951.682	107.75
952.111	102.75
952.54	99.75
952.969	98.75
953.397	90.75
953.826	97.75
954.254	81.75
954.683	110.75
955.112	90.75
955.54	78.75
955.969	102.75
956.397	92.75
956.826	92.75
957.254	107.75
957.682	105.75
958.111	76.75
958.539	76.75
958.967	85.75
959.396	94.75
959.824	98.75
960.252	91.75
960.68	103.75
961.109	107.75
961.537	92.75
961.965	97.75
962.393	90.75
962.821	75.75
963.249	95.75
963.677	105.75
964.105	131.75
964.533	212.75
964.961	175.75
965.389	130.75
965.817	137.75
966.245	109.75
966.672	111.75
967.1	100.75
967.528	102.75
967.956	86.75
968.383	86.75
968.811	82.75
969.239	91.75
969.666	103.75
970.094	89.75
970.522	98.75
970.949	81.75
971.377	85.75
971.804	93.75
972.232	93.75
972.659	94.75
973.087	97.75
973.514	91.75
973.941	108.75
974.369	96.75
974.796	96.75
975.223	82.75
975.651	97.75
976.078	92.75
976.505	98.75
976.932	90.75
977.359	105.75
977.786	123.75
978.214	103.75
978.641	99.75
979.068	100.75
979.495	89.75
979.922	93.75
980.349	106.75
980.776	98.75
981.202	82.75
981.629	74.75
982.056	95.75
982.483	97.75
982.91	85.75
983.337	97.75
983.763	92.75
984.19	93.75
984.617	91.75
985.043	87.75
985.47	75.75
985.897	84.75
986.323	93.75
986.75	88.75
987.176	98.75
987.603	96.75
988.029	74.75
988.456	70.75
988.882	84.75
989.308	106.75
989.735	77.75
990.161	86.75
990.587	101.75
991.014	85.75
991.44	86.75
991.866	104.75
992.292	90.75
992.719	77.75
993.145	94.75
993.571	85.75
993.997	97.75
994.423	95.75
994.849	95.75
995.275	85.75
995.701	86.75
996.127	83.75
996.553	89.75
996.979	91.75
997.405	79.75
997.83	88.75
998.256	78.75
998.682	88.75
999.108	84.75
999.534	72.75
999.959	98.75
1000.385	59.75
1000.811	94.75
1001.236	79.75
1001.662	82.75
1002.087	87.75
1002.513	98.75
1002.938	109.75
1003.364	92.75
1003.789	92.75
1004.215	93.75
1004.64	92.75
1005.066	92.75
1005.491	104.75
1005.916	96.75
1006.342	85.75
1006.767	94.75
1007.192	86.75
1007.617	96.75
1008.042	103.75
1008.468	100.75
1008.893	97.75
1009.318	88.75
1009.743	106.75
1010.168	113.75
1010.593	118.75
1011.018	98.75
1011.443	100.75
1011.868	95.75
1012.293	93.75
1012.718	97.75
1013.143	84.75
1013.567	82.75
1013.992	92.75
1014.417	107.75
1014.842	88.75
1015.267	68.75
1015.691	90.75
1016.116	78.75
1016.541	100.75
1016.965	86.75
1017.39	98.75
1017.814	91.75
1018.239	106.75
1018.663	94.75
1019.088	100.75
1019.512	87.75
1019.937	79.75
1020.361	93.75
1020.785	91.75
1021.21	82.75
1021.634	83.75
1022.058	91.75
1022.483	106.75
1022.907	78.75
1023.331	84.75
1023.755	92.75
1024.179	98.75
1024.604	93.75
1025.028	77.75
1025.452	87.75
1025.876	82.75
1026.3	77.75
1026.724	86.75
1027.148	91.75
1027.572	92.75
1027.996	79.75
1028.42	76.75
1028.843	88.75
1029.267	87.75
1029.691	71.75
1030.115	84.75
1030.539	76.75
1030.962	78.75
1031.386	93.75
1031.81	80.75
1032.233	76.75
1032.657	60.75
1033.08	99.75
1033.504	75.75
1033.927	85.75
1034.351	78.75
1034.774	87.75
1035.198	73.75
1035.621	69.75
1036.045	74.75
1036.468	94.75
1036.891	94.75
1037.315	76.75
1037.738	94.75
1038.161	95.75
1038.584	98.75
1039.008	88.75
1039.431	73.75
1039.854	78.75
1040.277	86.75
1040.7	90.75
1041.123	103.75
1041.546	90.75
1041.969	93.75
1042.392	92.75
1042.815	77.75
1043.238	73.75
1043.661	90.75
1044.084	87.75
1044.507	78.75
1044.93	86.75
1045.352	87.75
1045.775	104.75
1046.198	87.75
1046.621	86.75
1047.043	73.75
1047.466	82.75
1047.889	73.75
1048.311	86.75
1048.734	82.75
1049.156	90.75
1049.579	90.75
1050.001	92.75
1050.424	92.75
1050.846	95.75
1051.269	90.75
1051.691	105.75
1052.113	97.75
1052.536	70.75
1052.958	83.75
1053.38	96.75
1053.802	80.75
1054.225	86.75
1054.647	78.75
1055.069	82.75
1055.491	75.75
1055.913	88.75
1056.335	78.75
1056.757	95.75
1057.179	99.75
1057.601	76.75
1058.023	87.75
1058.445	93.75
1058.867	93.75
1059.289	79.75
1059.711	75.75
1060.133	98.75
1060.555	72.75
1060.976	88.75
1061.398	96.75
1061.82	88.75
1062.241	96.75
1062.663	70.75
1063.085	73.75
1063.506	91.75
1063.928	81.75
1064.35	91.75
1064.771	80.75
1065.193	79.75
1065.614	89.75
1066.035	101.75
1066.457	84.75
1066.878	94.75
1067.3	71.75
1067.721	82.75
1068.142	79.75
1068.564	82.75
1068.985	73.75
1069.406	74.75
1069.827	71.75
1070.248	71.75
1070.67	78.75
1071.091	98.75
1071.512	92.75
1071.933	90.75
1072.354	84.75
1072.775	90.75
1073.196	83.75
1073.617	100.75
1074.038	102.75
1074.459	73.75
1074.88	86.75
1075.3	92.75
1075.721	88.75
1076.142	84.75
1076.563	76.75
1076.983	70.75
1077.404	109.75
1077.825	89.75
1078.246	88.75
1078.666	75.75
1079.087	94.75
1079.507	80.75
1079.928	76.75
1080.348	93.75
1080.769	76.75
1081.189	87.75
1081.61	80.75
1082.03	68.75
1082.451	82.75
1082.871	79.75
1083.291	90.75
1083.711	84.75
1084.132	85.75
1084.552	80.75
1084.972	90.75
1085.392	90.75
1085.813	88.75
1086.233	75.75
1086.653	73.75
1087.073	87.75
1087.493	70.75
1087.913	87.75
1088.333	80.75
1088.753	95.75
1089.173	76.75
1089.593	98.75
1090.013	89.75
1090.433	75.75
1090.852	77.75
1091.272	75.75
1091.692	72.75
1092.112	88.75
1092.531	80.75
1092.951	106.75
1093.371	85.75
1093.79	95.75
1094.21	84.75
1094.63	83.75
1095.049	75.75
1095.469	76.75
1095.888	83.75
1096.308	82.75
1096.727	90.75
1097.146	74.75
1097.566	95.75
1097.985	82.75
1098.405	82.75
1098.824	96.75
1099.243	84.75
1099.662	98.75
1100.082	92.75
1100.501	100.75
1100.92	89.75
1101.339	78.75
1101.758	85.75
