Data from 20170802-ORNL-NYSim-Air_HRD10391_10-36-09-572.txt Node
Date: Wed Aug 02 10:36:09 EDT 2017
User: Ender
Spectrometer: HR+D1039
Trigger mode: 0
Integration Time (sec): 3.750000E-3
Scans to average: 1
Electric dark correction enabled: true
Nonlinearity correction enabled: false
Boxcar width: 0
XAxis mode: Wavelengths
Number of Pixels in Spectrum: 2048
>>>>>Begin Spectral Data<<<<<
187.836	4.38
188.309	4.38
188.782	4.38
189.255	-9.62
189.728	-14.62
190.201	-0.62
190.674	-16.62
191.147	8.38
191.619	3.38
192.092	6.38
192.565	2.38
193.038	-9.62
193.511	-0.62
193.984	-14.62
194.456	-17.62
194.929	16.38
195.402	13.38
195.874	29.38
196.347	21.38
196.82	11.38
197.292	21.38
197.765	39.38
198.237	24.38
198.71	45.38
199.182	40.38
199.655	47.38
200.127	49.38
200.6	37.38
201.072	54.38
201.544	56.38
202.017	47.38
202.489	47.38
202.961	56.38
203.433	62.38
203.906	64.38
204.378	77.38
204.85	88.38
205.322	72.38
205.794	81.38
206.266	72.38
206.739	74.38
207.211	86.38
207.683	87.38
208.155	78.38
208.627	83.38
209.099	95.38
209.57	99.38
210.042	87.38
210.514	88.38
210.986	87.38
211.458	82.38
211.93	79.38
212.402	71.38
212.873	87.38
213.345	93.38
213.817	80.38
214.288	69.38
214.76	78.38
215.232	72.38
215.703	83.38
216.175	91.38
216.646	89.38
217.118	69.38
217.589	78.38
218.061	73.38
218.532	66.38
219.004	85.38
219.475	81.38
219.946	73.38
220.418	77.38
220.889	77.38
221.36	79.38
221.832	81.38
222.303	66.38
222.774	84.38
223.245	68.38
223.717	74.38
224.188	70.38
224.659	58.38
225.13	71.38
225.601	68.38
226.072	87.38
226.543	93.38
227.014	74.38
227.485	78.38
227.956	84.38
228.427	87.38
228.898	67.38
229.369	82.38
229.839	81.38
230.31	84.38
230.781	75.38
231.252	80.38
231.722	66.38
232.193	81.38
232.664	72.38
233.135	80.38
233.605	89.38
234.076	72.38
234.546	75.38
235.017	66.38
235.487	74.38
235.958	69.38
236.428	74.38
236.899	75.38
237.369	76.38
237.84	85.38
238.31	86.38
238.78	81.38
239.251	83.38
239.721	79.38
240.191	81.38
240.662	87.38
241.132	101.38
241.602	86.38
242.072	81.38
242.542	82.38
243.013	85.38
243.483	96.38
243.953	76.38
244.423	83.38
244.893	74.38
245.363	90.38
245.833	78.38
246.303	93.38
246.773	90.38
247.243	74.38
247.712	81.38
248.182	94.38
248.652	103.38
249.122	87.38
249.592	88.38
250.061	80.38
250.531	91.38
251.001	82.38
251.471	86.38
251.94	101.38
252.41	78.38
252.879	105.38
253.349	93.38
253.818	88.38
254.288	93.38
254.757	107.38
255.227	100.38
255.696	105.38
256.166	88.38
256.635	99.38
257.105	109.38
257.574	93.38
258.043	116.38
258.513	99.38
258.982	85.38
259.451	98.38
259.92	96.38
260.389	113.38
260.859	92.38
261.328	95.38
261.797	103.38
262.266	102.38
262.735	95.38
263.204	93.38
263.673	87.38
264.142	96.38
264.611	96.38
265.08	91.38
265.549	113.38
266.018	88.38
266.487	85.38
266.955	88.38
267.424	100.38
267.893	104.38
268.362	111.38
268.83	96.38
269.299	88.38
269.768	123.38
270.236	98.38
270.705	107.38
271.174	102.38
271.642	91.38
272.111	103.38
272.579	97.38
273.048	98.38
273.516	104.38
273.985	107.38
274.453	105.38
274.922	93.38
275.39	97.38
275.858	95.38
276.327	119.38
276.795	89.38
277.263	98.38
277.731	121.38
278.2	128.38
278.668	125.38
279.136	105.38
279.604	121.38
280.072	113.38
280.54	107.38
281.008	97.38
281.477	113.38
281.945	115.38
282.413	93.38
282.881	111.38
283.348	94.38
283.816	113.38
284.284	107.38
284.752	111.38
285.22	106.38
285.688	121.38
286.156	120.38
286.623	112.38
287.091	124.38
287.559	112.38
288.026	132.38
288.494	130.38
288.962	109.38
289.429	137.38
289.897	108.38
290.364	116.38
290.832	111.38
291.3	122.38
291.767	119.38
292.234	137.38
292.702	130.38
293.169	116.38
293.637	143.38
294.104	130.38
294.571	134.38
295.039	142.38
295.506	135.38
295.973	124.38
296.44	129.38
296.908	116.38
297.375	117.38
297.842	125.38
298.309	136.38
298.776	113.38
299.243	122.38
299.71	128.38
300.177	127.38
300.644	143.38
301.111	129.38
301.578	124.38
302.045	143.38
302.512	123.38
302.979	142.38
303.446	132.38
303.913	141.38
304.379	162.38
304.846	136.38
305.313	163.38
305.78	150.38
306.246	155.38
306.713	152.38
307.18	142.38
307.646	149.38
308.113	163.38
308.579	157.38
309.046	172.38
309.512	159.38
309.979	139.38
310.445	158.38
310.912	163.38
311.378	145.38
311.845	170.38
312.311	157.38
312.777	158.38
313.244	155.38
313.71	146.38
314.176	157.38
314.642	167.38
315.109	156.38
315.575	147.38
316.041	165.38
316.507	181.38
316.973	149.38
317.439	161.38
317.905	171.38
318.371	170.38
318.837	145.38
319.303	183.38
319.769	170.38
320.235	181.38
320.701	167.38
321.167	179.38
321.633	179.38
322.099	195.38
322.564	164.38
323.03	187.38
323.496	209.38
323.962	167.38
324.427	159.38
324.893	176.38
325.359	180.38
325.824	188.38
326.29	178.38
326.755	172.38
327.221	182.38
327.686	195.38
328.152	167.38
328.617	199.38
329.083	191.38
329.548	194.38
330.014	194.38
330.479	200.38
330.944	222.38
331.41	186.38
331.875	210.38
332.34	185.38
332.805	191.38
333.271	214.38
333.736	192.38
334.201	216.38
334.666	199.38
335.131	198.38
335.596	218.38
336.061	221.38
336.526	212.38
336.991	198.38
337.456	211.38
337.921	203.38
338.386	199.38
338.851	207.38
339.316	203.38
339.781	202.38
340.246	206.38
340.711	197.38
341.175	211.38
341.64	199.38
342.105	214.38
342.569	221.38
343.034	217.38
343.499	235.38
343.963	238.38
344.428	218.38
344.893	248.38
345.357	238.38
345.822	243.38
346.286	226.38
346.751	241.38
347.215	218.38
347.679	228.38
348.144	239.38
348.608	243.38
349.073	253.38
349.537	264.38
350.001	261.38
350.465	272.38
350.93	263.38
351.394	270.38
351.858	275.38
352.322	276.38
352.786	260.38
353.25	273.38
353.715	257.38
354.179	287.38
354.643	304.38
355.107	282.38
355.571	286.38
356.035	293.38
356.498	281.38
356.962	297.38
357.426	297.38
357.89	276.38
358.354	271.38
358.818	290.38
359.281	272.38
359.745	279.38
360.209	275.38
360.673	268.38
361.136	299.38
361.6	285.38
362.064	301.38
362.527	292.38
362.991	321.38
363.454	268.38
363.918	286.38
364.381	300.38
364.845	305.38
365.308	299.38
365.772	301.38
366.235	302.38
366.698	280.38
367.162	304.38
367.625	316.38
368.088	292.38
368.552	317.38
369.015	326.38
369.478	332.38
369.941	304.38
370.404	326.38
370.867	305.38
371.331	332.38
371.794	330.38
372.257	316.38
372.72	321.38
373.183	348.38
373.646	336.38
374.109	311.38
374.572	319.38
375.035	325.38
375.497	347.38
375.96	347.38
376.423	343.38
376.886	336.38
377.349	351.38
377.811	333.38
378.274	321.38
378.737	373.38
379.199	342.38
379.662	361.38
380.125	355.38
380.587	363.38
381.05	364.38
381.512	339.38
381.975	367.38
382.437	377.38
382.9	389.38
383.362	386.38
383.825	363.38
384.287	408.38
384.75	361.38
385.212	386.38
385.674	391.38
386.136	405.38
386.599	383.38
387.061	383.38
387.523	404.38
387.985	388.38
388.447	391.38
388.91	391.38
389.372	395.38
389.834	419.38
390.296	400.38
390.758	407.38
391.22	420.38
391.682	402.38
392.144	389.38
392.606	389.38
393.068	396.38
393.529	429.38
393.991	429.38
394.453	435.38
394.915	423.38
395.377	437.38
395.838	429.38
396.3	404.38
396.762	413.38
397.224	414.38
397.685	417.38
398.147	419.38
398.608	431.38
399.07	449.38
399.531	435.38
399.993	457.38
400.454	449.38
400.916	443.38
401.377	462.38
401.839	446.38
402.3	460.38
402.762	496.38
403.223	547.38
403.684	516.38
404.145	494.38
404.607	481.38
405.068	461.38
405.529	462.38
405.99	487.38
406.451	487.38
406.913	466.38
407.374	456.38
407.835	463.38
408.296	483.38
408.757	479.38
409.218	503.38
409.679	492.38
410.14	495.38
410.601	525.38
411.062	528.38
411.522	531.38
411.983	532.38
412.444	526.38
412.905	551.38
413.366	606.38
413.826	610.38
414.287	665.38
414.748	819.38
415.208	807.38
415.669	728.38
416.13	646.38
416.59	649.38
417.051	676.38
417.511	650.38
417.972	759.38
418.432	799.38
418.893	848.38
419.353	826.38
419.814	653.38
420.274	575.38
420.734	561.38
421.195	591.38
421.655	578.38
422.115	597.38
422.576	596.38
423.036	583.38
423.496	631.38
423.956	631.38
424.416	676.38
424.876	759.38
425.336	761.38
425.797	728.38
426.257	704.38
426.717	687.38
427.177	620.38
427.637	613.38
428.097	603.38
428.556	639.38
429.016	676.38
429.476	667.38
429.936	630.38
430.396	632.38
430.856	627.38
431.315	645.38
431.775	646.38
432.235	690.38
432.694	751.38
433.154	698.38
433.614	710.38
434.073	661.38
434.533	598.38
434.993	611.38
435.452	625.38
435.912	627.38
436.371	639.38
436.83	656.38
437.29	637.38
437.749	605.38
438.209	624.38
438.668	643.38
439.127	647.38
439.587	668.38
440.046	661.38
440.505	641.38
440.964	660.38
441.424	683.38
441.883	687.38
442.342	667.38
442.801	637.38
443.26	688.38
443.719	640.38
444.178	640.38
444.637	668.38
445.096	673.38
445.555	657.38
446.014	668.38
446.473	663.38
446.932	666.38
447.391	648.38
447.849	683.38
448.308	697.38
448.767	659.38
449.226	688.38
449.685	715.38
450.143	721.38
450.602	741.38
451.061	719.38
451.519	702.38
451.978	713.38
452.436	678.38
452.895	668.38
453.353	720.38
453.812	681.38
454.27	687.38
454.729	718.38
455.187	710.38
455.646	684.38
456.104	689.38
456.562	692.38
457.021	720.38
457.479	702.38
457.937	706.38
458.395	732.38
458.854	724.38
459.312	744.38
459.77	744.38
460.228	730.38
460.686	744.38
461.144	752.38
461.602	716.38
462.06	729.38
462.518	751.38
462.976	765.38
463.434	747.38
463.892	767.38
464.35	764.38
464.808	788.38
465.266	814.38
465.724	810.38
466.181	787.38
466.639	789.38
467.097	847.38
467.555	859.38
468.012	859.38
468.47	845.38
468.928	883.38
469.385	915.38
469.843	901.38
470.3	888.38
470.758	921.38
471.215	917.38
471.673	962.38
472.13	966.38
472.588	1015.38
473.045	951.38
473.503	959.38
473.96	1034.38
474.417	1045.38
474.875	1064.38
475.332	1071.38
475.789	1074.38
476.246	1123.38
476.704	1143.38
477.161	1133.38
477.618	1139.38
478.075	1153.38
478.532	1223.38
478.989	1223.38
479.446	1277.38
479.903	1303.38
480.36	1325.38
480.817	1288.38
481.274	1365.38
481.731	1392.38
482.188	1415.38
482.645	1408.38
483.102	1415.38
483.558	1480.38
484.015	1507.38
484.472	1461.38
484.929	1483.38
485.385	1481.38
485.842	1529.38
486.299	1495.38
486.755	1522.38
487.212	1477.38
487.668	1419.38
488.125	1451.38
488.582	1430.38
489.038	1433.38
489.494	1415.38
489.951	1469.38
490.407	1476.38
490.864	1434.38
491.32	1472.38
491.776	1478.38
492.233	1490.38
492.689	1499.38
493.145	1484.38
493.602	1485.38
494.058	1487.38
494.514	1527.38
494.97	1495.38
495.426	1546.38
495.882	1547.38
496.338	1568.38
496.794	1569.38
497.251	1582.38
497.707	1607.38
498.163	1564.38
498.618	1605.38
499.074	1603.38
499.53	1628.38
499.986	1623.38
500.442	1580.38
500.898	1559.38
501.354	1590.38
501.809	1619.38
502.265	1610.38
502.721	1657.38
503.177	1641.38
503.632	1659.38
504.088	1628.38
504.543	1675.38
504.999	1710.38
505.455	1692.38
505.91	1636.38
506.366	1653.38
506.821	1671.38
507.277	1622.38
507.732	1689.38
508.187	1683.38
508.643	1675.38
509.098	1707.38
509.553	1712.38
510.009	1743.38
510.464	1762.38
510.919	1788.38
511.375	1785.38
511.83	1835.38
512.285	1809.38
512.74	1895.38
513.195	1937.38
513.65	1943.38
514.105	1994.38
514.56	1942.38
515.015	1995.38
515.47	2105.38
515.925	2010.38
516.38	1973.38
516.835	2031.38
517.29	1973.38
517.745	2037.38
518.2	2007.38
518.655	1941.38
519.109	1947.38
519.564	1896.38
520.019	1916.38
520.474	1875.38
520.928	1847.38
521.383	1819.38
521.838	1828.38
522.292	1839.38
522.747	1825.38
523.201	1840.38
523.656	1786.38
524.11	1754.38
524.565	1789.38
525.019	1800.38
525.474	1786.38
525.928	1750.38
526.382	1744.38
526.837	1783.38
527.291	1791.38
527.745	1788.38
528.2	1772.38
528.654	1742.38
529.108	1757.38
529.562	1779.38
530.016	1734.38
530.47	1763.38
530.925	1740.38
531.379	1733.38
531.833	1744.38
532.287	1715.38
532.741	1755.38
533.195	1754.38
533.649	1773.38
534.103	1752.38
534.556	1737.38
535.01	1755.38
535.464	1769.38
535.918	1763.38
536.372	1789.38
536.826	1763.38
537.279	1783.38
537.733	1749.38
538.187	1781.38
538.64	1755.38
539.094	1802.38
539.548	1819.38
540.001	1828.38
540.455	1815.38
540.908	1801.38
541.362	1761.38
541.815	1878.38
542.269	1886.38
542.722	1908.38
543.175	1896.38
543.629	1905.38
544.082	1892.38
544.536	1946.38
544.989	1945.38
545.442	1945.38
545.895	1928.38
546.349	1987.38
546.802	1965.38
547.255	1978.38
547.708	1991.38
548.161	2017.38
548.614	1997.38
549.067	2035.38
549.52	2069.38
549.973	2023.38
550.426	1977.38
550.879	1995.38
551.332	1952.38
551.785	1980.38
552.238	1981.38
552.691	2021.38
553.144	2005.38
553.596	2093.38
554.049	2107.38
554.502	2152.38
554.955	2191.38
555.407	2183.38
555.86	2155.38
556.313	2111.38
556.765	2158.38
557.218	2126.38
557.67	2088.38
558.123	2087.38
558.576	2071.38
559.028	2079.38
559.48	2132.38
559.933	2119.38
560.385	2065.38
560.838	1947.38
561.29	1882.38
561.742	1863.38
562.195	1876.38
562.647	1835.38
563.099	1811.38
563.551	1844.38
564.004	1805.38
564.456	1848.38
564.908	1773.38
565.36	1693.38
565.812	1693.38
566.264	1663.38
566.716	1624.38
567.168	1627.38
567.62	1651.38
568.072	1664.38
568.524	1625.38
568.976	1618.38
569.428	1586.38
569.88	1609.38
570.332	1610.38
570.784	1620.38
571.235	1636.38
571.687	1618.38
572.139	1616.38
572.59	1683.38
573.042	1693.38
573.494	1643.38
573.945	1650.38
574.397	1608.38
574.849	1611.38
575.3	1590.38
575.752	1577.38
576.203	1574.38
576.655	1576.38
577.106	1535.38
577.557	1544.38
578.009	1544.38
578.46	1539.38
578.912	1498.38
579.363	1554.38
579.814	1530.38
580.265	1533.38
580.717	1529.38
581.168	1494.38
581.619	1503.38
582.07	1558.38
582.521	1571.38
582.972	1483.38
583.423	1538.38
583.875	1549.38
584.326	1567.38
584.777	1564.38
585.227	1597.38
585.678	1612.38
586.129	1681.38
586.58	1651.38
587.031	1696.38
587.482	1739.38
587.933	1767.38
588.384	1759.38
588.834	1726.38
589.285	1709.38
589.736	1702.38
590.186	1751.38
590.637	1757.38
591.088	1731.38
591.538	1693.38
591.989	1657.38
592.439	1604.38
592.89	1607.38
593.34	1558.38
593.791	1598.38
594.241	1562.38
594.692	1555.38
595.142	1565.38
595.593	1558.38
596.043	1576.38
596.493	1611.38
596.943	1552.38
597.394	1587.38
597.844	1580.38
598.294	1625.38
598.744	1743.38
599.195	1814.38
599.645	1898.38
600.095	2039.38
600.545	2124.38
600.995	2201.38
601.445	2328.38
601.895	2495.38
602.345	2535.38
602.795	2501.38
603.245	2396.38
603.695	2294.38
604.145	2116.38
604.594	2009.38
605.044	1931.38
605.494	1799.38
605.944	1714.38
606.393	1629.38
606.843	1586.38
607.293	1571.38
607.743	1622.38
608.192	1618.38
608.642	1627.38
609.091	1604.38
609.541	1591.38
609.99	1616.38
610.44	1560.38
610.889	1539.38
611.339	1533.38
611.788	1508.38
612.238	1459.38
612.687	1532.38
613.136	1514.38
613.586	1561.38
614.035	1523.38
614.484	1567.38
614.933	1548.38
615.383	1545.38
615.832	1526.38
616.281	1457.38
616.73	1473.38
617.179	1440.38
617.628	1378.38
618.077	1349.38
618.526	1343.38
618.975	1327.38
619.424	1314.38
619.873	1317.38
620.322	1284.38
620.771	1324.38
621.22	1298.38
621.669	1265.38
622.118	1247.38
622.567	1231.38
623.015	1183.38
623.464	1205.38
623.913	1187.38
624.361	1178.38
624.81	1146.38
625.259	1203.38
625.707	1158.38
626.156	1211.38
626.604	1202.38
627.053	1201.38
627.501	1206.38
627.95	1242.38
628.398	1253.38
628.847	1234.38
629.295	1234.38
629.744	1231.38
630.192	1202.38
630.64	1175.38
631.089	1153.38
631.537	1153.38
631.985	1130.38
632.433	1118.38
632.881	1066.38
633.33	1079.38
633.778	1115.38
634.226	1095.38
634.674	1091.38
635.122	1102.38
635.57	1127.38
636.018	1130.38
636.466	1146.38
636.914	1123.38
637.362	1181.38
637.81	1154.38
638.258	1192.38
638.705	1199.38
639.153	1256.38
639.601	1255.38
640.049	1286.38
640.497	1306.38
640.944	1374.38
641.392	1317.38
641.84	1221.38
642.287	1105.38
642.735	1097.38
643.182	1043.38
643.63	1026.38
644.078	1020.38
644.525	1023.38
644.973	1071.38
645.42	1075.38
645.867	1043.38
646.315	1052.38
646.762	1111.38
647.21	1085.38
647.657	1119.38
648.104	1043.38
648.551	1042.38
648.999	1003.38
649.446	1044.38
649.893	1005.38
650.34	1047.38
650.787	1040.38
651.234	1087.38
651.682	1160.38
652.129	1251.38
652.576	1385.38
653.023	1594.38
653.47	1722.38
653.917	1830.38
654.363	1882.38
654.81	1943.38
655.257	2026.38
655.704	1685.38
656.151	1366.38
656.598	1184.38
657.044	1065.38
657.491	1049.38
657.938	1052.38
658.385	971.38
658.831	1004.38
659.278	967.38
659.724	981.38
660.171	958.38
660.618	944.38
661.064	929.38
661.511	935.38
661.957	930.38
662.404	940.38
662.85	960.38
663.296	943.38
663.743	931.38
664.189	976.38
664.635	975.38
665.082	975.38
665.528	955.38
665.974	967.38
666.42	921.38
666.867	947.38
667.313	884.38
667.759	887.38
668.205	855.38
668.651	875.38
669.097	879.38
669.543	869.38
669.989	871.38
670.435	865.38
670.881	917.38
671.327	958.38
671.773	1002.38
672.219	1049.38
672.665	1165.38
673.11	1225.38
673.556	1232.38
674.002	1275.38
674.448	1329.38
674.893	1159.38
675.339	975.38
675.785	893.38
676.23	859.38
676.676	834.38
677.122	811.38
677.567	811.38
678.013	779.38
678.458	781.38
678.904	747.38
679.349	755.38
679.794	741.38
680.24	755.38
680.685	724.38
681.131	755.38
681.576	736.38
682.021	747.38
682.466	759.38
682.912	777.38
683.357	798.38
683.802	838.38
684.247	932.38
684.692	1011.38
685.137	1069.38
685.583	1077.38
686.028	1115.38
686.473	1110.38
686.918	965.38
687.363	889.38
687.807	843.38
688.252	801.38
688.697	731.38
689.142	710.38
689.587	740.38
690.032	726.38
690.477	739.38
690.921	783.38
691.366	839.38
691.811	905.38
692.255	914.38
692.7	1063.38
693.145	1404.38
693.589	2205.38
694.034	2936.38
694.478	3280.38
694.923	3028.38
695.367	3758.38
695.812	3394.38
696.256	1355.38
696.701	850.38
697.145	750.38
697.59	709.38
698.034	705.38
698.478	702.38
698.922	703.38
699.367	745.38
699.811	785.38
700.255	820.38
700.699	872.38
701.143	938.38
701.588	1014.38
702.032	1081.38
702.476	1112.38
702.92	1115.38
703.364	1299.38
703.808	1963.38
704.252	2788.38
704.696	3066.38
705.14	2913.38
705.584	3743.38
706.027	2944.38
706.471	1345.38
706.915	913.38
707.359	798.38
707.803	723.38
708.246	698.38
708.69	701.38
709.134	705.38
709.577	645.38
710.021	676.38
710.465	681.38
710.908	658.38
711.352	684.38
711.795	747.38
712.239	823.38
712.682	855.38
713.126	814.38
713.569	888.38
714.012	856.38
714.456	683.38
714.899	661.38
715.342	636.38
715.786	606.38
716.229	568.38
716.672	549.38
717.115	578.38
717.558	562.38
718.002	581.38
718.445	592.38
718.888	613.38
719.331	652.38
719.774	672.38
720.217	641.38
720.66	642.38
721.103	595.38
721.546	550.38
721.989	545.38
722.432	529.38
722.874	513.38
723.317	564.38
723.76	568.38
724.203	645.38
724.645	839.38
725.088	1045.38
725.531	1115.38
725.974	1116.38
726.416	1183.38
726.859	778.38
727.301	580.38
727.744	545.38
728.187	567.38
728.629	567.38
729.071	588.38
729.514	598.38
729.956	646.38
730.399	611.38
730.841	641.38
731.283	629.38
731.726	596.38
732.168	603.38
732.61	618.38
733.053	692.38
733.495	742.38
733.937	795.38
734.379	942.38
734.821	1034.38
735.263	1545.38
735.705	2689.38
736.148	4490.38
736.59	5257.38
737.032	4971.38
737.474	5315.38
737.916	2458.38
738.357	1131.38
738.799	772.38
739.241	698.38
739.683	668.38
740.125	685.38
740.567	715.38
741.008	721.38
741.45	779.38
741.892	797.38
742.334	796.38
742.775	795.38
743.217	777.38
743.658	675.38
744.1	657.38
744.542	689.38
744.983	763.38
745.425	773.38
745.866	789.38
746.307	733.38
746.749	704.38
747.19	880.38
747.632	1499.38
748.073	3055.38
748.514	4747.38
748.956	5834.38
749.397	7889.38
749.838	6265.38
750.279	5106.38
750.72	3765.38
751.162	1609.38
751.603	867.38
752.044	610.38
752.485	533.38
752.926	492.38
753.367	492.38
753.808	478.38
754.249	481.38
754.69	470.38
755.131	463.38
755.572	437.38
756.013	456.38
756.453	454.38
756.894	477.38
757.335	462.38
757.776	455.38
758.216	454.38
758.657	475.38
759.098	522.38
759.538	593.38
759.979	748.38
760.42	1236.38
760.86	2855.38
761.301	6959.38
761.741	10338.38
762.182	10750.38
762.622	9864.38
763.063	4343.38
763.503	1719.38
763.943	870.38
764.384	647.38
764.824	535.38
765.264	505.38
765.705	453.38
766.145	491.38
766.585	486.38
767.025	421.38
767.465	415.38
767.906	438.38
768.346	431.38
768.786	484.38
769.226	571.38
769.666	1020.38
770.106	2287.38
770.546	4265.38
770.986	4489.38
771.426	4418.38
771.866	2292.38
772.306	1043.38
772.745	569.38
773.185	456.38
773.625	419.38
774.065	400.38
774.505	487.38
774.944	753.38
775.384	1183.38
775.824	1309.38
776.263	1314.38
776.703	900.38
777.142	556.38
777.582	396.38
778.021	352.38
778.461	311.38
778.9	320.38
779.34	306.38
779.779	331.38
780.219	307.38
780.658	302.38
781.097	303.38
781.537	316.38
781.976	295.38
782.415	290.38
782.855	304.38
783.294	287.38
783.733	304.38
784.172	288.38
784.611	296.38
785.05	305.38
785.489	310.38
785.928	276.38
786.367	284.38
786.806	311.38
787.245	339.38
787.684	359.38
788.123	353.38
788.562	361.38
789.001	312.38
789.44	332.38
789.879	320.38
790.317	323.38
790.756	349.38
791.195	355.38
791.634	451.38
792.072	626.38
792.511	1367.38
792.95	3103.38
793.388	3953.38
793.827	3389.38
794.265	1856.38
794.704	917.38
795.142	499.38
795.581	398.38
796.019	355.38
796.458	338.38
796.896	342.38
797.334	367.38
797.773	431.38
798.211	697.38
798.649	1445.38
799.087	2529.38
799.526	3837.38
799.964	4300.38
800.402	3556.38
800.84	1977.38
801.278	1013.38
801.716	538.38
802.154	455.38
802.592	396.38
803.03	392.38
803.468	379.38
803.906	403.38
804.344	405.38
804.782	401.38
805.22	367.38
805.658	384.38
806.096	407.38
806.533	429.38
806.971	491.38
807.409	657.38
807.847	1034.38
808.284	2513.38
808.722	5061.38
809.16	7097.38
809.597	9787.38
810.035	12709.38
810.472	10700.38
810.91	5836.38
811.347	2685.38
811.785	1239.38
812.222	697.38
812.66	509.38
813.097	446.38
813.535	389.38
813.972	368.38
814.409	334.38
814.846	309.38
815.284	308.38
815.721	306.38
816.158	311.38
816.595	374.38
817.032	441.38
817.47	478.38
817.907	405.38
818.344	363.38
818.781	329.38
819.218	339.38
819.655	442.38
820.092	561.38
820.529	590.38
820.966	531.38
821.403	394.38
821.839	352.38
822.276	340.38
822.713	376.38
823.15	389.38
823.587	376.38
824.023	520.38
824.46	1123.38
824.897	2195.38
825.333	2346.38
825.77	1368.38
826.206	785.38
826.643	461.38
827.08	326.38
827.516	268.38
827.953	243.38
828.389	250.38
828.825	244.38
829.262	219.38
829.698	218.38
830.135	202.38
830.571	203.38
831.007	217.38
831.443	191.38
831.88	225.38
832.316	224.38
832.752	212.38
833.188	213.38
833.624	237.38
834.06	229.38
834.497	219.38
834.933	234.38
835.369	236.38
835.805	255.38
836.241	249.38
836.677	259.38
837.112	289.38
837.548	343.38
837.984	421.38
838.42	712.38
838.856	1803.38
839.292	3993.38
839.727	4307.38
840.163	2760.38
840.599	3315.38
841.034	4979.38
841.47	3798.38
841.906	2040.38
842.341	1122.38
842.777	683.38
843.212	589.38
843.648	475.38
844.083	363.38
844.519	286.38
844.954	258.38
845.39	227.38
845.825	229.38
846.261	181.38
846.696	195.38
847.131	183.38
847.566	184.38
848.002	202.38
848.437	177.38
848.872	201.38
849.307	227.38
849.742	301.38
850.177	648.38
850.613	1442.38
851.048	1555.38
851.483	885.38
851.918	560.38
852.353	309.38
852.788	238.38
853.223	158.38
853.657	179.38
854.092	178.38
854.527	177.38
854.962	186.38
855.397	164.38
855.832	174.38
856.266	163.38
856.701	185.38
857.136	167.38
857.57	173.38
858.005	218.38
858.44	197.38
858.874	180.38
859.309	213.38
859.743	170.38
860.178	172.38
860.612	173.38
861.047	227.38
861.481	236.38
861.915	248.38
862.35	216.38
862.784	176.38
863.218	169.38
863.653	178.38
864.087	173.38
864.521	199.38
864.955	283.38
865.39	417.38
865.824	405.38
866.258	414.38
866.692	578.38
867.126	527.38
867.56	363.38
867.994	257.38
868.428	208.38
868.862	192.38
869.296	207.38
869.73	228.38
870.164	229.38
870.598	203.38
871.031	181.38
871.465	151.38
871.899	147.38
872.333	147.38
872.766	141.38
873.2	145.38
873.634	141.38
874.067	137.38
874.501	134.38
874.935	141.38
875.368	150.38
875.802	141.38
876.235	123.38
876.669	118.38
877.102	135.38
877.535	131.38
877.969	121.38
878.402	128.38
878.836	125.38
879.269	143.38
879.702	124.38
880.135	134.38
880.569	123.38
881.002	125.38
881.435	128.38
881.868	123.38
882.301	139.38
882.734	143.38
883.167	123.38
883.601	127.38
884.034	125.38
884.467	115.38
884.899	117.38
885.332	124.38
885.765	119.38
886.198	117.38
886.631	122.38
887.064	105.38
887.497	114.38
887.929	133.38
888.362	113.38
888.795	116.38
889.228	112.38
889.66	122.38
890.093	113.38
890.526	108.38
890.958	97.38
891.391	118.38
891.823	107.38
892.256	118.38
892.688	117.38
893.121	101.38
893.553	125.38
893.985	107.38
894.418	113.38
894.85	111.38
895.282	109.38
895.715	92.38
896.147	113.38
896.579	124.38
897.011	121.38
897.444	123.38
897.876	106.38
898.308	119.38
898.74	124.38
899.172	110.38
899.604	121.38
900.036	109.38
900.468	111.38
900.9	120.38
901.332	126.38
901.764	127.38
902.196	121.38
902.628	120.38
903.06	130.38
903.491	142.38
903.923	127.38
904.355	156.38
904.787	137.38
905.218	143.38
905.65	125.38
906.082	126.38
906.513	118.38
906.945	123.38
907.376	139.38
907.808	121.38
908.239	125.38
908.671	135.38
909.102	141.38
909.534	148.38
909.965	177.38
910.397	340.38
910.828	897.38
911.259	962.38
911.691	605.38
912.122	429.38
912.553	240.38
912.984	159.38
913.415	160.38
913.847	139.38
914.278	134.38
914.709	115.38
915.14	117.38
915.571	97.38
916.002	115.38
916.433	115.38
916.864	112.38
917.295	108.38
917.726	105.38
918.157	127.38
918.587	121.38
919.018	139.38
919.449	124.38
919.88	129.38
920.311	155.38
920.741	213.38
921.172	484.38
921.603	351.38
922.033	294.38
922.464	215.38
922.895	157.38
923.325	128.38
923.756	106.38
924.186	115.38
924.617	129.38
925.047	167.38
925.478	161.38
925.908	120.38
926.338	131.38
926.769	94.38
927.199	120.38
927.629	96.38
928.06	111.38
928.49	99.38
928.92	96.38
929.35	92.38
929.78	106.38
930.21	100.38
930.641	89.38
931.071	109.38
931.501	96.38
931.931	101.38
932.361	97.38
932.791	97.38
933.221	116.38
933.651	115.38
934.08	137.38
934.51	122.38
934.94	109.38
935.37	121.38
935.8	118.38
936.229	95.38
936.659	97.38
937.089	100.38
937.519	105.38
937.948	116.38
938.378	119.38
938.807	95.38
939.237	92.38
939.666	101.38
940.096	85.38
940.525	88.38
940.955	78.38
941.384	105.38
941.814	101.38
942.243	96.38
942.672	86.38
943.102	91.38
943.531	57.38
943.96	97.38
944.39	66.38
944.819	86.38
945.248	87.38
945.677	88.38
946.106	81.38
946.535	84.38
946.964	100.38
947.393	77.38
947.822	84.38
948.251	103.38
948.68	90.38
949.109	91.38
949.538	90.38
949.967	83.38
950.396	89.38
950.825	84.38
951.254	90.38
951.682	89.38
952.111	90.38
952.54	86.38
952.969	81.38
953.397	64.38
953.826	91.38
954.254	75.38
954.683	93.38
955.112	89.38
955.54	82.38
955.969	96.38
956.397	99.38
956.826	90.38
957.254	91.38
957.682	105.38
958.111	80.38
958.539	76.38
958.967	81.38
959.396	95.38
959.824	82.38
960.252	101.38
960.68	96.38
961.109	98.38
961.537	73.38
961.965	89.38
962.393	99.38
962.821	104.38
963.249	83.38
963.677	83.38
964.105	128.38
964.533	201.38
964.961	148.38
965.389	138.38
965.817	111.38
966.245	87.38
966.672	101.38
967.1	84.38
967.528	84.38
967.956	69.38
968.383	92.38
968.811	91.38
969.239	94.38
969.666	81.38
970.094	80.38
970.522	97.38
970.949	70.38
971.377	77.38
971.804	84.38
972.232	89.38
972.659	78.38
973.087	74.38
973.514	90.38
973.941	70.38
974.369	69.38
974.796	76.38
975.223	84.38
975.651	85.38
976.078	80.38
976.505	87.38
976.932	97.38
977.359	131.38
977.786	102.38
978.214	85.38
978.641	83.38
979.068	87.38
979.495	82.38
979.922	83.38
980.349	84.38
980.776	75.38
981.202	86.38
981.629	82.38
982.056	70.38
982.483	59.38
982.91	83.38
983.337	75.38
983.763	97.38
984.19	78.38
984.617	84.38
985.043	81.38
985.47	81.38
985.897	96.38
986.323	83.38
986.75	78.38
987.176	91.38
987.603	68.38
988.029	105.38
988.456	100.38
988.882	94.38
989.308	79.38
989.735	91.38
990.161	83.38
990.587	100.38
991.014	80.38
991.44	86.38
991.866	99.38
992.292	72.38
992.719	91.38
993.145	80.38
993.571	92.38
993.997	89.38
994.423	84.38
994.849	77.38
995.275	81.38
995.701	73.38
996.127	78.38
996.553	70.38
996.979	89.38
997.405	85.38
997.83	87.38
998.256	79.38
998.682	88.38
999.108	78.38
999.534	79.38
999.959	68.38
1000.385	71.38
1000.811	80.38
1001.236	85.38
1001.662	79.38
1002.087	92.38
1002.513	68.38
1002.938	73.38
1003.364	88.38
1003.789	86.38
1004.215	69.38
1004.64	82.38
1005.066	93.38
1005.491	80.38
1005.916	85.38
1006.342	77.38
1006.767	69.38
1007.192	89.38
1007.617	82.38
1008.042	71.38
1008.468	95.38
1008.893	84.38
1009.318	94.38
1009.743	82.38
1010.168	103.38
1010.593	96.38
1011.018	74.38
1011.443	88.38
1011.868	99.38
1012.293	78.38
1012.718	84.38
1013.143	60.38
1013.567	96.38
1013.992	90.38
1014.417	90.38
1014.842	82.38
1015.267	98.38
1015.691	84.38
1016.116	98.38
1016.541	96.38
1016.965	78.38
1017.39	94.38
1017.814	80.38
1018.239	78.38
1018.663	89.38
1019.088	76.38
1019.512	69.38
1019.937	67.38
1020.361	91.38
1020.785	76.38
1021.21	85.38
1021.634	75.38
1022.058	85.38
1022.483	91.38
1022.907	87.38
1023.331	92.38
1023.755	81.38
1024.179	82.38
1024.604	87.38
1025.028	77.38
1025.452	71.38
1025.876	85.38
1026.3	69.38
1026.724	91.38
1027.148	73.38
1027.572	73.38
1027.996	83.38
1028.42	71.38
1028.843	85.38
1029.267	89.38
1029.691	79.38
1030.115	75.38
1030.539	75.38
1030.962	91.38
1031.386	67.38
1031.81	79.38
1032.233	67.38
1032.657	91.38
1033.08	89.38
1033.504	63.38
1033.927	83.38
1034.351	77.38
1034.774	70.38
1035.198	66.38
1035.621	90.38
1036.045	79.38
1036.468	74.38
1036.891	79.38
1037.315	73.38
1037.738	90.38
1038.161	87.38
1038.584	84.38
1039.008	76.38
1039.431	73.38
1039.854	78.38
1040.277	81.38
1040.7	78.38
1041.123	69.38
1041.546	88.38
1041.969	79.38
1042.392	83.38
1042.815	92.38
1043.238	69.38
1043.661	72.38
1044.084	75.38
1044.507	86.38
1044.93	101.38
1045.352	85.38
1045.775	83.38
1046.198	85.38
1046.621	87.38
1047.043	93.38
1047.466	77.38
1047.889	69.38
1048.311	79.38
1048.734	85.38
1049.156	84.38
1049.579	89.38
1050.001	89.38
1050.424	89.38
1050.846	92.38
1051.269	68.38
1051.691	62.38
1052.113	96.38
1052.536	68.38
1052.958	77.38
1053.38	96.38
1053.802	77.38
1054.225	90.38
1054.647	79.38
1055.069	65.38
1055.491	90.38
1055.913	70.38
1056.335	70.38
1056.757	78.38
1057.179	73.38
1057.601	91.38
1058.023	82.38
1058.445	58.38
1058.867	74.38
1059.289	74.38
1059.711	83.38
1060.133	84.38
1060.555	73.38
1060.976	85.38
1061.398	66.38
1061.82	74.38
1062.241	68.38
1062.663	92.38
1063.085	73.38
1063.506	69.38
1063.928	63.38
1064.35	69.38
1064.771	74.38
1065.193	77.38
1065.614	77.38
1066.035	76.38
1066.457	80.38
1066.878	77.38
1067.3	72.38
1067.721	81.38
1068.142	61.38
1068.564	81.38
1068.985	79.38
1069.406	89.38
1069.827	81.38
1070.248	69.38
1070.67	74.38
1071.091	73.38
1071.512	87.38
1071.933	75.38
1072.354	93.38
1072.775	74.38
1073.196	79.38
1073.617	72.38
1074.038	75.38
1074.459	93.38
1074.88	60.38
1075.3	92.38
1075.721	70.38
1076.142	71.38
1076.563	74.38
1076.983	69.38
1077.404	82.38
1077.825	86.38
1078.246	74.38
1078.666	76.38
1079.087	85.38
1079.507	84.38
1079.928	68.38
1080.348	65.38
1080.769	86.38
1081.189	95.38
1081.61	97.38
1082.03	61.38
1082.451	69.38
1082.871	82.38
1083.291	71.38
1083.711	83.38
1084.132	74.38
1084.552	75.38
1084.972	83.38
1085.392	87.38
1085.813	93.38
1086.233	81.38
1086.653	83.38
1087.073	70.38
1087.493	75.38
1087.913	71.38
1088.333	81.38
1088.753	89.38
1089.173	83.38
1089.593	84.38
1090.013	96.38
1090.433	75.38
1090.852	79.38
1091.272	58.38
1091.692	78.38
1092.112	91.38
1092.531	77.38
1092.951	89.38
1093.371	69.38
1093.79	71.38
1094.21	95.38
1094.63	67.38
1095.049	85.38
1095.469	81.38
1095.888	71.38
1096.308	83.38
1096.727	65.38
1097.146	71.38
1097.566	93.38
1097.985	91.38
1098.405	92.38
1098.824	72.38
1099.243	63.38
1099.662	80.38
1100.082	66.38
1100.501	66.38
1100.92	74.38
1101.339	75.38
1101.758	63.38
