Data from 20170802-ORNL-NYSim-Air_HRD10391_10-36-04-566.txt Node
Date: Wed Aug 02 10:36:04 EDT 2017
User: Ender
Spectrometer: HR+D1039
Trigger mode: 0
Integration Time (sec): 3.750000E-3
Scans to average: 1
Electric dark correction enabled: true
Nonlinearity correction enabled: false
Boxcar width: 0
XAxis mode: Wavelengths
Number of Pixels in Spectrum: 2048
>>>>>Begin Spectral Data<<<<<
187.836	-1.31
188.309	-1.31
188.782	-1.31
189.255	9.69
189.728	-3.31
190.201	-1.31
190.674	-13.31
191.147	-11.31
191.619	-12.31
192.092	-0.31
192.565	-3.31
193.038	0.69
193.511	5.69
193.984	-7.31
194.456	-2.31
194.929	6.69
195.402	8.69
195.874	24.69
196.347	17.69
196.82	32.69
197.292	24.69
197.765	39.69
198.237	26.69
198.71	45.69
199.182	45.69
199.655	56.69
200.127	64.69
200.6	57.69
201.072	72.69
201.544	64.69
202.017	64.69
202.489	67.69
202.961	77.69
203.433	64.69
203.906	88.69
204.378	86.69
204.85	73.69
205.322	89.69
205.794	66.69
206.266	87.69
206.739	77.69
207.211	87.69
207.683	83.69
208.155	82.69
208.627	91.69
209.099	75.69
209.57	90.69
210.042	96.69
210.514	90.69
210.986	80.69
211.458	81.69
211.93	96.69
212.402	74.69
212.873	82.69
213.345	90.69
213.817	95.69
214.288	99.69
214.76	92.69
215.232	92.69
215.703	90.69
216.175	86.69
216.646	78.69
217.118	95.69
217.589	84.69
218.061	77.69
218.532	103.69
219.004	63.69
219.475	82.69
219.946	74.69
220.418	77.69
220.889	99.69
221.36	72.69
221.832	71.69
222.303	67.69
222.774	73.69
223.245	74.69
223.717	90.69
224.188	84.69
224.659	68.69
225.13	77.69
225.601	89.69
226.072	94.69
226.543	68.69
227.014	86.69
227.485	88.69
227.956	90.69
228.427	80.69
228.898	90.69
229.369	73.69
229.839	76.69
230.31	79.69
230.781	82.69
231.252	104.69
231.722	86.69
232.193	93.69
232.664	97.69
233.135	92.69
233.605	70.69
234.076	91.69
234.546	76.69
235.017	82.69
235.487	86.69
235.958	93.69
236.428	93.69
236.899	79.69
237.369	90.69
237.84	78.69
238.31	76.69
238.78	99.69
239.251	102.69
239.721	94.69
240.191	101.69
240.662	89.69
241.132	92.69
241.602	92.69
242.072	92.69
242.542	92.69
243.013	90.69
243.483	92.69
243.953	83.69
244.423	82.69
244.893	100.69
245.363	88.69
245.833	90.69
246.303	76.69
246.773	95.69
247.243	110.69
247.712	87.69
248.182	90.69
248.652	78.69
249.122	94.69
249.592	117.69
250.061	90.69
250.531	92.69
251.001	90.69
251.471	81.69
251.94	100.69
252.41	103.69
252.879	102.69
253.349	90.69
253.818	101.69
254.288	99.69
254.757	108.69
255.227	103.69
255.696	80.69
256.166	90.69
256.635	85.69
257.105	105.69
257.574	106.69
258.043	104.69
258.513	100.69
258.982	93.69
259.451	85.69
259.92	104.69
260.389	108.69
260.859	93.69
261.328	107.69
261.797	98.69
262.266	111.69
262.735	112.69
263.204	123.69
263.673	104.69
264.142	103.69
264.611	103.69
265.08	105.69
265.549	101.69
266.018	117.69
266.487	112.69
266.955	100.69
267.424	92.69
267.893	101.69
268.362	100.69
268.83	115.69
269.299	116.69
269.768	107.69
270.236	114.69
270.705	113.69
271.174	117.69
271.642	116.69
272.111	117.69
272.579	113.69
273.048	116.69
273.516	104.69
273.985	104.69
274.453	124.69
274.922	108.69
275.39	116.69
275.858	103.69
276.327	103.69
276.795	112.69
277.263	123.69
277.731	105.69
278.2	117.69
278.668	118.69
279.136	106.69
279.604	114.69
280.072	120.69
280.54	122.69
281.008	123.69
281.477	130.69
281.945	115.69
282.413	128.69
282.881	108.69
283.348	118.69
283.816	114.69
284.284	137.69
284.752	127.69
285.22	123.69
285.688	125.69
286.156	111.69
286.623	117.69
287.091	135.69
287.559	120.69
288.026	115.69
288.494	117.69
288.962	139.69
289.429	122.69
289.897	125.69
290.364	129.69
290.832	133.69
291.3	121.69
291.767	139.69
292.234	130.69
292.702	117.69
293.169	131.69
293.637	136.69
294.104	124.69
294.571	148.69
295.039	147.69
295.506	116.69
295.973	113.69
296.44	127.69
296.908	122.69
297.375	118.69
297.842	153.69
298.309	134.69
298.776	136.69
299.243	139.69
299.71	129.69
300.177	131.69
300.644	128.69
301.111	143.69
301.578	128.69
302.045	151.69
302.512	140.69
302.979	142.69
303.446	152.69
303.913	154.69
304.379	152.69
304.846	145.69
305.313	136.69
305.78	150.69
306.246	163.69
306.713	153.69
307.18	170.69
307.646	156.69
308.113	156.69
308.579	157.69
309.046	164.69
309.512	155.69
309.979	152.69
310.445	158.69
310.912	167.69
311.378	170.69
311.845	172.69
312.311	154.69
312.777	177.69
313.244	177.69
313.71	163.69
314.176	140.69
314.642	178.69
315.109	179.69
315.575	179.69
316.041	156.69
316.507	153.69
316.973	168.69
317.439	159.69
317.905	181.69
318.371	169.69
318.837	170.69
319.303	184.69
319.769	157.69
320.235	170.69
320.701	169.69
321.167	169.69
321.633	175.69
322.099	178.69
322.564	179.69
323.03	190.69
323.496	193.69
323.962	196.69
324.427	184.69
324.893	189.69
325.359	178.69
325.824	187.69
326.29	192.69
326.755	180.69
327.221	180.69
327.686	199.69
328.152	199.69
328.617	205.69
329.083	205.69
329.548	207.69
330.014	197.69
330.479	201.69
330.944	222.69
331.41	200.69
331.875	200.69
332.34	183.69
332.805	205.69
333.271	206.69
333.736	226.69
334.201	207.69
334.666	201.69
335.131	215.69
335.596	229.69
336.061	213.69
336.526	213.69
336.991	222.69
337.456	221.69
337.921	208.69
338.386	216.69
338.851	222.69
339.316	219.69
339.781	219.69
340.246	190.69
340.711	204.69
341.175	210.69
341.64	235.69
342.105	250.69
342.569	230.69
343.034	232.69
343.499	223.69
343.963	238.69
344.428	226.69
344.893	240.69
345.357	224.69
345.822	232.69
346.286	230.69
346.751	229.69
347.215	256.69
347.679	236.69
348.144	247.69
348.608	267.69
349.073	250.69
349.537	257.69
350.001	262.69
350.465	262.69
350.93	262.69
351.394	276.69
351.858	276.69
352.322	272.69
352.786	259.69
353.25	270.69
353.715	275.69
354.179	302.69
354.643	292.69
355.107	302.69
355.571	298.69
356.035	316.69
356.498	271.69
356.962	296.69
357.426	298.69
357.89	309.69
358.354	297.69
358.818	282.69
359.281	275.69
359.745	282.69
360.209	290.69
360.673	299.69
361.136	293.69
361.6	282.69
362.064	280.69
362.527	295.69
362.991	300.69
363.454	309.69
363.918	310.69
364.381	297.69
364.845	287.69
365.308	300.69
365.772	301.69
366.235	294.69
366.698	306.69
367.162	311.69
367.625	300.69
368.088	298.69
368.552	318.69
369.015	302.69
369.478	315.69
369.941	316.69
370.404	315.69
370.867	290.69
371.331	316.69
371.794	322.69
372.257	337.69
372.72	324.69
373.183	312.69
373.646	342.69
374.109	328.69
374.572	344.69
375.035	322.69
375.497	320.69
375.96	346.69
376.423	349.69
376.886	334.69
377.349	362.69
377.811	363.69
378.274	351.69
378.737	357.69
379.199	349.69
379.662	345.69
380.125	346.69
380.587	381.69
381.05	355.69
381.512	356.69
381.975	403.69
382.437	381.69
382.9	385.69
383.362	374.69
383.825	404.69
384.287	389.69
384.75	378.69
385.212	389.69
385.674	382.69
386.136	394.69
386.599	388.69
387.061	398.69
387.523	414.69
387.985	402.69
388.447	394.69
388.91	400.69
389.372	396.69
389.834	392.69
390.296	420.69
390.758	405.69
391.22	394.69
391.682	402.69
392.144	400.69
392.606	435.69
393.068	392.69
393.529	451.69
393.991	450.69
394.453	411.69
394.915	408.69
395.377	412.69
395.838	414.69
396.3	422.69
396.762	430.69
397.224	455.69
397.685	448.69
398.147	435.69
398.608	460.69
399.07	449.69
399.531	432.69
399.993	462.69
400.454	418.69
400.916	465.69
401.377	462.69
401.839	478.69
402.3	469.69
402.762	467.69
403.223	521.69
403.684	522.69
404.145	499.69
404.607	474.69
405.068	454.69
405.529	486.69
405.99	449.69
406.451	474.69
406.913	489.69
407.374	477.69
407.835	469.69
408.296	501.69
408.757	510.69
409.218	526.69
409.679	517.69
410.14	493.69
410.601	546.69
411.062	546.69
411.522	561.69
411.983	550.69
412.444	567.69
412.905	584.69
413.366	580.69
413.826	614.69
414.287	679.69
414.748	832.69
415.208	857.69
415.669	705.69
416.13	642.69
416.59	645.69
417.051	649.69
417.511	684.69
417.972	719.69
418.432	794.69
418.893	891.69
419.353	815.69
419.814	654.69
420.274	600.69
420.734	566.69
421.195	591.69
421.655	590.69
422.115	616.69
422.576	603.69
423.036	598.69
423.496	612.69
423.956	648.69
424.416	663.69
424.876	760.69
425.336	788.69
425.797	744.69
426.257	711.69
426.717	669.69
427.177	589.69
427.637	616.69
428.097	624.69
428.556	640.69
429.016	676.69
429.476	649.69
429.936	630.69
430.396	642.69
430.856	633.69
431.315	650.69
431.775	711.69
432.235	752.69
432.694	771.69
433.154	685.69
433.614	683.69
434.073	678.69
434.533	623.69
434.993	608.69
435.452	625.69
435.912	623.69
436.371	619.69
436.83	631.69
437.29	630.69
437.749	622.69
438.209	624.69
438.668	615.69
439.127	658.69
439.587	678.69
440.046	660.69
440.505	654.69
440.964	678.69
441.424	691.69
441.883	702.69
442.342	674.69
442.801	659.69
443.26	641.69
443.719	679.69
444.178	674.69
444.637	658.69
445.096	670.69
445.555	674.69
446.014	653.69
446.473	674.69
446.932	680.69
447.391	718.69
447.849	716.69
448.308	686.69
448.767	673.69
449.226	709.69
449.685	738.69
450.143	742.69
450.602	751.69
451.061	704.69
451.519	700.69
451.978	675.69
452.436	746.69
452.895	713.69
453.353	685.69
453.812	702.69
454.27	694.69
454.729	687.69
455.187	703.69
455.646	698.69
456.104	716.69
456.562	730.69
457.021	744.69
457.479	694.69
457.937	725.69
458.395	753.69
458.854	748.69
459.312	736.69
459.77	749.69
460.228	771.69
460.686	738.69
461.144	770.69
461.602	725.69
462.06	768.69
462.518	746.69
462.976	750.69
463.434	761.69
463.892	774.69
464.35	776.69
464.808	761.69
465.266	816.69
465.724	807.69
466.181	833.69
466.639	845.69
467.097	858.69
467.555	878.69
468.012	846.69
468.47	864.69
468.928	892.69
469.385	944.69
469.843	912.69
470.3	920.69
470.758	926.69
471.215	930.69
471.673	972.69
472.13	978.69
472.588	1001.69
473.045	998.69
473.503	1014.69
473.96	1039.69
474.417	1067.69
474.875	1064.69
475.332	1127.69
475.789	1113.69
476.246	1111.69
476.704	1130.69
477.161	1151.69
477.618	1158.69
478.075	1181.69
478.532	1226.69
478.989	1275.69
479.446	1298.69
479.903	1316.69
480.36	1323.69
480.817	1314.69
481.274	1297.69
481.731	1376.69
482.188	1421.69
482.645	1417.69
483.102	1415.69
483.558	1473.69
484.015	1518.69
484.472	1502.69
484.929	1514.69
485.385	1513.69
485.842	1512.69
486.299	1505.69
486.755	1506.69
487.212	1512.69
487.668	1468.69
488.125	1472.69
488.582	1412.69
489.038	1433.69
489.494	1465.69
489.951	1446.69
490.407	1452.69
490.864	1505.69
491.32	1466.69
491.776	1452.69
492.233	1503.69
492.689	1477.69
493.145	1474.69
493.602	1432.69
494.058	1508.69
494.514	1500.69
494.97	1509.69
495.426	1542.69
495.882	1558.69
496.338	1594.69
496.794	1556.69
497.251	1633.69
497.707	1609.69
498.163	1605.69
498.618	1581.69
499.074	1610.69
499.53	1658.69
499.986	1626.69
500.442	1621.69
500.898	1596.69
501.354	1631.69
501.809	1657.69
502.265	1638.69
502.721	1592.69
503.177	1664.69
503.632	1652.69
504.088	1656.69
504.543	1672.69
504.999	1734.69
505.455	1680.69
505.91	1682.69
506.366	1696.69
506.821	1676.69
507.277	1708.69
507.732	1679.69
508.187	1681.69
508.643	1665.69
509.098	1734.69
509.553	1701.69
510.009	1747.69
510.464	1771.69
510.919	1830.69
511.375	1791.69
511.83	1820.69
512.285	1870.69
512.74	1932.69
513.195	1968.69
513.65	1908.69
514.105	2038.69
514.56	2056.69
515.015	2028.69
515.47	2072.69
515.925	2046.69
516.38	2040.69
516.835	2085.69
517.29	2013.69
517.745	2041.69
518.2	2013.69
518.655	1955.69
519.109	1954.69
519.564	1898.69
520.019	1888.69
520.474	1873.69
520.928	1876.69
521.383	1844.69
521.838	1827.69
522.292	1825.69
522.747	1827.69
523.201	1810.69
523.656	1810.69
524.11	1787.69
524.565	1796.69
525.019	1793.69
525.474	1748.69
525.928	1770.69
526.382	1777.69
526.837	1748.69
527.291	1798.69
527.745	1774.69
528.2	1743.69
528.654	1766.69
529.108	1766.69
529.562	1769.69
530.016	1764.69
530.47	1786.69
530.925	1755.69
531.379	1750.69
531.833	1772.69
532.287	1759.69
532.741	1798.69
533.195	1765.69
533.649	1784.69
534.103	1803.69
534.556	1721.69
535.01	1752.69
535.464	1787.69
535.918	1755.69
536.372	1786.69
536.826	1738.69
537.279	1783.69
537.733	1727.69
538.187	1774.69
538.64	1758.69
539.094	1773.69
539.548	1819.69
540.001	1807.69
540.455	1822.69
540.908	1825.69
541.362	1851.69
541.815	1856.69
542.269	1907.69
542.722	1880.69
543.175	1896.69
543.629	1957.69
544.082	1937.69
544.536	1937.69
544.989	1957.69
545.442	1994.69
545.895	2022.69
546.349	2026.69
546.802	2034.69
547.255	1973.69
547.708	2034.69
548.161	2032.69
548.614	2058.69
549.067	2067.69
549.52	2055.69
549.973	2003.69
550.426	1962.69
550.879	2016.69
551.332	1955.69
551.785	1969.69
552.238	2050.69
552.691	1992.69
553.144	2060.69
553.596	2110.69
554.049	2082.69
554.502	2126.69
554.955	2216.69
555.407	2233.69
555.86	2212.69
556.313	2150.69
556.765	2145.69
557.218	2138.69
557.67	2135.69
558.123	2102.69
558.576	2082.69
559.028	2098.69
559.48	2155.69
559.933	2108.69
560.385	2036.69
560.838	1982.69
561.29	1918.69
561.742	1902.69
562.195	1846.69
562.647	1870.69
563.099	1811.69
563.551	1851.69
564.004	1914.69
564.456	1867.69
564.908	1834.69
565.36	1779.69
565.812	1709.69
566.264	1675.69
566.716	1716.69
567.168	1662.69
567.62	1682.69
568.072	1650.69
568.524	1607.69
568.976	1650.69
569.428	1640.69
569.88	1630.69
570.332	1634.69
570.784	1659.69
571.235	1635.69
571.687	1637.69
572.139	1697.69
572.59	1655.69
573.042	1647.69
573.494	1678.69
573.945	1648.69
574.397	1627.69
574.849	1614.69
575.3	1599.69
575.752	1586.69
576.203	1597.69
576.655	1606.69
577.106	1576.69
577.557	1590.69
578.009	1532.69
578.46	1542.69
578.912	1522.69
579.363	1556.69
579.814	1543.69
580.265	1538.69
580.717	1562.69
581.168	1535.69
581.619	1552.69
582.07	1550.69
582.521	1563.69
582.972	1570.69
583.423	1566.69
583.875	1559.69
584.326	1584.69
584.777	1602.69
585.227	1625.69
585.678	1648.69
586.129	1639.69
586.58	1680.69
587.031	1733.69
587.482	1785.69
587.933	1755.69
588.384	1768.69
588.834	1761.69
589.285	1728.69
589.736	1766.69
590.186	1786.69
590.637	1762.69
591.088	1724.69
591.538	1667.69
591.989	1650.69
592.439	1656.69
592.89	1635.69
593.34	1632.69
593.791	1556.69
594.241	1562.69
594.692	1565.69
595.142	1569.69
595.593	1561.69
596.043	1625.69
596.493	1604.69
596.943	1552.69
597.394	1617.69
597.844	1633.69
598.294	1688.69
598.744	1751.69
599.195	1786.69
599.645	1926.69
600.095	2077.69
600.545	2111.69
600.995	2225.69
601.445	2316.69
601.895	2481.69
602.345	2522.69
602.795	2542.69
603.245	2412.69
603.695	2298.69
604.145	2197.69
604.594	2042.69
605.044	1912.69
605.494	1811.69
605.944	1690.69
606.393	1645.69
606.843	1616.69
607.293	1595.69
607.743	1609.69
608.192	1608.69
608.642	1641.69
609.091	1636.69
609.541	1588.69
609.99	1617.69
610.44	1654.69
610.889	1590.69
611.339	1548.69
611.788	1530.69
612.238	1555.69
612.687	1553.69
613.136	1620.69
613.586	1580.69
614.035	1579.69
614.484	1601.69
614.933	1562.69
615.383	1531.69
615.832	1528.69
616.281	1495.69
616.73	1443.69
617.179	1440.69
617.628	1375.69
618.077	1418.69
618.526	1342.69
618.975	1362.69
619.424	1355.69
619.873	1355.69
620.322	1311.69
620.771	1366.69
621.22	1330.69
621.669	1292.69
622.118	1240.69
622.567	1260.69
623.015	1243.69
623.464	1214.69
623.913	1210.69
624.361	1211.69
624.81	1196.69
625.259	1212.69
625.707	1211.69
626.156	1221.69
626.604	1201.69
627.053	1209.69
627.501	1231.69
627.95	1222.69
628.398	1263.69
628.847	1238.69
629.295	1242.69
629.744	1193.69
630.192	1204.69
630.64	1154.69
631.089	1176.69
631.537	1175.69
631.985	1154.69
632.433	1125.69
632.881	1101.69
633.33	1100.69
633.778	1129.69
634.226	1119.69
634.674	1090.69
635.122	1116.69
635.57	1136.69
636.018	1152.69
636.466	1192.69
636.914	1135.69
637.362	1174.69
637.81	1168.69
638.258	1218.69
638.705	1224.69
639.153	1286.69
639.601	1248.69
640.049	1307.69
640.497	1344.69
640.944	1379.69
641.392	1327.69
641.84	1200.69
642.287	1162.69
642.735	1106.69
643.182	1109.69
643.63	1089.69
644.078	1114.69
644.525	1106.69
644.973	1086.69
645.42	1063.69
645.867	1047.69
646.315	1088.69
646.762	1095.69
647.21	1039.69
647.657	1096.69
648.104	1083.69
648.551	1042.69
648.999	1046.69
649.446	1055.69
649.893	1023.69
650.34	1033.69
650.787	1077.69
651.234	1107.69
651.682	1177.69
652.129	1218.69
652.576	1427.69
653.023	1664.69
653.47	1802.69
653.917	1869.69
654.363	1914.69
654.81	1982.69
655.257	2102.69
655.704	1737.69
656.151	1382.69
656.598	1203.69
657.044	1085.69
657.491	1028.69
657.938	1008.69
658.385	981.69
658.831	1016.69
659.278	995.69
659.724	999.69
660.171	959.69
660.618	952.69
661.064	913.69
661.511	934.69
661.957	910.69
662.404	925.69
662.85	922.69
663.296	939.69
663.743	957.69
664.189	924.69
664.635	989.69
665.082	964.69
665.528	980.69
665.974	973.69
666.42	935.69
666.867	940.69
667.313	914.69
667.759	873.69
668.205	864.69
668.651	848.69
669.097	880.69
669.543	898.69
669.989	900.69
670.435	909.69
670.881	907.69
671.327	921.69
671.773	988.69
672.219	1108.69
672.665	1184.69
673.11	1246.69
673.556	1269.69
674.002	1294.69
674.448	1356.69
674.893	1163.69
675.339	1034.69
675.785	925.69
676.23	876.69
676.676	830.69
677.122	829.69
677.567	762.69
678.013	778.69
678.458	795.69
678.904	754.69
679.349	745.69
679.794	770.69
680.24	744.69
680.685	770.69
681.131	751.69
681.576	767.69
682.021	752.69
682.466	765.69
682.912	784.69
683.357	792.69
683.802	856.69
684.247	965.69
684.692	1028.69
685.137	1066.69
685.583	1101.69
686.028	1125.69
686.473	1109.69
686.918	1000.69
687.363	868.69
687.807	838.69
688.252	792.69
688.697	773.69
689.142	757.69
689.587	771.69
690.032	755.69
690.477	747.69
690.921	791.69
691.366	866.69
691.811	880.69
692.255	952.69
692.7	1063.69
693.145	1410.69
693.589	2186.69
694.034	2938.69
694.478	3212.69
694.923	3052.69
695.367	3783.69
695.812	3427.69
696.256	1350.69
696.701	872.69
697.145	738.69
697.59	733.69
698.034	718.69
698.478	746.69
698.922	730.69
699.367	700.69
699.811	756.69
700.255	796.69
700.699	910.69
701.143	992.69
701.588	1048.69
702.032	1060.69
702.476	1097.69
702.92	1126.69
703.364	1291.69
703.808	1962.69
704.252	2729.69
704.696	3098.69
705.14	2954.69
705.584	3718.69
706.027	2924.69
706.471	1347.69
706.915	919.69
707.359	808.69
707.803	742.69
708.246	717.69
708.69	693.69
709.134	657.69
709.577	700.69
710.021	672.69
710.465	697.69
710.908	694.69
711.352	682.69
711.795	731.69
712.239	834.69
712.682	832.69
713.126	864.69
713.569	906.69
714.012	842.69
714.456	696.69
714.899	678.69
715.342	610.69
715.786	615.69
716.229	623.69
716.672	565.69
717.115	584.69
717.558	590.69
718.002	606.69
718.445	649.69
718.888	649.69
719.331	654.69
719.774	665.69
720.217	664.69
720.66	628.69
721.103	614.69
721.546	611.69
721.989	573.69
722.432	558.69
722.874	566.69
723.317	552.69
723.76	582.69
724.203	670.69
724.645	849.69
725.088	1081.69
725.531	1157.69
725.974	1094.69
726.416	1201.69
726.859	757.69
727.301	591.69
727.744	525.69
728.187	563.69
728.629	567.69
729.071	611.69
729.514	602.69
729.956	623.69
730.399	643.69
730.841	654.69
731.283	634.69
731.726	604.69
732.168	616.69
732.61	651.69
733.053	680.69
733.495	768.69
733.937	816.69
734.379	912.69
734.821	1096.69
735.263	1565.69
735.705	2736.69
736.148	4530.69
736.59	5337.69
737.032	4962.69
737.474	5385.69
737.916	2471.69
738.357	1170.69
738.799	812.69
739.241	678.69
739.683	681.69
740.125	678.69
740.567	720.69
741.008	762.69
741.45	774.69
741.892	805.69
742.334	805.69
742.775	794.69
743.217	788.69
743.658	699.69
744.1	648.69
744.542	715.69
744.983	789.69
745.425	795.69
745.866	855.69
746.307	735.69
746.749	727.69
747.19	886.69
747.632	1509.69
748.073	3005.69
748.514	4851.69
748.956	5921.69
749.397	7991.69
749.838	6386.69
750.279	5167.69
750.72	3812.69
751.162	1648.69
751.603	874.69
752.044	645.69
752.485	534.69
752.926	519.69
753.367	528.69
753.808	465.69
754.249	492.69
754.69	492.69
755.131	459.69
755.572	472.69
756.013	463.69
756.453	467.69
756.894	464.69
757.335	444.69
757.776	486.69
758.216	470.69
758.657	505.69
759.098	535.69
759.538	614.69
759.979	780.69
760.42	1266.69
760.86	2970.69
761.301	7062.69
761.741	10493.69
762.182	10847.69
762.622	10079.69
763.063	4416.69
763.503	1728.69
763.943	885.69
764.384	680.69
764.824	589.69
765.264	520.69
765.705	497.69
766.145	479.69
766.585	462.69
767.025	451.69
767.465	437.69
767.906	460.69
768.346	466.69
768.786	527.69
769.226	635.69
769.666	1048.69
770.106	2289.69
770.546	4200.69
770.986	4523.69
771.426	4361.69
771.866	2355.69
772.306	1050.69
772.745	587.69
773.185	463.69
773.625	424.69
774.065	419.69
774.505	522.69
774.944	737.69
775.384	1178.69
775.824	1345.69
776.263	1332.69
776.703	934.69
777.142	562.69
777.582	395.69
778.021	341.69
778.461	350.69
778.9	323.69
779.34	314.69
779.779	329.69
780.219	340.69
780.658	326.69
781.097	320.69
781.537	299.69
781.976	285.69
782.415	283.69
782.855	308.69
783.294	286.69
783.733	319.69
784.172	300.69
784.611	289.69
785.05	298.69
785.489	327.69
785.928	341.69
786.367	325.69
786.806	334.69
787.245	355.69
787.684	368.69
788.123	353.69
788.562	360.69
789.001	355.69
789.44	315.69
789.879	316.69
790.317	338.69
790.756	348.69
791.195	371.69
791.634	450.69
792.072	641.69
792.511	1365.69
792.95	3142.69
793.388	3928.69
793.827	3450.69
794.265	1917.69
794.704	905.69
795.142	516.69
795.581	401.69
796.019	346.69
796.458	342.69
796.896	374.69
797.334	396.69
797.773	454.69
798.211	725.69
798.649	1492.69
799.087	2531.69
799.526	3828.69
799.964	4368.69
800.402	3625.69
800.84	2030.69
801.278	1012.69
801.716	574.69
802.154	434.69
802.592	389.69
803.03	394.69
803.468	366.69
803.906	394.69
804.344	396.69
804.782	388.69
805.22	383.69
805.658	383.69
806.096	382.69
806.533	449.69
806.971	499.69
807.409	653.69
807.847	1048.69
808.284	2531.69
808.722	5174.69
809.16	7159.69
809.597	9973.69
810.035	12786.69
810.472	10701.69
810.91	5832.69
811.347	2720.69
811.785	1268.69
812.222	717.69
812.66	542.69
813.097	472.69
813.535	397.69
813.972	378.69
814.409	359.69
814.846	333.69
815.284	314.69
815.721	322.69
816.158	324.69
816.595	397.69
817.032	460.69
817.47	469.69
817.907	401.69
818.344	362.69
818.781	330.69
819.218	353.69
819.655	464.69
820.092	557.69
820.529	611.69
820.966	528.69
821.403	423.69
821.839	352.69
822.276	316.69
822.713	376.69
823.15	386.69
823.587	387.69
824.023	518.69
824.46	1150.69
824.897	2245.69
825.333	2390.69
825.77	1386.69
826.206	771.69
826.643	453.69
827.08	326.69
827.516	284.69
827.953	269.69
828.389	254.69
828.825	258.69
829.262	249.69
829.698	226.69
830.135	240.69
830.571	224.69
831.007	216.69
831.443	213.69
831.88	217.69
832.316	219.69
832.752	215.69
833.188	248.69
833.624	225.69
834.06	235.69
834.497	245.69
834.933	235.69
835.369	232.69
835.805	261.69
836.241	266.69
836.677	276.69
837.112	312.69
837.548	365.69
837.984	426.69
838.42	708.69
838.856	1876.69
839.292	4047.69
839.727	4298.69
840.163	2800.69
840.599	3370.69
841.034	5026.69
841.47	3816.69
841.906	2071.69
842.341	1126.69
842.777	678.69
843.212	607.69
843.648	467.69
844.083	365.69
844.519	315.69
844.954	246.69
845.39	209.69
845.825	239.69
846.261	204.69
846.696	206.69
847.131	196.69
847.566	206.69
848.002	214.69
848.437	230.69
848.872	201.69
849.307	246.69
849.742	320.69
850.177	700.69
850.613	1474.69
851.048	1609.69
851.483	877.69
851.918	540.69
852.353	339.69
852.788	221.69
853.223	200.69
853.657	201.69
854.092	214.69
854.527	183.69
854.962	172.69
855.397	189.69
855.832	167.69
856.266	168.69
856.701	192.69
857.136	197.69
857.57	197.69
858.005	218.69
858.44	208.69
858.874	200.69
859.309	201.69
859.743	202.69
860.178	183.69
860.612	192.69
861.047	218.69
861.481	256.69
861.915	250.69
862.35	208.69
862.784	197.69
863.218	175.69
863.653	173.69
864.087	191.69
864.521	207.69
864.955	280.69
865.39	440.69
865.824	430.69
866.258	422.69
866.692	571.69
867.126	516.69
867.56	374.69
867.994	290.69
868.428	226.69
868.862	225.69
869.296	224.69
869.73	249.69
870.164	242.69
870.598	214.69
871.031	186.69
871.465	157.69
871.899	149.69
872.333	160.69
872.766	148.69
873.2	141.69
873.634	143.69
874.067	138.69
874.501	159.69
874.935	143.69
875.368	165.69
875.802	176.69
876.235	150.69
876.669	149.69
877.102	152.69
877.535	155.69
877.969	131.69
878.402	143.69
878.836	138.69
879.269	137.69
879.702	152.69
880.135	139.69
880.569	134.69
881.002	131.69
881.435	134.69
881.868	136.69
882.301	140.69
882.734	134.69
883.167	142.69
883.601	121.69
884.034	141.69
884.467	129.69
884.899	131.69
885.332	124.69
885.765	114.69
886.198	132.69
886.631	134.69
887.064	134.69
887.497	119.69
887.929	123.69
888.362	119.69
888.795	126.69
889.228	132.69
889.66	112.69
890.093	123.69
890.526	118.69
890.958	124.69
891.391	121.69
891.823	119.69
892.256	106.69
892.688	134.69
893.121	121.69
893.553	118.69
893.985	115.69
894.418	128.69
894.85	134.69
895.282	124.69
895.715	108.69
896.147	129.69
896.579	112.69
897.011	138.69
897.444	112.69
897.876	114.69
898.308	126.69
898.74	112.69
899.172	127.69
899.604	112.69
900.036	126.69
900.468	127.69
900.9	113.69
901.332	127.69
901.764	134.69
902.196	114.69
902.628	129.69
903.06	134.69
903.491	164.69
903.923	147.69
904.355	141.69
904.787	156.69
905.218	132.69
905.65	138.69
906.082	150.69
906.513	128.69
906.945	116.69
907.376	131.69
907.808	126.69
908.239	139.69
908.671	147.69
909.102	156.69
909.534	162.69
909.965	221.69
910.397	350.69
910.828	926.69
911.259	1003.69
911.691	615.69
912.122	430.69
912.553	248.69
912.984	161.69
913.415	160.69
913.847	146.69
914.278	122.69
914.709	130.69
915.14	124.69
915.571	125.69
916.002	153.69
916.433	143.69
916.864	117.69
917.295	117.69
917.726	139.69
918.157	138.69
918.587	137.69
919.018	141.69
919.449	139.69
919.88	130.69
920.311	171.69
920.741	250.69
921.172	494.69
921.603	370.69
922.033	277.69
922.464	212.69
922.895	143.69
923.325	131.69
923.756	131.69
924.186	138.69
924.617	147.69
925.047	145.69
925.478	157.69
925.908	151.69
926.338	125.69
926.769	131.69
927.199	132.69
927.629	127.69
928.06	118.69
928.49	128.69
928.92	112.69
929.35	130.69
929.78	118.69
930.21	122.69
930.641	98.69
931.071	123.69
931.501	104.69
931.931	110.69
932.361	110.69
932.791	123.69
933.221	108.69
933.651	102.69
934.08	126.69
934.51	131.69
934.94	117.69
935.37	122.69
935.8	110.69
936.229	126.69
936.659	94.69
937.089	123.69
937.519	140.69
937.948	124.69
938.378	135.69
938.807	108.69
939.237	103.69
939.666	118.69
940.096	125.69
940.525	88.69
940.955	122.69
941.384	84.69
941.814	98.69
942.243	110.69
942.672	99.69
943.102	88.69
943.531	93.69
943.96	102.69
944.39	90.69
944.819	103.69
945.248	87.69
945.677	95.69
946.106	97.69
946.535	101.69
946.964	114.69
947.393	92.69
947.822	100.69
948.251	101.69
948.68	102.69
949.109	109.69
949.538	107.69
949.967	88.69
950.396	94.69
950.825	102.69
951.254	102.69
951.682	88.69
952.111	81.69
952.54	91.69
952.969	100.69
953.397	88.69
953.826	98.69
954.254	83.69
954.683	102.69
955.112	96.69
955.54	98.69
955.969	104.69
956.397	99.69
956.826	104.69
957.254	98.69
957.682	81.69
958.111	101.69
958.539	91.69
958.967	93.69
959.396	92.69
959.824	86.69
960.252	98.69
960.68	92.69
961.109	103.69
961.537	108.69
961.965	101.69
962.393	98.69
962.821	100.69
963.249	89.69
963.677	99.69
964.105	127.69
964.533	225.69
964.961	167.69
965.389	156.69
965.817	114.69
966.245	108.69
966.672	98.69
967.1	90.69
967.528	102.69
967.956	98.69
968.383	98.69
968.811	97.69
969.239	120.69
969.666	97.69
970.094	100.69
970.522	106.69
970.949	92.69
971.377	90.69
971.804	96.69
972.232	100.69
972.659	102.69
973.087	93.69
973.514	95.69
973.941	99.69
974.369	91.69
974.796	62.69
975.223	96.69
975.651	100.69
976.078	102.69
976.505	81.69
976.932	95.69
977.359	128.69
977.786	120.69
978.214	127.69
978.641	106.69
979.068	76.69
979.495	80.69
979.922	93.69
980.349	99.69
980.776	74.69
981.202	106.69
981.629	84.69
982.056	100.69
982.483	96.69
982.91	88.69
983.337	82.69
983.763	99.69
984.19	97.69
984.617	99.69
985.043	104.69
985.47	104.69
985.897	86.69
986.323	80.69
986.75	92.69
987.176	98.69
987.603	77.69
988.029	78.69
988.456	92.69
988.882	100.69
989.308	86.69
989.735	76.69
990.161	81.69
990.587	92.69
991.014	91.69
991.44	81.69
991.866	105.69
992.292	88.69
992.719	87.69
993.145	95.69
993.571	96.69
993.997	90.69
994.423	100.69
994.849	108.69
995.275	106.69
995.701	75.69
996.127	96.69
996.553	85.69
996.979	91.69
997.405	88.69
997.83	84.69
998.256	97.69
998.682	99.69
999.108	81.69
999.534	102.69
999.959	86.69
1000.385	82.69
1000.811	85.69
1001.236	91.69
1001.662	98.69
1002.087	80.69
1002.513	78.69
1002.938	89.69
1003.364	108.69
1003.789	96.69
1004.215	92.69
1004.64	98.69
1005.066	84.69
1005.491	86.69
1005.916	87.69
1006.342	82.69
1006.767	84.69
1007.192	99.69
1007.617	82.69
1008.042	96.69
1008.468	86.69
1008.893	81.69
1009.318	95.69
1009.743	100.69
1010.168	110.69
1010.593	120.69
1011.018	95.69
1011.443	95.69
1011.868	95.69
1012.293	97.69
1012.718	88.69
1013.143	86.69
1013.567	94.69
1013.992	100.69
1014.417	111.69
1014.842	82.69
1015.267	79.69
1015.691	81.69
1016.116	92.69
1016.541	83.69
1016.965	90.69
1017.39	94.69
1017.814	96.69
1018.239	82.69
1018.663	84.69
1019.088	92.69
1019.512	88.69
1019.937	112.69
1020.361	82.69
1020.785	80.69
1021.21	97.69
1021.634	84.69
1022.058	86.69
1022.483	82.69
1022.907	88.69
1023.331	71.69
1023.755	84.69
1024.179	90.69
1024.604	74.69
1025.028	67.69
1025.452	80.69
1025.876	95.69
1026.3	73.69
1026.724	75.69
1027.148	88.69
1027.572	89.69
1027.996	84.69
1028.42	81.69
1028.843	88.69
1029.267	67.69
1029.691	83.69
1030.115	97.69
1030.539	94.69
1030.962	81.69
1031.386	83.69
1031.81	98.69
1032.233	68.69
1032.657	82.69
1033.08	90.69
1033.504	89.69
1033.927	86.69
1034.351	99.69
1034.774	91.69
1035.198	95.69
1035.621	88.69
1036.045	81.69
1036.468	98.69
1036.891	83.69
1037.315	77.69
1037.738	91.69
1038.161	98.69
1038.584	114.69
1039.008	96.69
1039.431	90.69
1039.854	96.69
1040.277	88.69
1040.7	80.69
1041.123	57.69
1041.546	98.69
1041.969	94.69
1042.392	91.69
1042.815	106.69
1043.238	90.69
1043.661	90.69
1044.084	92.69
1044.507	79.69
1044.93	70.69
1045.352	91.69
1045.775	90.69
1046.198	95.69
1046.621	77.69
1047.043	94.69
1047.466	74.69
1047.889	72.69
1048.311	86.69
1048.734	92.69
1049.156	90.69
1049.579	83.69
1050.001	93.69
1050.424	80.69
1050.846	70.69
1051.269	100.69
1051.691	89.69
1052.113	80.69
1052.536	86.69
1052.958	88.69
1053.38	97.69
1053.802	94.69
1054.225	86.69
1054.647	88.69
1055.069	86.69
1055.491	67.69
1055.913	88.69
1056.335	80.69
1056.757	99.69
1057.179	95.69
1057.601	93.69
1058.023	97.69
1058.445	92.69
1058.867	93.69
1059.289	76.69
1059.711	91.69
1060.133	90.69
1060.555	88.69
1060.976	81.69
1061.398	90.69
1061.82	103.69
1062.241	72.69
1062.663	108.69
1063.085	82.69
1063.506	100.69
1063.928	91.69
1064.35	76.69
1064.771	104.69
1065.193	71.69
1065.614	65.69
1066.035	90.69
1066.457	95.69
1066.878	96.69
1067.3	82.69
1067.721	89.69
1068.142	90.69
1068.564	69.69
1068.985	86.69
1069.406	97.69
1069.827	94.69
1070.248	87.69
1070.67	83.69
1071.091	78.69
1071.512	85.69
1071.933	72.69
1072.354	82.69
1072.775	73.69
1073.196	89.69
1073.617	80.69
1074.038	88.69
1074.459	90.69
1074.88	82.69
1075.3	83.69
1075.721	101.69
1076.142	87.69
1076.563	90.69
1076.983	82.69
1077.404	87.69
1077.825	95.69
1078.246	84.69
1078.666	83.69
1079.087	84.69
1079.507	74.69
1079.928	95.69
1080.348	84.69
1080.769	89.69
1081.189	77.69
1081.61	80.69
1082.03	92.69
1082.451	73.69
1082.871	82.69
1083.291	86.69
1083.711	74.69
1084.132	78.69
1084.552	90.69
1084.972	82.69
1085.392	86.69
1085.813	89.69
1086.233	84.69
1086.653	91.69
1087.073	83.69
1087.493	73.69
1087.913	79.69
1088.333	68.69
1088.753	87.69
1089.173	88.69
1089.593	85.69
1090.013	88.69
1090.433	81.69
1090.852	80.69
1091.272	83.69
1091.692	88.69
1092.112	96.69
1092.531	99.69
1092.951	87.69
1093.371	82.69
1093.79	91.69
1094.21	76.69
1094.63	101.69
1095.049	81.69
1095.469	77.69
1095.888	84.69
1096.308	90.69
1096.727	78.69
1097.146	72.69
1097.566	80.69
1097.985	100.69
1098.405	77.69
1098.824	89.69
1099.243	89.69
1099.662	74.69
1100.082	85.69
1100.501	88.69
1100.92	72.69
1101.339	68.69
1101.758	82.69
