Data from 20170802-ORNL-NYSim-Air_HRD10391_10-36-11-575.txt Node
Date: Wed Aug 02 10:36:11 EDT 2017
User: Ender
Spectrometer: HR+D1039
Trigger mode: 0
Integration Time (sec): 3.750000E-3
Scans to average: 1
Electric dark correction enabled: true
Nonlinearity correction enabled: false
Boxcar width: 0
XAxis mode: Wavelengths
Number of Pixels in Spectrum: 2048
>>>>>Begin Spectral Data<<<<<
187.836	3.56
188.309	3.56
188.782	3.56
189.255	-4.44
189.728	11.56
190.201	1.56
190.674	-15.44
191.147	-20.44
191.619	-14.44
192.092	-5.44
192.565	-4.44
193.038	6.56
193.511	-5.44
193.984	4.56
194.456	13.56
194.929	1.56
195.402	7.56
195.874	19.56
196.347	20.56
196.82	27.56
197.292	31.56
197.765	42.56
198.237	48.56
198.71	40.56
199.182	49.56
199.655	50.56
200.127	43.56
200.6	54.56
201.072	64.56
201.544	55.56
202.017	53.56
202.489	74.56
202.961	60.56
203.433	66.56
203.906	70.56
204.378	81.56
204.85	73.56
205.322	71.56
205.794	70.56
206.266	81.56
206.739	83.56
207.211	77.56
207.683	89.56
208.155	86.56
208.627	92.56
209.099	94.56
209.57	74.56
210.042	78.56
210.514	101.56
210.986	76.56
211.458	98.56
211.93	83.56
212.402	88.56
212.873	71.56
213.345	87.56
213.817	95.56
214.288	77.56
214.76	98.56
215.232	103.56
215.703	90.56
216.175	90.56
216.646	76.56
217.118	76.56
217.589	91.56
218.061	84.56
218.532	69.56
219.004	80.56
219.475	75.56
219.946	84.56
220.418	92.56
220.889	78.56
221.36	87.56
221.832	69.56
222.303	82.56
222.774	70.56
223.245	72.56
223.717	73.56
224.188	67.56
224.659	60.56
225.13	79.56
225.601	89.56
226.072	90.56
226.543	78.56
227.014	62.56
227.485	103.56
227.956	81.56
228.427	83.56
228.898	79.56
229.369	88.56
229.839	92.56
230.31	73.56
230.781	85.56
231.252	74.56
231.722	90.56
232.193	84.56
232.664	72.56
233.135	80.56
233.605	101.56
234.076	76.56
234.546	75.56
235.017	83.56
235.487	86.56
235.958	102.56
236.428	81.56
236.899	88.56
237.369	89.56
237.84	84.56
238.31	68.56
238.78	83.56
239.251	84.56
239.721	103.56
240.191	92.56
240.662	83.56
241.132	90.56
241.602	104.56
242.072	92.56
242.542	79.56
243.013	94.56
243.483	94.56
243.953	84.56
244.423	83.56
244.893	60.56
245.363	96.56
245.833	97.56
246.303	88.56
246.773	75.56
247.243	85.56
247.712	92.56
248.182	67.56
248.652	113.56
249.122	80.56
249.592	100.56
250.061	106.56
250.531	103.56
251.001	91.56
251.471	97.56
251.94	98.56
252.41	101.56
252.879	103.56
253.349	92.56
253.818	81.56
254.288	93.56
254.757	96.56
255.227	106.56
255.696	102.56
256.166	92.56
256.635	107.56
257.105	104.56
257.574	99.56
258.043	92.56
258.513	96.56
258.982	99.56
259.451	112.56
259.92	115.56
260.389	112.56
260.859	101.56
261.328	97.56
261.797	114.56
262.266	102.56
262.735	100.56
263.204	94.56
263.673	119.56
264.142	104.56
264.611	110.56
265.08	122.56
265.549	92.56
266.018	99.56
266.487	101.56
266.955	108.56
267.424	101.56
267.893	113.56
268.362	102.56
268.83	114.56
269.299	120.56
269.768	98.56
270.236	122.56
270.705	111.56
271.174	123.56
271.642	98.56
272.111	109.56
272.579	109.56
273.048	117.56
273.516	106.56
273.985	116.56
274.453	117.56
274.922	115.56
275.39	106.56
275.858	108.56
276.327	123.56
276.795	122.56
277.263	114.56
277.731	127.56
278.2	125.56
278.668	120.56
279.136	104.56
279.604	104.56
280.072	117.56
280.54	130.56
281.008	121.56
281.477	118.56
281.945	125.56
282.413	116.56
282.881	126.56
283.348	133.56
283.816	137.56
284.284	120.56
284.752	128.56
285.22	134.56
285.688	120.56
286.156	134.56
286.623	122.56
287.091	112.56
287.559	122.56
288.026	134.56
288.494	124.56
288.962	149.56
289.429	130.56
289.897	140.56
290.364	124.56
290.832	124.56
291.3	127.56
291.767	133.56
292.234	142.56
292.702	135.56
293.169	113.56
293.637	131.56
294.104	138.56
294.571	128.56
295.039	152.56
295.506	125.56
295.973	135.56
296.44	134.56
296.908	145.56
297.375	132.56
297.842	156.56
298.309	128.56
298.776	142.56
299.243	143.56
299.71	156.56
300.177	137.56
300.644	141.56
301.111	125.56
301.578	139.56
302.045	163.56
302.512	155.56
302.979	156.56
303.446	131.56
303.913	151.56
304.379	154.56
304.846	156.56
305.313	160.56
305.78	162.56
306.246	174.56
306.713	173.56
307.18	144.56
307.646	168.56
308.113	168.56
308.579	168.56
309.046	165.56
309.512	154.56
309.979	163.56
310.445	162.56
310.912	161.56
311.378	157.56
311.845	161.56
312.311	159.56
312.777	182.56
313.244	166.56
313.71	178.56
314.176	185.56
314.642	170.56
315.109	181.56
315.575	182.56
316.041	190.56
316.507	174.56
316.973	182.56
317.439	192.56
317.905	191.56
318.371	188.56
318.837	186.56
319.303	194.56
319.769	158.56
320.235	186.56
320.701	195.56
321.167	183.56
321.633	183.56
322.099	165.56
322.564	181.56
323.03	186.56
323.496	192.56
323.962	192.56
324.427	184.56
324.893	179.56
325.359	182.56
325.824	186.56
326.29	207.56
326.755	197.56
327.221	173.56
327.686	200.56
328.152	213.56
328.617	192.56
329.083	198.56
329.548	210.56
330.014	207.56
330.479	209.56
330.944	190.56
331.41	195.56
331.875	215.56
332.34	198.56
332.805	214.56
333.271	214.56
333.736	184.56
334.201	218.56
334.666	205.56
335.131	222.56
335.596	211.56
336.061	208.56
336.526	223.56
336.991	208.56
337.456	218.56
337.921	210.56
338.386	221.56
338.851	223.56
339.316	195.56
339.781	228.56
340.246	224.56
340.711	212.56
341.175	203.56
341.64	224.56
342.105	250.56
342.569	236.56
343.034	243.56
343.499	227.56
343.963	236.56
344.428	244.56
344.893	228.56
345.357	245.56
345.822	246.56
346.286	257.56
346.751	254.56
347.215	266.56
347.679	272.56
348.144	260.56
348.608	272.56
349.073	267.56
349.537	266.56
350.001	264.56
350.465	280.56
350.93	299.56
351.394	268.56
351.858	290.56
352.322	276.56
352.786	278.56
353.25	278.56
353.715	295.56
354.179	299.56
354.643	296.56
355.107	298.56
355.571	312.56
356.035	286.56
356.498	315.56
356.962	309.56
357.426	300.56
357.89	311.56
358.354	299.56
358.818	295.56
359.281	261.56
359.745	303.56
360.209	302.56
360.673	306.56
361.136	307.56
361.6	315.56
362.064	312.56
362.527	316.56
362.991	290.56
363.454	284.56
363.918	298.56
364.381	302.56
364.845	314.56
365.308	312.56
365.772	305.56
366.235	307.56
366.698	300.56
367.162	314.56
367.625	319.56
368.088	345.56
368.552	318.56
369.015	325.56
369.478	306.56
369.941	324.56
370.404	348.56
370.867	337.56
371.331	333.56
371.794	345.56
372.257	353.56
372.72	333.56
373.183	330.56
373.646	344.56
374.109	342.56
374.572	352.56
375.035	358.56
375.497	357.56
375.96	359.56
376.423	358.56
376.886	355.56
377.349	362.56
377.811	373.56
378.274	376.56
378.737	360.56
379.199	370.56
379.662	360.56
380.125	368.56
380.587	399.56
381.05	383.56
381.512	374.56
381.975	415.56
382.437	396.56
382.9	416.56
383.362	401.56
383.825	414.56
384.287	412.56
384.75	404.56
385.212	397.56
385.674	370.56
386.136	416.56
386.599	412.56
387.061	420.56
387.523	407.56
387.985	406.56
388.447	435.56
388.91	400.56
389.372	404.56
389.834	415.56
390.296	402.56
390.758	446.56
391.22	395.56
391.682	430.56
392.144	433.56
392.606	437.56
393.068	418.56
393.529	469.56
393.991	472.56
394.453	472.56
394.915	424.56
395.377	417.56
395.838	456.56
396.3	462.56
396.762	461.56
397.224	438.56
397.685	417.56
398.147	458.56
398.608	461.56
399.07	435.56
399.531	451.56
399.993	497.56
400.454	494.56
400.916	471.56
401.377	470.56
401.839	484.56
402.3	498.56
402.762	516.56
403.223	539.56
403.684	540.56
404.145	511.56
404.607	490.56
405.068	506.56
405.529	507.56
405.99	509.56
406.451	518.56
406.913	492.56
407.374	502.56
407.835	498.56
408.296	507.56
408.757	516.56
409.218	514.56
409.679	527.56
410.14	534.56
410.601	548.56
411.062	562.56
411.522	586.56
411.983	573.56
412.444	585.56
412.905	605.56
413.366	610.56
413.826	650.56
414.287	723.56
414.748	875.56
415.208	899.56
415.669	754.56
416.13	667.56
416.59	649.56
417.051	703.56
417.511	718.56
417.972	805.56
418.432	826.56
418.893	902.56
419.353	899.56
419.814	656.56
420.274	611.56
420.734	592.56
421.195	645.56
421.655	642.56
422.115	604.56
422.576	619.56
423.036	626.56
423.496	670.56
423.956	654.56
424.416	723.56
424.876	784.56
425.336	763.56
425.797	778.56
426.257	764.56
426.717	735.56
427.177	632.56
427.637	665.56
428.097	656.56
428.556	669.56
429.016	706.56
429.476	691.56
429.936	657.56
430.396	656.56
430.856	657.56
431.315	669.56
431.775	713.56
432.235	781.56
432.694	780.56
433.154	714.56
433.614	734.56
434.073	750.56
434.533	663.56
434.993	622.56
435.452	648.56
435.912	660.56
436.371	669.56
436.83	682.56
437.29	662.56
437.749	648.56
438.209	664.56
438.668	650.56
439.127	722.56
439.587	666.56
440.046	694.56
440.505	687.56
440.964	723.56
441.424	690.56
441.883	728.56
442.342	691.56
442.801	676.56
443.26	677.56
443.719	687.56
444.178	688.56
444.637	675.56
445.096	674.56
445.555	686.56
446.014	689.56
446.473	694.56
446.932	700.56
447.391	717.56
447.849	742.56
448.308	737.56
448.767	744.56
449.226	767.56
449.685	746.56
450.143	755.56
450.602	775.56
451.061	755.56
451.519	748.56
451.978	718.56
452.436	723.56
452.895	726.56
453.353	724.56
453.812	712.56
454.27	740.56
454.729	721.56
455.187	726.56
455.646	748.56
456.104	743.56
456.562	736.56
457.021	761.56
457.479	744.56
457.937	765.56
458.395	773.56
458.854	753.56
459.312	772.56
459.77	776.56
460.228	786.56
460.686	760.56
461.144	783.56
461.602	780.56
462.06	800.56
462.518	810.56
462.976	775.56
463.434	802.56
463.892	782.56
464.35	814.56
464.808	822.56
465.266	843.56
465.724	829.56
466.181	841.56
466.639	839.56
467.097	867.56
467.555	909.56
468.012	886.56
468.47	905.56
468.928	920.56
469.385	944.56
469.843	1002.56
470.3	933.56
470.758	947.56
471.215	987.56
471.673	1004.56
472.13	1012.56
472.588	1035.56
473.045	1046.56
473.503	1060.56
473.96	1088.56
474.417	1087.56
474.875	1122.56
475.332	1185.56
475.789	1146.56
476.246	1178.56
476.704	1211.56
477.161	1171.56
477.618	1213.56
478.075	1234.56
478.532	1274.56
478.989	1292.56
479.446	1353.56
479.903	1346.56
480.36	1359.56
480.817	1386.56
481.274	1381.56
481.731	1413.56
482.188	1446.56
482.645	1452.56
483.102	1502.56
483.558	1491.56
484.015	1533.56
484.472	1559.56
484.929	1546.56
485.385	1591.56
485.842	1578.56
486.299	1554.56
486.755	1596.56
487.212	1542.56
487.668	1525.56
488.125	1531.56
488.582	1470.56
489.038	1482.56
489.494	1516.56
489.951	1521.56
490.407	1554.56
490.864	1517.56
491.32	1524.56
491.776	1555.56
492.233	1543.56
492.689	1543.56
493.145	1503.56
493.602	1499.56
494.058	1542.56
494.514	1580.56
494.97	1625.56
495.426	1580.56
495.882	1602.56
496.338	1594.56
496.794	1632.56
497.251	1650.56
497.707	1646.56
498.163	1673.56
498.618	1648.56
499.074	1657.56
499.53	1687.56
499.986	1697.56
500.442	1663.56
500.898	1634.56
501.354	1634.56
501.809	1696.56
502.265	1685.56
502.721	1687.56
503.177	1684.56
503.632	1703.56
504.088	1733.56
504.543	1770.56
504.999	1743.56
505.455	1750.56
505.91	1754.56
506.366	1781.56
506.821	1764.56
507.277	1717.56
507.732	1697.56
508.187	1766.56
508.643	1743.56
509.098	1771.56
509.553	1792.56
510.009	1826.56
510.464	1830.56
510.919	1873.56
511.375	1911.56
511.83	1916.56
512.285	1930.56
512.74	1993.56
513.195	1991.56
513.65	2026.56
514.105	2059.56
514.56	2102.56
515.015	2121.56
515.47	2089.56
515.925	2100.56
516.38	2069.56
516.835	2132.56
517.29	2108.56
517.745	2100.56
518.2	2084.56
518.655	2005.56
519.109	1990.56
519.564	1978.56
520.019	1959.56
520.474	1968.56
520.928	1950.56
521.383	1841.56
521.838	1849.56
522.292	1903.56
522.747	1889.56
523.201	1883.56
523.656	1874.56
524.11	1888.56
524.565	1854.56
525.019	1894.56
525.474	1841.56
525.928	1820.56
526.382	1843.56
526.837	1837.56
527.291	1879.56
527.745	1832.56
528.2	1802.56
528.654	1772.56
529.108	1815.56
529.562	1803.56
530.016	1804.56
530.47	1832.56
530.925	1832.56
531.379	1810.56
531.833	1841.56
532.287	1770.56
532.741	1838.56
533.195	1846.56
533.649	1818.56
534.103	1840.56
534.556	1786.56
535.01	1801.56
535.464	1830.56
535.918	1824.56
536.372	1842.56
536.826	1859.56
537.279	1812.56
537.733	1819.56
538.187	1831.56
538.64	1818.56
539.094	1858.56
539.548	1882.56
540.001	1871.56
540.455	1902.56
540.908	1911.56
541.362	1908.56
541.815	1933.56
542.269	1942.56
542.722	1976.56
543.175	1936.56
543.629	1961.56
544.082	1992.56
544.536	2029.56
544.989	1963.56
545.442	2066.56
545.895	2048.56
546.349	2043.56
546.802	2047.56
547.255	2019.56
547.708	2052.56
548.161	2045.56
548.614	2078.56
549.067	2118.56
549.52	2118.56
549.973	2079.56
550.426	2062.56
550.879	2046.56
551.332	2071.56
551.785	2069.56
552.238	2061.56
552.691	2076.56
553.144	2127.56
553.596	2152.56
554.049	2212.56
554.502	2217.56
554.955	2286.56
555.407	2349.56
555.86	2287.56
556.313	2230.56
556.765	2205.56
557.218	2178.56
557.67	2172.56
558.123	2179.56
558.576	2182.56
559.028	2124.56
559.48	2192.56
559.933	2196.56
560.385	2154.56
560.838	2041.56
561.29	1997.56
561.742	1950.56
562.195	1891.56
562.647	1921.56
563.099	1915.56
563.551	1900.56
564.004	1912.56
564.456	1897.56
564.908	1889.56
565.36	1849.56
565.812	1785.56
566.264	1773.56
566.716	1789.56
567.168	1727.56
567.62	1697.56
568.072	1653.56
568.524	1713.56
568.976	1682.56
569.428	1677.56
569.88	1646.56
570.332	1646.56
570.784	1696.56
571.235	1736.56
571.687	1738.56
572.139	1729.56
572.59	1728.56
573.042	1719.56
573.494	1720.56
573.945	1690.56
574.397	1658.56
574.849	1690.56
575.3	1667.56
575.752	1646.56
576.203	1582.56
576.655	1651.56
577.106	1610.56
577.557	1611.56
578.009	1578.56
578.46	1581.56
578.912	1588.56
579.363	1641.56
579.814	1572.56
580.265	1621.56
580.717	1629.56
581.168	1571.56
581.619	1601.56
582.07	1615.56
582.521	1617.56
582.972	1612.56
583.423	1649.56
583.875	1624.56
584.326	1631.56
584.777	1673.56
585.227	1699.56
585.678	1710.56
586.129	1716.56
586.58	1695.56
587.031	1757.56
587.482	1819.56
587.933	1847.56
588.384	1843.56
588.834	1833.56
589.285	1838.56
589.736	1818.56
590.186	1818.56
590.637	1828.56
591.088	1768.56
591.538	1723.56
591.989	1709.56
592.439	1663.56
592.89	1659.56
593.34	1655.56
593.791	1626.56
594.241	1632.56
594.692	1634.56
595.142	1600.56
595.593	1598.56
596.043	1619.56
596.493	1624.56
596.943	1631.56
597.394	1647.56
597.844	1716.56
598.294	1772.56
598.744	1832.56
599.195	1910.56
599.645	1978.56
600.095	2147.56
600.545	2220.56
600.995	2272.56
601.445	2391.56
601.895	2528.56
602.345	2604.56
602.795	2604.56
603.245	2547.56
603.695	2350.56
604.145	2221.56
604.594	2101.56
605.044	2003.56
605.494	1870.56
605.944	1709.56
606.393	1700.56
606.843	1654.56
607.293	1686.56
607.743	1646.56
608.192	1684.56
608.642	1684.56
609.091	1671.56
609.541	1686.56
609.99	1676.56
610.44	1656.56
610.889	1649.56
611.339	1594.56
611.788	1566.56
612.238	1566.56
612.687	1597.56
613.136	1581.56
613.586	1628.56
614.035	1609.56
614.484	1619.56
614.933	1619.56
615.383	1568.56
615.832	1525.56
616.281	1544.56
616.73	1498.56
617.179	1495.56
617.628	1482.56
618.077	1397.56
618.526	1401.56
618.975	1376.56
619.424	1334.56
619.873	1351.56
620.322	1357.56
620.771	1384.56
621.22	1343.56
621.669	1322.56
622.118	1308.56
622.567	1264.56
623.015	1276.56
623.464	1221.56
623.913	1249.56
624.361	1219.56
624.81	1244.56
625.259	1251.56
625.707	1249.56
626.156	1267.56
626.604	1239.56
627.053	1276.56
627.501	1264.56
627.95	1299.56
628.398	1299.56
628.847	1293.56
629.295	1265.56
629.744	1262.56
630.192	1223.56
630.64	1214.56
631.089	1216.56
631.537	1160.56
631.985	1170.56
632.433	1142.56
632.881	1146.56
633.33	1167.56
633.778	1137.56
634.226	1180.56
634.674	1181.56
635.122	1159.56
635.57	1126.56
636.018	1205.56
636.466	1204.56
636.914	1149.56
637.362	1203.56
637.81	1216.56
638.258	1282.56
638.705	1281.56
639.153	1330.56
639.601	1341.56
640.049	1313.56
640.497	1362.56
640.944	1396.56
641.392	1382.56
641.84	1215.56
642.287	1188.56
642.735	1157.56
643.182	1120.56
643.63	1105.56
644.078	1102.56
644.525	1098.56
644.973	1110.56
645.42	1076.56
645.867	1099.56
646.315	1102.56
646.762	1110.56
647.21	1158.56
647.657	1140.56
648.104	1108.56
648.551	1090.56
648.999	1096.56
649.446	1062.56
649.893	1057.56
650.34	1065.56
650.787	1094.56
651.234	1124.56
651.682	1190.56
652.129	1308.56
652.576	1448.56
653.023	1709.56
653.47	1830.56
653.917	1930.56
654.363	1994.56
654.81	2031.56
655.257	2168.56
655.704	1798.56
656.151	1417.56
656.598	1182.56
657.044	1125.56
657.491	1071.56
657.938	1069.56
658.385	1050.56
658.831	1042.56
659.278	1048.56
659.724	1008.56
660.171	1039.56
660.618	978.56
661.064	1003.56
661.511	983.56
661.957	958.56
662.404	953.56
662.85	984.56
663.296	958.56
663.743	980.56
664.189	1008.56
664.635	1047.56
665.082	1015.56
665.528	1005.56
665.974	969.56
666.42	938.56
666.867	953.56
667.313	926.56
667.759	892.56
668.205	907.56
668.651	887.56
669.097	920.56
669.543	913.56
669.989	907.56
670.435	920.56
670.881	944.56
671.327	948.56
671.773	1000.56
672.219	1129.56
672.665	1190.56
673.11	1290.56
673.556	1279.56
674.002	1328.56
674.448	1400.56
674.893	1200.56
675.339	1039.56
675.785	945.56
676.23	888.56
676.676	867.56
677.122	864.56
677.567	823.56
678.013	808.56
678.458	780.56
678.904	803.56
679.349	792.56
679.794	781.56
680.24	778.56
680.685	795.56
681.131	760.56
681.576	782.56
682.021	775.56
682.466	779.56
682.912	784.56
683.357	815.56
683.802	902.56
684.247	938.56
684.692	1050.56
685.137	1100.56
685.583	1116.56
686.028	1166.56
686.473	1162.56
686.918	1012.56
687.363	884.56
687.807	840.56
688.252	821.56
688.697	807.56
689.142	772.56
689.587	766.56
690.032	747.56
690.477	779.56
690.921	853.56
691.366	871.56
691.811	912.56
692.255	961.56
692.7	1089.56
693.145	1461.56
693.589	2227.56
694.034	3056.56
694.478	3387.56
694.923	3088.56
695.367	3870.56
695.812	3469.56
696.256	1378.56
696.701	876.56
697.145	807.56
697.59	756.56
698.034	720.56
698.478	716.56
698.922	731.56
699.367	744.56
699.811	774.56
700.255	826.56
700.699	915.56
701.143	989.56
701.588	1083.56
702.032	1090.56
702.476	1149.56
702.92	1185.56
703.364	1354.56
703.808	2001.56
704.252	2864.56
704.696	3233.56
705.14	2989.56
705.584	3853.56
706.027	2985.56
706.471	1417.56
706.915	966.56
707.359	786.56
707.803	748.56
708.246	729.56
708.69	722.56
709.134	709.56
709.577	714.56
710.021	706.56
710.465	692.56
710.908	709.56
711.352	708.56
711.795	782.56
712.239	842.56
712.682	868.56
713.126	878.56
713.569	950.56
714.012	870.56
714.456	698.56
714.899	714.56
715.342	658.56
715.786	633.56
716.229	631.56
716.672	587.56
717.115	595.56
717.558	580.56
718.002	610.56
718.445	633.56
718.888	652.56
719.331	667.56
719.774	686.56
720.217	700.56
720.66	634.56
721.103	626.56
721.546	584.56
721.989	574.56
722.432	560.56
722.874	550.56
723.317	591.56
723.76	597.56
724.203	666.56
724.645	908.56
725.088	1115.56
725.531	1152.56
725.974	1161.56
726.416	1251.56
726.859	796.56
727.301	642.56
727.744	570.56
728.187	577.56
728.629	541.56
729.071	610.56
729.514	630.56
729.956	674.56
730.399	643.56
730.841	638.56
731.283	676.56
731.726	620.56
732.168	607.56
732.61	658.56
733.053	700.56
733.495	794.56
733.937	825.56
734.379	940.56
734.821	1126.56
735.263	1629.56
735.705	2775.56
736.148	4675.56
736.59	5437.56
737.032	5088.56
737.474	5490.56
737.916	2521.56
738.357	1204.56
738.799	808.56
739.241	731.56
739.683	679.56
740.125	707.56
740.567	718.56
741.008	749.56
741.45	792.56
741.892	802.56
742.334	839.56
742.775	832.56
743.217	855.56
743.658	711.56
744.1	693.56
744.542	767.56
744.983	770.56
745.425	808.56
745.866	853.56
746.307	765.56
746.749	738.56
747.19	898.56
747.632	1598.56
748.073	3119.56
748.514	4966.56
748.956	6024.56
749.397	8320.56
749.838	6679.56
750.279	5398.56
750.72	3917.56
751.162	1690.56
751.603	853.56
752.044	632.56
752.485	578.56
752.926	528.56
753.367	513.56
753.808	494.56
754.249	484.56
754.69	482.56
755.131	493.56
755.572	476.56
756.013	448.56
756.453	482.56
756.894	477.56
757.335	484.56
757.776	483.56
758.216	480.56
758.657	498.56
759.098	552.56
759.538	617.56
759.979	770.56
760.42	1267.56
760.86	2985.56
761.301	7202.56
761.741	10911.56
762.182	11179.56
762.622	10420.56
763.063	4510.56
763.503	1712.56
763.943	872.56
764.384	660.56
764.824	599.56
765.264	544.56
765.705	500.56
766.145	479.56
766.585	474.56
767.025	446.56
767.465	465.56
767.906	438.56
768.346	478.56
768.786	519.56
769.226	653.56
769.666	1048.56
770.106	2450.56
770.546	4318.56
770.986	4723.56
771.426	4592.56
771.866	2462.56
772.306	1038.56
772.745	584.56
773.185	444.56
773.625	422.56
774.065	451.56
774.505	499.56
774.944	766.56
775.384	1211.56
775.824	1388.56
776.263	1326.56
776.703	924.56
777.142	555.56
777.582	408.56
778.021	362.56
778.461	357.56
778.9	321.56
779.34	322.56
779.779	326.56
780.219	330.56
780.658	304.56
781.097	330.56
781.537	333.56
781.976	308.56
782.415	315.56
782.855	290.56
783.294	309.56
783.733	330.56
784.172	306.56
784.611	284.56
785.05	336.56
785.489	313.56
785.928	326.56
786.367	328.56
786.806	349.56
787.245	359.56
787.684	393.56
788.123	393.56
788.562	362.56
789.001	363.56
789.44	342.56
789.879	326.56
790.317	350.56
790.756	349.56
791.195	374.56
791.634	473.56
792.072	653.56
792.511	1413.56
792.95	3182.56
793.388	4058.56
793.827	3531.56
794.265	1950.56
794.704	921.56
795.142	524.56
795.581	412.56
796.019	384.56
796.458	356.56
796.896	358.56
797.334	376.56
797.773	462.56
798.211	757.56
798.649	1500.56
799.087	2550.56
799.526	4020.56
799.964	4549.56
800.402	3722.56
800.84	2133.56
801.278	1051.56
801.716	591.56
802.154	453.56
802.592	381.56
803.03	396.56
803.468	410.56
803.906	429.56
804.344	408.56
804.782	392.56
805.22	386.56
805.658	398.56
806.096	422.56
806.533	442.56
806.971	534.56
807.409	687.56
807.847	1073.56
808.284	2615.56
808.722	5372.56
809.16	7440.56
809.597	10284.56
810.035	13214.56
810.472	11140.56
810.91	6054.56
811.347	2802.56
811.785	1285.56
812.222	747.56
812.66	541.56
813.097	423.56
813.535	414.56
813.972	364.56
814.409	357.56
814.846	315.56
815.284	298.56
815.721	310.56
816.158	343.56
816.595	406.56
817.032	492.56
817.47	494.56
817.907	421.56
818.344	361.56
818.781	336.56
819.218	345.56
819.655	454.56
820.092	566.56
820.529	605.56
820.966	549.56
821.403	429.56
821.839	346.56
822.276	349.56
822.713	354.56
823.15	402.56
823.587	408.56
824.023	548.56
824.46	1153.56
824.897	2302.56
825.333	2452.56
825.77	1425.56
826.206	808.56
826.643	469.56
827.08	334.56
827.516	290.56
827.953	298.56
828.389	268.56
828.825	261.56
829.262	244.56
829.698	238.56
830.135	217.56
830.571	220.56
831.007	225.56
831.443	210.56
831.88	222.56
832.316	221.56
832.752	254.56
833.188	222.56
833.624	222.56
834.06	250.56
834.497	236.56
834.933	248.56
835.369	250.56
835.805	236.56
836.241	255.56
836.677	284.56
837.112	291.56
837.548	347.56
837.984	420.56
838.42	724.56
838.856	1901.56
839.292	4128.56
839.727	4553.56
840.163	2898.56
840.599	3395.56
841.034	5209.56
841.47	3996.56
841.906	2140.56
842.341	1153.56
842.777	727.56
843.212	599.56
843.648	496.56
844.083	359.56
844.519	310.56
844.954	268.56
845.39	226.56
845.825	234.56
846.261	196.56
846.696	201.56
847.131	207.56
847.566	189.56
848.002	194.56
848.437	190.56
848.872	220.56
849.307	249.56
849.742	322.56
850.177	686.56
850.613	1489.56
851.048	1628.56
851.483	908.56
851.918	554.56
852.353	338.56
852.788	218.56
853.223	203.56
853.657	193.56
854.092	178.56
854.527	194.56
854.962	220.56
855.397	194.56
855.832	189.56
856.266	183.56
856.701	179.56
857.136	190.56
857.57	194.56
858.005	227.56
858.44	204.56
858.874	192.56
859.309	199.56
859.743	199.56
860.178	214.56
860.612	200.56
861.047	220.56
861.481	277.56
861.915	236.56
862.35	201.56
862.784	177.56
863.218	179.56
863.653	164.56
864.087	182.56
864.521	217.56
864.955	282.56
865.39	412.56
865.824	432.56
866.258	412.56
866.692	583.56
867.126	555.56
867.56	392.56
867.994	278.56
868.428	202.56
868.862	244.56
869.296	216.56
869.73	248.56
870.164	215.56
870.598	221.56
871.031	186.56
871.465	184.56
871.899	147.56
872.333	130.56
872.766	143.56
873.2	142.56
873.634	146.56
874.067	128.56
874.501	143.56
874.935	138.56
875.368	156.56
875.802	140.56
876.235	131.56
876.669	118.56
877.102	136.56
877.535	134.56
877.969	164.56
878.402	131.56
878.836	148.56
879.269	124.56
879.702	146.56
880.135	138.56
880.569	123.56
881.002	130.56
881.435	148.56
881.868	138.56
882.301	117.56
882.734	147.56
883.167	139.56
883.601	138.56
884.034	113.56
884.467	119.56
884.899	134.56
885.332	131.56
885.765	129.56
886.198	117.56
886.631	142.56
887.064	138.56
887.497	142.56
887.929	136.56
888.362	106.56
888.795	121.56
889.228	140.56
889.66	147.56
890.093	122.56
890.526	126.56
890.958	126.56
891.391	135.56
891.823	136.56
892.256	119.56
892.688	116.56
893.121	126.56
893.553	132.56
893.985	139.56
894.418	147.56
894.85	130.56
895.282	129.56
895.715	138.56
896.147	112.56
896.579	129.56
897.011	128.56
897.444	134.56
897.876	137.56
898.308	117.56
898.74	102.56
899.172	115.56
899.604	126.56
900.036	107.56
900.468	136.56
900.9	112.56
901.332	122.56
901.764	122.56
902.196	126.56
902.628	148.56
903.06	125.56
903.491	166.56
903.923	157.56
904.355	157.56
904.787	172.56
905.218	142.56
905.65	142.56
906.082	143.56
906.513	128.56
906.945	108.56
907.376	147.56
907.808	131.56
908.239	120.56
908.671	133.56
909.102	136.56
909.534	184.56
909.965	209.56
910.397	372.56
910.828	934.56
911.259	1009.56
911.691	614.56
912.122	442.56
912.553	265.56
912.984	164.56
913.415	144.56
913.847	130.56
914.278	129.56
914.709	144.56
915.14	117.56
915.571	115.56
916.002	136.56
916.433	138.56
916.864	118.56
917.295	112.56
917.726	126.56
918.157	130.56
918.587	141.56
919.018	136.56
919.449	128.56
919.88	163.56
920.311	170.56
920.741	258.56
921.172	497.56
921.603	374.56
922.033	290.56
922.464	224.56
922.895	157.56
923.325	124.56
923.756	119.56
924.186	142.56
924.617	132.56
925.047	154.56
925.478	162.56
925.908	152.56
926.338	129.56
926.769	127.56
927.199	123.56
927.629	113.56
928.06	116.56
928.49	110.56
928.92	111.56
929.35	96.56
929.78	104.56
930.21	101.56
930.641	110.56
931.071	116.56
931.501	106.56
931.931	104.56
932.361	108.56
932.791	116.56
933.221	106.56
933.651	120.56
934.08	146.56
934.51	131.56
934.94	136.56
935.37	115.56
935.8	111.56
936.229	126.56
936.659	113.56
937.089	139.56
937.519	120.56
937.948	138.56
938.378	126.56
938.807	129.56
939.237	119.56
939.666	108.56
940.096	106.56
940.525	93.56
940.955	105.56
941.384	91.56
941.814	108.56
942.243	104.56
942.672	99.56
943.102	99.56
943.531	103.56
943.96	109.56
944.39	104.56
944.819	90.56
945.248	88.56
945.677	101.56
946.106	92.56
946.535	99.56
946.964	93.56
947.393	66.56
947.822	94.56
948.251	96.56
948.68	103.56
949.109	96.56
949.538	97.56
949.967	86.56
950.396	91.56
950.825	97.56
951.254	110.56
951.682	111.56
952.111	102.56
952.54	97.56
952.969	106.56
953.397	107.56
953.826	120.56
954.254	106.56
954.683	108.56
955.112	91.56
955.54	101.56
955.969	93.56
956.397	83.56
956.826	99.56
957.254	90.56
957.682	104.56
958.111	107.56
958.539	102.56
958.967	106.56
959.396	94.56
959.824	99.56
960.252	93.56
960.68	94.56
961.109	94.56
961.537	112.56
961.965	91.56
962.393	98.56
962.821	79.56
963.249	100.56
963.677	100.56
964.105	109.56
964.533	203.56
964.961	176.56
965.389	138.56
965.817	127.56
966.245	120.56
966.672	106.56
967.1	91.56
967.528	97.56
967.956	92.56
968.383	121.56
968.811	86.56
969.239	110.56
969.666	90.56
970.094	108.56
970.522	109.56
970.949	90.56
971.377	108.56
971.804	86.56
972.232	71.56
972.659	90.56
973.087	103.56
973.514	90.56
973.941	88.56
974.369	104.56
974.796	82.56
975.223	90.56
975.651	88.56
976.078	88.56
976.505	89.56
976.932	97.56
977.359	140.56
977.786	128.56
978.214	120.56
978.641	113.56
979.068	91.56
979.495	92.56
979.922	82.56
980.349	92.56
980.776	92.56
981.202	114.56
981.629	82.56
982.056	81.56
982.483	95.56
982.91	99.56
983.337	91.56
983.763	86.56
984.19	105.56
984.617	100.56
985.043	113.56
985.47	104.56
985.897	88.56
986.323	94.56
986.75	98.56
987.176	82.56
987.603	84.56
988.029	100.56
988.456	85.56
988.882	92.56
989.308	103.56
989.735	100.56
990.161	104.56
990.587	84.56
991.014	92.56
991.44	84.56
991.866	101.56
992.292	96.56
992.719	90.56
993.145	80.56
993.571	100.56
993.997	94.56
994.423	92.56
994.849	78.56
995.275	77.56
995.701	104.56
996.127	89.56
996.553	88.56
996.979	82.56
997.405	88.56
997.83	93.56
998.256	86.56
998.682	83.56
999.108	90.56
999.534	90.56
999.959	93.56
1000.385	101.56
1000.811	105.56
1001.236	96.56
1001.662	88.56
1002.087	104.56
1002.513	92.56
1002.938	69.56
1003.364	77.56
1003.789	93.56
1004.215	82.56
1004.64	100.56
1005.066	99.56
1005.491	91.56
1005.916	91.56
1006.342	91.56
1006.767	98.56
1007.192	101.56
1007.617	88.56
1008.042	95.56
1008.468	94.56
1008.893	94.56
1009.318	98.56
1009.743	92.56
1010.168	86.56
1010.593	102.56
1011.018	99.56
1011.443	109.56
1011.868	94.56
1012.293	86.56
1012.718	93.56
1013.143	93.56
1013.567	95.56
1013.992	90.56
1014.417	91.56
1014.842	82.56
1015.267	84.56
1015.691	78.56
1016.116	83.56
1016.541	86.56
1016.965	92.56
1017.39	110.56
1017.814	75.56
1018.239	78.56
1018.663	87.56
1019.088	88.56
1019.512	78.56
1019.937	78.56
1020.361	78.56
1020.785	91.56
1021.21	110.56
1021.634	82.56
1022.058	100.56
1022.483	80.56
1022.907	97.56
1023.331	88.56
1023.755	75.56
1024.179	83.56
1024.604	87.56
1025.028	96.56
1025.452	76.56
1025.876	76.56
1026.3	89.56
1026.724	82.56
1027.148	94.56
1027.572	88.56
1027.996	86.56
1028.42	80.56
1028.843	86.56
1029.267	72.56
1029.691	72.56
1030.115	80.56
1030.539	96.56
1030.962	90.56
1031.386	74.56
1031.81	90.56
1032.233	79.56
1032.657	83.56
1033.08	84.56
1033.504	76.56
1033.927	81.56
1034.351	86.56
1034.774	75.56
1035.198	58.56
1035.621	90.56
1036.045	93.56
1036.468	93.56
1036.891	87.56
1037.315	93.56
1037.738	86.56
1038.161	89.56
1038.584	87.56
1039.008	68.56
1039.431	89.56
1039.854	81.56
1040.277	92.56
1040.7	94.56
1041.123	74.56
1041.546	101.56
1041.969	90.56
1042.392	104.56
1042.815	97.56
1043.238	82.56
1043.661	78.56
1044.084	90.56
1044.507	92.56
1044.93	99.56
1045.352	88.56
1045.775	79.56
1046.198	86.56
1046.621	79.56
1047.043	94.56
1047.466	95.56
1047.889	91.56
1048.311	78.56
1048.734	78.56
1049.156	78.56
1049.579	84.56
1050.001	89.56
1050.424	97.56
1050.846	83.56
1051.269	88.56
1051.691	72.56
1052.113	80.56
1052.536	92.56
1052.958	84.56
1053.38	81.56
1053.802	89.56
1054.225	76.56
1054.647	85.56
1055.069	79.56
1055.491	78.56
1055.913	74.56
1056.335	91.56
1056.757	96.56
1057.179	84.56
1057.601	93.56
1058.023	97.56
1058.445	89.56
1058.867	103.56
1059.289	94.56
1059.711	92.56
1060.133	79.56
1060.555	89.56
1060.976	79.56
1061.398	86.56
1061.82	77.56
1062.241	79.56
1062.663	74.56
1063.085	88.56
1063.506	89.56
1063.928	87.56
1064.35	78.56
1064.771	86.56
1065.193	90.56
1065.614	94.56
1066.035	80.56
1066.457	93.56
1066.878	82.56
1067.3	93.56
1067.721	101.56
1068.142	72.56
1068.564	84.56
1068.985	77.56
1069.406	94.56
1069.827	65.56
1070.248	82.56
1070.67	78.56
1071.091	76.56
1071.512	88.56
1071.933	71.56
1072.354	93.56
1072.775	85.56
1073.196	77.56
1073.617	73.56
1074.038	92.56
1074.459	93.56
1074.88	93.56
1075.3	97.56
1075.721	95.56
1076.142	98.56
1076.563	73.56
1076.983	88.56
1077.404	82.56
1077.825	79.56
1078.246	90.56
1078.666	77.56
1079.087	86.56
1079.507	84.56
1079.928	80.56
1080.348	88.56
1080.769	74.56
1081.189	90.56
1081.61	82.56
1082.03	81.56
1082.451	87.56
1082.871	61.56
1083.291	96.56
1083.711	82.56
1084.132	93.56
1084.552	53.56
1084.972	80.56
1085.392	94.56
1085.813	74.56
1086.233	75.56
1086.653	97.56
1087.073	94.56
1087.493	85.56
1087.913	82.56
1088.333	82.56
1088.753	82.56
1089.173	71.56
1089.593	81.56
1090.013	92.56
1090.433	90.56
1090.852	94.56
1091.272	75.56
1091.692	83.56
1092.112	83.56
1092.531	90.56
1092.951	85.56
1093.371	104.56
1093.79	95.56
1094.21	70.56
1094.63	99.56
1095.049	78.56
1095.469	86.56
1095.888	81.56
1096.308	90.56
1096.727	89.56
1097.146	74.56
1097.566	90.56
1097.985	83.56
1098.405	84.56
1098.824	84.56
1099.243	71.56
1099.662	90.56
1100.082	84.56
1100.501	77.56
1100.92	70.56
1101.339	79.56
1101.758	72.56
