Data from 20170802-ORNL-NYSim-Air_HRD10391_10-36-31-606.txt Node
Date: Wed Aug 02 10:36:31 EDT 2017
User: Ender
Spectrometer: HR+D1039
Trigger mode: 0
Integration Time (sec): 3.750000E-3
Scans to average: 1
Electric dark correction enabled: true
Nonlinearity correction enabled: false
Boxcar width: 0
XAxis mode: Wavelengths
Number of Pixels in Spectrum: 2048
>>>>>Begin Spectral Data<<<<<
187.836	8.75
188.309	8.75
188.782	8.75
189.255	1.75
189.728	-13.25
190.201	-0.25
190.674	1.75
191.147	5.75
191.619	-16.25
192.092	-2.25
192.565	-3.25
193.038	-3.25
193.511	-12.25
193.984	1.75
194.456	5.75
194.929	3.75
195.402	16.75
195.874	4.75
196.347	10.75
196.82	11.75
197.292	32.75
197.765	32.75
198.237	38.75
198.71	29.75
199.182	39.75
199.655	50.75
200.127	42.75
200.6	50.75
201.072	64.75
201.544	73.75
202.017	65.75
202.489	72.75
202.961	73.75
203.433	56.75
203.906	82.75
204.378	81.75
204.85	79.75
205.322	83.75
205.794	90.75
206.266	97.75
206.739	73.75
207.211	76.75
207.683	53.75
208.155	84.75
208.627	73.75
209.099	79.75
209.57	79.75
210.042	81.75
210.514	97.75
210.986	98.75
211.458	78.75
211.93	90.75
212.402	98.75
212.873	85.75
213.345	86.75
213.817	78.75
214.288	72.75
214.76	100.75
215.232	87.75
215.703	87.75
216.175	84.75
216.646	91.75
217.118	97.75
217.589	75.75
218.061	90.75
218.532	96.75
219.004	69.75
219.475	67.75
219.946	86.75
220.418	87.75
220.889	82.75
221.36	78.75
221.832	86.75
222.303	77.75
222.774	68.75
223.245	83.75
223.717	67.75
224.188	82.75
224.659	90.75
225.13	46.75
225.601	82.75
226.072	67.75
226.543	98.75
227.014	97.75
227.485	78.75
227.956	87.75
228.427	65.75
228.898	82.75
229.369	87.75
229.839	67.75
230.31	85.75
230.781	84.75
231.252	90.75
231.722	76.75
232.193	82.75
232.664	81.75
233.135	91.75
233.605	82.75
234.076	87.75
234.546	73.75
235.017	77.75
235.487	88.75
235.958	89.75
236.428	64.75
236.899	96.75
237.369	90.75
237.84	88.75
238.31	80.75
238.78	91.75
239.251	86.75
239.721	89.75
240.191	85.75
240.662	91.75
241.132	87.75
241.602	91.75
242.072	89.75
242.542	95.75
243.013	91.75
243.483	103.75
243.953	98.75
244.423	98.75
244.893	87.75
245.363	89.75
245.833	82.75
246.303	92.75
246.773	79.75
247.243	85.75
247.712	105.75
248.182	80.75
248.652	93.75
249.122	98.75
249.592	95.75
250.061	95.75
250.531	112.75
251.001	96.75
251.471	107.75
251.94	95.75
252.41	90.75
252.879	85.75
253.349	106.75
253.818	94.75
254.288	96.75
254.757	129.75
255.227	92.75
255.696	103.75
256.166	92.75
256.635	101.75
257.105	107.75
257.574	95.75
258.043	115.75
258.513	89.75
258.982	98.75
259.451	92.75
259.92	107.75
260.389	85.75
260.859	122.75
261.328	101.75
261.797	90.75
262.266	112.75
262.735	87.75
263.204	102.75
263.673	86.75
264.142	108.75
264.611	90.75
265.08	93.75
265.549	95.75
266.018	107.75
266.487	120.75
266.955	107.75
267.424	110.75
267.893	121.75
268.362	127.75
268.83	120.75
269.299	109.75
269.768	108.75
270.236	104.75
270.705	110.75
271.174	113.75
271.642	103.75
272.111	116.75
272.579	106.75
273.048	90.75
273.516	113.75
273.985	107.75
274.453	119.75
274.922	116.75
275.39	107.75
275.858	113.75
276.327	132.75
276.795	116.75
277.263	114.75
277.731	124.75
278.2	128.75
278.668	128.75
279.136	128.75
279.604	123.75
280.072	102.75
280.54	92.75
281.008	113.75
281.477	135.75
281.945	116.75
282.413	101.75
282.881	111.75
283.348	132.75
283.816	127.75
284.284	106.75
284.752	123.75
285.22	129.75
285.688	121.75
286.156	119.75
286.623	123.75
287.091	115.75
287.559	113.75
288.026	145.75
288.494	130.75
288.962	130.75
289.429	144.75
289.897	127.75
290.364	140.75
290.832	127.75
291.3	110.75
291.767	133.75
292.234	126.75
292.702	140.75
293.169	140.75
293.637	138.75
294.104	131.75
294.571	133.75
295.039	109.75
295.506	140.75
295.973	136.75
296.44	122.75
296.908	107.75
297.375	156.75
297.842	137.75
298.309	128.75
298.776	139.75
299.243	120.75
299.71	141.75
300.177	142.75
300.644	151.75
301.111	129.75
301.578	140.75
302.045	163.75
302.512	143.75
302.979	130.75
303.446	167.75
303.913	153.75
304.379	147.75
304.846	147.75
305.313	144.75
305.78	153.75
306.246	155.75
306.713	152.75
307.18	155.75
307.646	171.75
308.113	158.75
308.579	148.75
309.046	159.75
309.512	171.75
309.979	167.75
310.445	165.75
310.912	158.75
311.378	170.75
311.845	161.75
312.311	150.75
312.777	180.75
313.244	152.75
313.71	156.75
314.176	153.75
314.642	165.75
315.109	162.75
315.575	161.75
316.041	168.75
316.507	159.75
316.973	173.75
317.439	164.75
317.905	180.75
318.371	165.75
318.837	167.75
319.303	157.75
319.769	179.75
320.235	169.75
320.701	164.75
321.167	171.75
321.633	196.75
322.099	173.75
322.564	173.75
323.03	185.75
323.496	202.75
323.962	195.75
324.427	192.75
324.893	191.75
325.359	191.75
325.824	191.75
326.29	169.75
326.755	162.75
327.221	169.75
327.686	191.75
328.152	191.75
328.617	196.75
329.083	196.75
329.548	189.75
330.014	201.75
330.479	196.75
330.944	200.75
331.41	207.75
331.875	195.75
332.34	192.75
332.805	208.75
333.271	195.75
333.736	199.75
334.201	215.75
334.666	204.75
335.131	212.75
335.596	193.75
336.061	205.75
336.526	213.75
336.991	206.75
337.456	207.75
337.921	210.75
338.386	191.75
338.851	199.75
339.316	216.75
339.781	216.75
340.246	215.75
340.711	219.75
341.175	211.75
341.64	208.75
342.105	228.75
342.569	231.75
343.034	218.75
343.499	232.75
343.963	218.75
344.428	221.75
344.893	239.75
345.357	245.75
345.822	243.75
346.286	236.75
346.751	221.75
347.215	236.75
347.679	251.75
348.144	243.75
348.608	264.75
349.073	260.75
349.537	259.75
350.001	271.75
350.465	263.75
350.93	286.75
351.394	257.75
351.858	271.75
352.322	295.75
352.786	274.75
353.25	255.75
353.715	283.75
354.179	315.75
354.643	309.75
355.107	311.75
355.571	287.75
356.035	282.75
356.498	283.75
356.962	275.75
357.426	304.75
357.89	282.75
358.354	280.75
358.818	297.75
359.281	291.75
359.745	289.75
360.209	279.75
360.673	296.75
361.136	289.75
361.6	283.75
362.064	327.75
362.527	268.75
362.991	311.75
363.454	298.75
363.918	305.75
364.381	305.75
364.845	300.75
365.308	300.75
365.772	299.75
366.235	309.75
366.698	313.75
367.162	317.75
367.625	271.75
368.088	326.75
368.552	305.75
369.015	320.75
369.478	309.75
369.941	299.75
370.404	318.75
370.867	318.75
371.331	313.75
371.794	300.75
372.257	325.75
372.72	304.75
373.183	313.75
373.646	346.75
374.109	327.75
374.572	332.75
375.035	343.75
375.497	337.75
375.96	314.75
376.423	353.75
376.886	333.75
377.349	344.75
377.811	330.75
378.274	334.75
378.737	317.75
379.199	353.75
379.662	371.75
380.125	354.75
380.587	357.75
381.05	360.75
381.512	351.75
381.975	380.75
382.437	356.75
382.9	374.75
383.362	379.75
383.825	390.75
384.287	365.75
384.75	371.75
385.212	385.75
385.674	389.75
386.136	377.75
386.599	386.75
387.061	391.75
387.523	407.75
387.985	400.75
388.447	387.75
388.91	390.75
389.372	415.75
389.834	404.75
390.296	413.75
390.758	393.75
391.22	406.75
391.682	398.75
392.144	395.75
392.606	385.75
393.068	415.75
393.529	435.75
393.991	440.75
394.453	430.75
394.915	420.75
395.377	398.75
395.838	409.75
396.3	413.75
396.762	447.75
397.224	418.75
397.685	427.75
398.147	426.75
398.608	424.75
399.07	403.75
399.531	434.75
399.993	433.75
400.454	437.75
400.916	461.75
401.377	443.75
401.839	455.75
402.3	448.75
402.762	477.75
403.223	521.75
403.684	505.75
404.145	490.75
404.607	457.75
405.068	473.75
405.529	457.75
405.99	479.75
406.451	489.75
406.913	470.75
407.374	475.75
407.835	462.75
408.296	477.75
408.757	487.75
409.218	499.75
409.679	512.75
410.14	488.75
410.601	509.75
411.062	532.75
411.522	521.75
411.983	513.75
412.444	564.75
412.905	570.75
413.366	603.75
413.826	617.75
414.287	691.75
414.748	829.75
415.208	798.75
415.669	720.75
416.13	640.75
416.59	638.75
417.051	675.75
417.511	692.75
417.972	725.75
418.432	771.75
418.893	847.75
419.353	840.75
419.814	671.75
420.274	578.75
420.734	574.75
421.195	603.75
421.655	584.75
422.115	601.75
422.576	579.75
423.036	598.75
423.496	601.75
423.956	635.75
424.416	704.75
424.876	758.75
425.336	747.75
425.797	737.75
426.257	693.75
426.717	654.75
427.177	599.75
427.637	606.75
428.097	612.75
428.556	631.75
429.016	680.75
429.476	660.75
429.936	623.75
430.396	616.75
430.856	612.75
431.315	654.75
431.775	671.75
432.235	734.75
432.694	753.75
433.154	707.75
433.614	667.75
434.073	635.75
434.533	606.75
434.993	615.75
435.452	593.75
435.912	605.75
436.371	655.75
436.83	620.75
437.29	635.75
437.749	619.75
438.209	608.75
438.668	614.75
439.127	670.75
439.587	609.75
440.046	629.75
440.505	643.75
440.964	661.75
441.424	693.75
441.883	693.75
442.342	684.75
442.801	649.75
443.26	653.75
443.719	645.75
444.178	631.75
444.637	635.75
445.096	674.75
445.555	680.75
446.014	670.75
446.473	661.75
446.932	654.75
447.391	672.75
447.849	659.75
448.308	692.75
448.767	671.75
449.226	705.75
449.685	697.75
450.143	759.75
450.602	718.75
451.061	687.75
451.519	699.75
451.978	675.75
452.436	678.75
452.895	675.75
453.353	675.75
453.812	674.75
454.27	678.75
454.729	680.75
455.187	677.75
455.646	688.75
456.104	725.75
456.562	693.75
457.021	704.75
457.479	708.75
457.937	719.75
458.395	746.75
458.854	713.75
459.312	714.75
459.77	733.75
460.228	729.75
460.686	736.75
461.144	755.75
461.602	729.75
462.06	736.75
462.518	754.75
462.976	801.75
463.434	767.75
463.892	749.75
464.35	777.75
464.808	767.75
465.266	784.75
465.724	818.75
466.181	797.75
466.639	803.75
467.097	848.75
467.555	852.75
468.012	843.75
468.47	860.75
468.928	884.75
469.385	899.75
469.843	901.75
470.3	899.75
470.758	921.75
471.215	945.75
471.673	924.75
472.13	976.75
472.588	979.75
473.045	980.75
473.503	970.75
473.96	1069.75
474.417	1002.75
474.875	1055.75
475.332	1056.75
475.789	1086.75
476.246	1109.75
476.704	1119.75
477.161	1127.75
477.618	1164.75
478.075	1166.75
478.532	1188.75
478.989	1212.75
479.446	1292.75
479.903	1266.75
480.36	1285.75
480.817	1299.75
481.274	1326.75
481.731	1315.75
482.188	1369.75
482.645	1375.75
483.102	1396.75
483.558	1461.75
484.015	1460.75
484.472	1470.75
484.929	1477.75
485.385	1521.75
485.842	1477.75
486.299	1492.75
486.755	1496.75
487.212	1485.75
487.668	1406.75
488.125	1460.75
488.582	1435.75
489.038	1393.75
489.494	1433.75
489.951	1472.75
490.407	1457.75
490.864	1450.75
491.32	1459.75
491.776	1473.75
492.233	1469.75
492.689	1442.75
493.145	1475.75
493.602	1450.75
494.058	1458.75
494.514	1471.75
494.97	1490.75
495.426	1497.75
495.882	1506.75
496.338	1523.75
496.794	1540.75
497.251	1534.75
497.707	1606.75
498.163	1607.75
498.618	1587.75
499.074	1601.75
499.53	1596.75
499.986	1597.75
500.442	1576.75
500.898	1587.75
501.354	1591.75
501.809	1616.75
502.265	1566.75
502.721	1631.75
503.177	1597.75
503.632	1598.75
504.088	1644.75
504.543	1615.75
504.999	1639.75
505.455	1674.75
505.91	1661.75
506.366	1642.75
506.821	1647.75
507.277	1657.75
507.732	1636.75
508.187	1625.75
508.643	1665.75
509.098	1661.75
509.553	1709.75
510.009	1710.75
510.464	1745.75
510.919	1737.75
511.375	1793.75
511.83	1860.75
512.285	1810.75
512.74	1885.75
513.195	1917.75
513.65	1946.75
514.105	2011.75
514.56	1969.75
515.015	2023.75
515.47	2001.75
515.925	2007.75
516.38	2027.75
516.835	1991.75
517.29	1988.75
517.745	1983.75
518.2	1973.75
518.655	1922.75
519.109	1893.75
519.564	1891.75
520.019	1866.75
520.474	1823.75
520.928	1896.75
521.383	1833.75
521.838	1840.75
522.292	1817.75
522.747	1789.75
523.201	1779.75
523.656	1762.75
524.11	1758.75
524.565	1737.75
525.019	1768.75
525.474	1737.75
525.928	1733.75
526.382	1731.75
526.837	1738.75
527.291	1771.75
527.745	1725.75
528.2	1746.75
528.654	1763.75
529.108	1725.75
529.562	1726.75
530.016	1691.75
530.47	1742.75
530.925	1702.75
531.379	1721.75
531.833	1743.75
532.287	1773.75
532.741	1730.75
533.195	1750.75
533.649	1769.75
534.103	1752.75
534.556	1777.75
535.01	1746.75
535.464	1750.75
535.918	1706.75
536.372	1746.75
536.826	1705.75
537.279	1714.75
537.733	1771.75
538.187	1713.75
538.64	1797.75
539.094	1769.75
539.548	1808.75
540.001	1727.75
540.455	1817.75
540.908	1807.75
541.362	1798.75
541.815	1791.75
542.269	1873.75
542.722	1878.75
543.175	1875.75
543.629	1927.75
544.082	1916.75
544.536	1879.75
544.989	1887.75
545.442	1961.75
545.895	1929.75
546.349	1972.75
546.802	2016.75
547.255	1999.75
547.708	1969.75
548.161	2020.75
548.614	1994.75
549.067	2045.75
549.52	2007.75
549.973	1971.75
550.426	1982.75
550.879	1996.75
551.332	1974.75
551.785	1984.75
552.238	1975.75
552.691	1962.75
553.144	2018.75
553.596	2057.75
554.049	2105.75
554.502	2113.75
554.955	2189.75
555.407	2214.75
555.86	2205.75
556.313	2140.75
556.765	2125.75
557.218	2147.75
557.67	2103.75
558.123	2123.75
558.576	2049.75
559.028	2095.75
559.48	2091.75
559.933	2103.75
560.385	2035.75
560.838	1898.75
561.29	1874.75
561.742	1864.75
562.195	1883.75
562.647	1799.75
563.099	1787.75
563.551	1776.75
564.004	1813.75
564.456	1821.75
564.908	1764.75
565.36	1728.75
565.812	1733.75
566.264	1724.75
566.716	1652.75
567.168	1669.75
567.62	1604.75
568.072	1639.75
568.524	1584.75
568.976	1629.75
569.428	1550.75
569.88	1564.75
570.332	1543.75
570.784	1597.75
571.235	1613.75
571.687	1606.75
572.139	1633.75
572.59	1675.75
573.042	1614.75
573.494	1659.75
573.945	1607.75
574.397	1585.75
574.849	1535.75
575.3	1570.75
575.752	1553.75
576.203	1563.75
576.655	1572.75
577.106	1565.75
577.557	1528.75
578.009	1525.75
578.46	1532.75
578.912	1549.75
579.363	1530.75
579.814	1521.75
580.265	1483.75
580.717	1514.75
581.168	1509.75
581.619	1565.75
582.07	1574.75
582.521	1521.75
582.972	1534.75
583.423	1547.75
583.875	1556.75
584.326	1605.75
584.777	1622.75
585.227	1622.75
585.678	1630.75
586.129	1658.75
586.58	1637.75
587.031	1673.75
587.482	1703.75
587.933	1727.75
588.384	1703.75
588.834	1719.75
589.285	1736.75
589.736	1754.75
590.186	1749.75
590.637	1689.75
591.088	1720.75
591.538	1665.75
591.989	1641.75
592.439	1621.75
592.89	1600.75
593.34	1582.75
593.791	1572.75
594.241	1540.75
594.692	1574.75
595.142	1568.75
595.593	1570.75
596.043	1520.75
596.493	1572.75
596.943	1529.75
597.394	1577.75
597.844	1615.75
598.294	1665.75
598.744	1712.75
599.195	1789.75
599.645	1911.75
600.095	2017.75
600.545	2150.75
600.995	2193.75
601.445	2301.75
601.895	2393.75
602.345	2522.75
602.795	2484.75
603.245	2354.75
603.695	2231.75
604.145	2128.75
604.594	2001.75
605.044	1884.75
605.494	1791.75
605.944	1674.75
606.393	1632.75
606.843	1625.75
607.293	1591.75
607.743	1641.75
608.192	1601.75
608.642	1604.75
609.091	1595.75
609.541	1617.75
609.99	1595.75
610.44	1537.75
610.889	1527.75
611.339	1577.75
611.788	1483.75
612.238	1515.75
612.687	1518.75
613.136	1538.75
613.586	1582.75
614.035	1557.75
614.484	1533.75
614.933	1533.75
615.383	1528.75
615.832	1475.75
616.281	1453.75
616.73	1437.75
617.179	1439.75
617.628	1407.75
618.077	1346.75
618.526	1342.75
618.975	1333.75
619.424	1332.75
619.873	1326.75
620.322	1310.75
620.771	1328.75
621.22	1253.75
621.669	1249.75
622.118	1227.75
622.567	1228.75
623.015	1185.75
623.464	1207.75
623.913	1195.75
624.361	1192.75
624.81	1199.75
625.259	1187.75
625.707	1164.75
626.156	1171.75
626.604	1187.75
627.053	1235.75
627.501	1215.75
627.95	1232.75
628.398	1262.75
628.847	1199.75
629.295	1253.75
629.744	1221.75
630.192	1163.75
630.64	1163.75
631.089	1134.75
631.537	1131.75
631.985	1105.75
632.433	1114.75
632.881	1115.75
633.33	1093.75
633.778	1073.75
634.226	1099.75
634.674	1143.75
635.122	1107.75
635.57	1109.75
636.018	1132.75
636.466	1135.75
636.914	1119.75
637.362	1149.75
637.81	1191.75
638.258	1203.75
638.705	1219.75
639.153	1227.75
639.601	1279.75
640.049	1294.75
640.497	1295.75
640.944	1321.75
641.392	1283.75
641.84	1183.75
642.287	1136.75
642.735	1118.75
643.182	1071.75
643.63	1050.75
644.078	1016.75
644.525	1068.75
644.973	1071.75
645.42	1069.75
645.867	1053.75
646.315	1080.75
646.762	1059.75
647.21	1075.75
647.657	1073.75
648.104	1098.75
648.551	1022.75
648.999	1005.75
649.446	1003.75
649.893	1003.75
650.34	1015.75
650.787	1076.75
651.234	1068.75
651.682	1135.75
652.129	1253.75
652.576	1413.75
653.023	1587.75
653.47	1830.75
653.917	1810.75
654.363	1907.75
654.81	1962.75
655.257	2063.75
655.704	1745.75
656.151	1366.75
656.598	1163.75
657.044	1093.75
657.491	1059.75
657.938	1013.75
658.385	993.75
658.831	965.75
659.278	962.75
659.724	968.75
660.171	944.75
660.618	937.75
661.064	949.75
661.511	920.75
661.957	914.75
662.404	923.75
662.85	941.75
663.296	972.75
663.743	943.75
664.189	921.75
664.635	983.75
665.082	933.75
665.528	966.75
665.974	931.75
666.42	926.75
666.867	937.75
667.313	882.75
667.759	882.75
668.205	894.75
668.651	881.75
669.097	888.75
669.543	876.75
669.989	897.75
670.435	888.75
670.881	881.75
671.327	923.75
671.773	983.75
672.219	1044.75
672.665	1166.75
673.11	1245.75
673.556	1257.75
674.002	1276.75
674.448	1326.75
674.893	1182.75
675.339	1028.75
675.785	913.75
676.23	891.75
676.676	823.75
677.122	800.75
677.567	786.75
678.013	776.75
678.458	769.75
678.904	774.75
679.349	752.75
679.794	753.75
680.24	749.75
680.685	744.75
681.131	759.75
681.576	735.75
682.021	738.75
682.466	759.75
682.912	756.75
683.357	807.75
683.802	840.75
684.247	916.75
684.692	984.75
685.137	1027.75
685.583	1089.75
686.028	1118.75
686.473	1114.75
686.918	968.75
687.363	876.75
687.807	831.75
688.252	783.75
688.697	766.75
689.142	721.75
689.587	719.75
690.032	737.75
690.477	763.75
690.921	802.75
691.366	859.75
691.811	860.75
692.255	916.75
692.7	1065.75
693.145	1412.75
693.589	2134.75
694.034	2906.75
694.478	3241.75
694.923	3059.75
695.367	3756.75
695.812	3345.75
696.256	1347.75
696.701	869.75
697.145	739.75
697.59	761.75
698.034	746.75
698.478	727.75
698.922	694.75
699.367	689.75
699.811	748.75
700.255	786.75
700.699	876.75
701.143	985.75
701.588	1039.75
702.032	1092.75
702.476	1113.75
702.92	1126.75
703.364	1292.75
703.808	1965.75
704.252	2733.75
704.696	3071.75
705.14	2895.75
705.584	3692.75
706.027	2893.75
706.471	1319.75
706.915	903.75
707.359	800.75
707.803	741.75
708.246	702.75
708.69	703.75
709.134	680.75
709.577	673.75
710.021	703.75
710.465	696.75
710.908	671.75
711.352	677.75
711.795	724.75
712.239	826.75
712.682	842.75
713.126	835.75
713.569	910.75
714.012	831.75
714.456	700.75
714.899	634.75
715.342	588.75
715.786	577.75
716.229	592.75
716.672	562.75
717.115	581.75
717.558	575.75
718.002	577.75
718.445	621.75
718.888	651.75
719.331	661.75
719.774	660.75
720.217	629.75
720.66	635.75
721.103	596.75
721.546	564.75
721.989	559.75
722.432	537.75
722.874	527.75
723.317	539.75
723.76	578.75
724.203	642.75
724.645	856.75
725.088	1089.75
725.531	1171.75
725.974	1124.75
726.416	1240.75
726.859	777.75
727.301	608.75
727.744	565.75
728.187	549.75
728.629	533.75
729.071	578.75
729.514	597.75
729.956	625.75
730.399	641.75
730.841	637.75
731.283	630.75
731.726	599.75
732.168	576.75
732.61	611.75
733.053	651.75
733.495	725.75
733.937	809.75
734.379	895.75
734.821	1123.75
735.263	1547.75
735.705	2627.75
736.148	4444.75
736.59	5283.75
737.032	4866.75
737.474	5265.75
737.916	2443.75
738.357	1160.75
738.799	810.75
739.241	725.75
739.683	675.75
740.125	693.75
740.567	708.75
741.008	715.75
741.45	753.75
741.892	789.75
742.334	824.75
742.775	765.75
743.217	815.75
743.658	684.75
744.1	669.75
744.542	757.75
744.983	779.75
745.425	801.75
745.866	832.75
746.307	704.75
746.749	695.75
747.19	870.75
747.632	1507.75
748.073	3005.75
748.514	4790.75
748.956	5821.75
749.397	7949.75
749.838	6347.75
750.279	5118.75
750.72	3809.75
751.162	1637.75
751.603	851.75
752.044	626.75
752.485	550.75
752.926	505.75
753.367	507.75
753.808	504.75
754.249	483.75
754.69	473.75
755.131	456.75
755.572	461.75
756.013	459.75
756.453	445.75
756.894	454.75
757.335	460.75
757.776	461.75
758.216	469.75
758.657	499.75
759.098	497.75
759.538	610.75
759.979	777.75
760.42	1237.75
760.86	2945.75
761.301	7105.75
761.741	10456.75
762.182	10745.75
762.622	10011.75
763.063	4325.75
763.503	1715.75
763.943	856.75
764.384	631.75
764.824	576.75
765.264	519.75
765.705	498.75
766.145	434.75
766.585	447.75
767.025	430.75
767.465	432.75
767.906	441.75
768.346	459.75
768.786	493.75
769.226	613.75
769.666	1049.75
770.106	2310.75
770.546	4221.75
770.986	4529.75
771.426	4419.75
771.866	2347.75
772.306	1045.75
772.745	548.75
773.185	451.75
773.625	430.75
774.065	442.75
774.505	509.75
774.944	746.75
775.384	1157.75
775.824	1339.75
776.263	1320.75
776.703	953.75
777.142	568.75
777.582	375.75
778.021	327.75
778.461	346.75
778.9	337.75
779.34	326.75
779.779	317.75
780.219	303.75
780.658	326.75
781.097	321.75
781.537	306.75
781.976	292.75
782.415	293.75
782.855	303.75
783.294	299.75
783.733	276.75
784.172	285.75
784.611	309.75
785.05	289.75
785.489	308.75
785.928	300.75
786.367	311.75
786.806	305.75
787.245	336.75
787.684	363.75
788.123	347.75
788.562	344.75
789.001	334.75
789.44	345.75
789.879	311.75
790.317	351.75
790.756	350.75
791.195	363.75
791.634	429.75
792.072	652.75
792.511	1405.75
792.95	3117.75
793.388	3962.75
793.827	3455.75
794.265	1927.75
794.704	915.75
795.142	506.75
795.581	395.75
796.019	370.75
796.458	355.75
796.896	347.75
797.334	379.75
797.773	466.75
798.211	732.75
798.649	1476.75
799.087	2477.75
799.526	3808.75
799.964	4329.75
800.402	3521.75
800.84	2023.75
801.278	1025.75
801.716	613.75
802.154	450.75
802.592	393.75
803.03	379.75
803.468	389.75
803.906	403.75
804.344	386.75
804.782	382.75
805.22	358.75
805.658	377.75
806.096	404.75
806.533	438.75
806.971	488.75
807.409	661.75
807.847	1060.75
808.284	2542.75
808.722	5129.75
809.16	7169.75
809.597	9876.75
810.035	12856.75
810.472	10751.75
810.91	5760.75
811.347	2767.75
811.785	1253.75
812.222	699.75
812.66	510.75
813.097	458.75
813.535	386.75
813.972	363.75
814.409	348.75
814.846	343.75
815.284	301.75
815.721	308.75
816.158	328.75
816.595	391.75
817.032	456.75
817.47	475.75
817.907	402.75
818.344	353.75
818.781	328.75
819.218	347.75
819.655	445.75
820.092	575.75
820.529	590.75
820.966	539.75
821.403	413.75
821.839	358.75
822.276	339.75
822.713	385.75
823.15	411.75
823.587	405.75
824.023	515.75
824.46	1169.75
824.897	2233.75
825.333	2335.75
825.77	1346.75
826.206	767.75
826.643	441.75
827.08	321.75
827.516	287.75
827.953	276.75
828.389	260.75
828.825	254.75
829.262	241.75
829.698	210.75
830.135	195.75
830.571	225.75
831.007	227.75
831.443	219.75
831.88	205.75
832.316	207.75
832.752	231.75
833.188	224.75
833.624	208.75
834.06	229.75
834.497	234.75
834.933	236.75
835.369	234.75
835.805	248.75
836.241	250.75
836.677	283.75
837.112	298.75
837.548	327.75
837.984	422.75
838.42	697.75
838.856	1856.75
839.292	3973.75
839.727	4260.75
840.163	2767.75
840.599	3336.75
841.034	4996.75
841.47	3835.75
841.906	2073.75
842.341	1130.75
842.777	673.75
843.212	596.75
843.648	483.75
844.083	352.75
844.519	289.75
844.954	242.75
845.39	223.75
845.825	235.75
846.261	200.75
846.696	222.75
847.131	208.75
847.566	215.75
848.002	204.75
848.437	201.75
848.872	215.75
849.307	234.75
849.742	306.75
850.177	682.75
850.613	1479.75
851.048	1594.75
851.483	911.75
851.918	544.75
852.353	317.75
852.788	237.75
853.223	195.75
853.657	177.75
854.092	175.75
854.527	162.75
854.962	200.75
855.397	183.75
855.832	188.75
856.266	186.75
856.701	172.75
857.136	180.75
857.57	180.75
858.005	216.75
858.44	205.75
858.874	179.75
859.309	205.75
859.743	216.75
860.178	194.75
860.612	202.75
861.047	221.75
861.481	267.75
861.915	237.75
862.35	223.75
862.784	183.75
863.218	165.75
863.653	179.75
864.087	202.75
864.521	204.75
864.955	284.75
865.39	423.75
865.824	422.75
866.258	429.75
866.692	593.75
867.126	512.75
867.56	381.75
867.994	243.75
868.428	217.75
868.862	232.75
869.296	211.75
869.73	234.75
870.164	215.75
870.598	224.75
871.031	185.75
871.465	167.75
871.899	145.75
872.333	147.75
872.766	152.75
873.2	147.75
873.634	121.75
874.067	134.75
874.501	160.75
874.935	145.75
875.368	142.75
875.802	157.75
876.235	150.75
876.669	141.75
877.102	130.75
877.535	129.75
877.969	144.75
878.402	129.75
878.836	125.75
879.269	141.75
879.702	158.75
880.135	132.75
880.569	135.75
881.002	143.75
881.435	135.75
881.868	118.75
882.301	141.75
882.734	129.75
883.167	129.75
883.601	130.75
884.034	131.75
884.467	121.75
884.899	113.75
885.332	129.75
885.765	104.75
886.198	116.75
886.631	141.75
887.064	109.75
887.497	126.75
887.929	137.75
888.362	119.75
888.795	129.75
889.228	126.75
889.66	131.75
890.093	115.75
890.526	118.75
890.958	133.75
891.391	123.75
891.823	118.75
892.256	118.75
892.688	121.75
893.121	126.75
893.553	132.75
893.985	116.75
894.418	131.75
894.85	137.75
895.282	117.75
895.715	124.75
896.147	117.75
896.579	122.75
897.011	118.75
897.444	116.75
897.876	112.75
898.308	125.75
898.74	123.75
899.172	133.75
899.604	121.75
900.036	95.75
900.468	128.75
900.9	129.75
901.332	134.75
901.764	143.75
902.196	138.75
902.628	130.75
903.06	135.75
903.491	141.75
903.923	146.75
904.355	153.75
904.787	126.75
905.218	154.75
905.65	138.75
906.082	127.75
906.513	149.75
906.945	138.75
907.376	141.75
907.808	117.75
908.239	126.75
908.671	128.75
909.102	161.75
909.534	170.75
909.965	232.75
910.397	366.75
910.828	930.75
911.259	963.75
911.691	593.75
912.122	417.75
912.553	241.75
912.984	170.75
913.415	145.75
913.847	121.75
914.278	119.75
914.709	120.75
915.14	123.75
915.571	107.75
916.002	115.75
916.433	125.75
916.864	119.75
917.295	127.75
917.726	128.75
918.157	127.75
918.587	159.75
919.018	138.75
919.449	130.75
919.88	152.75
920.311	153.75
920.741	221.75
921.172	500.75
921.603	379.75
922.033	279.75
922.464	215.75
922.895	142.75
923.325	139.75
923.756	124.75
924.186	125.75
924.617	123.75
925.047	157.75
925.478	165.75
925.908	154.75
926.338	147.75
926.769	126.75
927.199	109.75
927.629	105.75
928.06	129.75
928.49	121.75
928.92	106.75
929.35	110.75
929.78	89.75
930.21	103.75
930.641	95.75
931.071	98.75
931.501	112.75
931.931	114.75
932.361	93.75
932.791	98.75
933.221	118.75
933.651	104.75
934.08	128.75
934.51	145.75
934.94	117.75
935.37	114.75
935.8	92.75
936.229	94.75
936.659	85.75
937.089	109.75
937.519	114.75
937.948	140.75
938.378	136.75
938.807	129.75
939.237	126.75
939.666	106.75
940.096	88.75
940.525	86.75
940.955	103.75
941.384	82.75
941.814	97.75
942.243	84.75
942.672	88.75
943.102	108.75
943.531	97.75
943.96	99.75
944.39	93.75
944.819	107.75
945.248	90.75
945.677	88.75
946.106	91.75
946.535	100.75
946.964	88.75
947.393	84.75
947.822	84.75
948.251	90.75
948.68	89.75
949.109	91.75
949.538	88.75
949.967	106.75
950.396	96.75
950.825	95.75
951.254	90.75
951.682	102.75
952.111	94.75
952.54	88.75
952.969	79.75
953.397	87.75
953.826	95.75
954.254	85.75
954.683	97.75
955.112	80.75
955.54	87.75
955.969	67.75
956.397	93.75
956.826	96.75
957.254	79.75
957.682	82.75
958.111	89.75
958.539	98.75
958.967	99.75
959.396	97.75
959.824	84.75
960.252	90.75
960.68	100.75
961.109	71.75
961.537	83.75
961.965	90.75
962.393	87.75
962.821	102.75
963.249	94.75
963.677	89.75
964.105	129.75
964.533	221.75
964.961	167.75
965.389	146.75
965.817	114.75
966.245	107.75
966.672	100.75
967.1	103.75
967.528	107.75
967.956	100.75
968.383	100.75
968.811	93.75
969.239	84.75
969.666	93.75
970.094	97.75
970.522	96.75
970.949	105.75
971.377	88.75
971.804	84.75
972.232	84.75
972.659	104.75
973.087	90.75
973.514	78.75
973.941	88.75
974.369	96.75
974.796	87.75
975.223	76.75
975.651	83.75
976.078	109.75
976.505	95.75
976.932	104.75
977.359	139.75
977.786	104.75
978.214	109.75
978.641	85.75
979.068	104.75
979.495	90.75
979.922	102.75
980.349	96.75
980.776	97.75
981.202	95.75
981.629	89.75
982.056	81.75
982.483	75.75
982.91	78.75
983.337	78.75
983.763	108.75
984.19	101.75
984.617	81.75
985.043	90.75
985.47	87.75
985.897	86.75
986.323	99.75
986.75	72.75
987.176	99.75
987.603	101.75
988.029	85.75
988.456	89.75
988.882	101.75
989.308	90.75
989.735	88.75
990.161	72.75
990.587	86.75
991.014	87.75
991.44	88.75
991.866	85.75
992.292	85.75
992.719	98.75
993.145	89.75
993.571	87.75
993.997	99.75
994.423	87.75
994.849	96.75
995.275	79.75
995.701	106.75
996.127	87.75
996.553	94.75
996.979	88.75
997.405	80.75
997.83	89.75
998.256	89.75
998.682	86.75
999.108	79.75
999.534	87.75
999.959	75.75
1000.385	77.75
1000.811	90.75
1001.236	91.75
1001.662	87.75
1002.087	99.75
1002.513	89.75
1002.938	100.75
1003.364	84.75
1003.789	81.75
1004.215	86.75
1004.64	90.75
1005.066	82.75
1005.491	70.75
1005.916	104.75
1006.342	89.75
1006.767	97.75
1007.192	92.75
1007.617	95.75
1008.042	86.75
1008.468	89.75
1008.893	88.75
1009.318	95.75
1009.743	88.75
1010.168	91.75
1010.593	102.75
1011.018	95.75
1011.443	117.75
1011.868	87.75
1012.293	87.75
1012.718	91.75
1013.143	94.75
1013.567	79.75
1013.992	77.75
1014.417	99.75
1014.842	86.75
1015.267	80.75
1015.691	100.75
1016.116	100.75
1016.541	97.75
1016.965	89.75
1017.39	74.75
1017.814	75.75
1018.239	91.75
1018.663	94.75
1019.088	90.75
1019.512	103.75
1019.937	92.75
1020.361	86.75
1020.785	94.75
1021.21	82.75
1021.634	84.75
1022.058	82.75
1022.483	88.75
1022.907	90.75
1023.331	85.75
1023.755	81.75
1024.179	79.75
1024.604	67.75
1025.028	84.75
1025.452	77.75
1025.876	75.75
1026.3	90.75
1026.724	75.75
1027.148	95.75
1027.572	97.75
1027.996	85.75
1028.42	73.75
1028.843	88.75
1029.267	87.75
1029.691	79.75
1030.115	84.75
1030.539	76.75
1030.962	97.75
1031.386	87.75
1031.81	81.75
1032.233	90.75
1032.657	65.75
1033.08	85.75
1033.504	72.75
1033.927	81.75
1034.351	87.75
1034.774	90.75
1035.198	86.75
1035.621	90.75
1036.045	78.75
1036.468	77.75
1036.891	85.75
1037.315	87.75
1037.738	88.75
1038.161	78.75
1038.584	106.75
1039.008	69.75
1039.431	75.75
1039.854	83.75
1040.277	90.75
1040.7	75.75
1041.123	91.75
1041.546	75.75
1041.969	71.75
1042.392	86.75
1042.815	80.75
1043.238	92.75
1043.661	93.75
1044.084	77.75
1044.507	71.75
1044.93	89.75
1045.352	82.75
1045.775	84.75
1046.198	92.75
1046.621	86.75
1047.043	92.75
1047.466	83.75
1047.889	79.75
1048.311	91.75
1048.734	81.75
1049.156	84.75
1049.579	76.75
1050.001	93.75
1050.424	89.75
1050.846	74.75
1051.269	92.75
1051.691	90.75
1052.113	78.75
1052.536	80.75
1052.958	83.75
1053.38	78.75
1053.802	79.75
1054.225	80.75
1054.647	59.75
1055.069	105.75
1055.491	80.75
1055.913	82.75
1056.335	80.75
1056.757	80.75
1057.179	78.75
1057.601	71.75
1058.023	93.75
1058.445	87.75
1058.867	87.75
1059.289	82.75
1059.711	78.75
1060.133	89.75
1060.555	89.75
1060.976	96.75
1061.398	85.75
1061.82	69.75
1062.241	89.75
1062.663	105.75
1063.085	88.75
1063.506	84.75
1063.928	74.75
1064.35	79.75
1064.771	107.75
1065.193	70.75
1065.614	89.75
1066.035	88.75
1066.457	87.75
1066.878	85.75
1067.3	78.75
1067.721	76.75
1068.142	81.75
1068.564	77.75
1068.985	68.75
1069.406	98.75
1069.827	80.75
1070.248	75.75
1070.67	89.75
1071.091	59.75
1071.512	82.75
1071.933	93.75
1072.354	89.75
1072.775	81.75
1073.196	96.75
1073.617	67.75
1074.038	91.75
1074.459	71.75
1074.88	107.75
1075.3	89.75
1075.721	87.75
1076.142	91.75
1076.563	80.75
1076.983	95.75
1077.404	93.75
1077.825	79.75
1078.246	78.75
1078.666	71.75
1079.087	72.75
1079.507	76.75
1079.928	93.75
1080.348	86.75
1080.769	77.75
1081.189	79.75
1081.61	75.75
1082.03	93.75
1082.451	82.75
1082.871	73.75
1083.291	66.75
1083.711	76.75
1084.132	77.75
1084.552	73.75
1084.972	81.75
1085.392	77.75
1085.813	81.75
1086.233	92.75
1086.653	82.75
1087.073	82.75
1087.493	63.75
1087.913	73.75
1088.333	69.75
1088.753	92.75
1089.173	69.75
1089.593	88.75
1090.013	90.75
1090.433	90.75
1090.852	89.75
1091.272	83.75
1091.692	79.75
1092.112	88.75
1092.531	87.75
1092.951	93.75
1093.371	93.75
1093.79	79.75
1094.21	88.75
1094.63	83.75
1095.049	77.75
1095.469	76.75
1095.888	87.75
1096.308	72.75
1096.727	81.75
1097.146	80.75
1097.566	78.75
1097.985	72.75
1098.405	92.75
1098.824	82.75
1099.243	79.75
1099.662	93.75
1100.082	93.75
1100.501	85.75
1100.92	92.75
1101.339	81.75
1101.758	79.75
