Data from 20170802-ORNL-NYSim-Air_HRD10391_10-36-24-598.txt Node
Date: Wed Aug 02 10:36:24 EDT 2017
User: Ender
Spectrometer: HR+D1039
Trigger mode: 0
Integration Time (sec): 3.750000E-3
Scans to average: 1
Electric dark correction enabled: true
Nonlinearity correction enabled: false
Boxcar width: 0
XAxis mode: Wavelengths
Number of Pixels in Spectrum: 2048
>>>>>Begin Spectral Data<<<<<
187.836	7.75
188.309	7.75
188.782	7.75
189.255	-5.25
189.728	-11.25
190.201	-11.25
190.674	-12.25
191.147	-14.25
191.619	-8.25
192.092	-6.25
192.565	-15.25
193.038	-7.25
193.511	5.75
193.984	6.75
194.456	8.75
194.929	20.75
195.402	20.75
195.874	20.75
196.347	16.75
196.82	27.75
197.292	22.75
197.765	25.75
198.237	51.75
198.71	45.75
199.182	31.75
199.655	38.75
200.127	56.75
200.6	62.75
201.072	50.75
201.544	55.75
202.017	72.75
202.489	50.75
202.961	67.75
203.433	70.75
203.906	71.75
204.378	87.75
204.85	72.75
205.322	80.75
205.794	83.75
206.266	84.75
206.739	78.75
207.211	87.75
207.683	79.75
208.155	80.75
208.627	81.75
209.099	86.75
209.57	96.75
210.042	71.75
210.514	81.75
210.986	88.75
211.458	83.75
211.93	82.75
212.402	83.75
212.873	95.75
213.345	97.75
213.817	89.75
214.288	107.75
214.76	99.75
215.232	86.75
215.703	85.75
216.175	82.75
216.646	85.75
217.118	77.75
217.589	77.75
218.061	98.75
218.532	76.75
219.004	90.75
219.475	72.75
219.946	81.75
220.418	88.75
220.889	76.75
221.36	87.75
221.832	76.75
222.303	71.75
222.774	103.75
223.245	98.75
223.717	92.75
224.188	75.75
224.659	70.75
225.13	79.75
225.601	83.75
226.072	79.75
226.543	89.75
227.014	85.75
227.485	71.75
227.956	84.75
228.427	71.75
228.898	91.75
229.369	89.75
229.839	83.75
230.31	95.75
230.781	86.75
231.252	87.75
231.722	75.75
232.193	91.75
232.664	73.75
233.135	103.75
233.605	87.75
234.076	91.75
234.546	88.75
235.017	75.75
235.487	82.75
235.958	72.75
236.428	91.75
236.899	74.75
237.369	74.75
237.84	95.75
238.31	81.75
238.78	94.75
239.251	85.75
239.721	87.75
240.191	99.75
240.662	98.75
241.132	104.75
241.602	102.75
242.072	89.75
242.542	81.75
243.013	96.75
243.483	96.75
243.953	91.75
244.423	81.75
244.893	93.75
245.363	80.75
245.833	100.75
246.303	88.75
246.773	101.75
247.243	107.75
247.712	95.75
248.182	104.75
248.652	100.75
249.122	94.75
249.592	99.75
250.061	87.75
250.531	90.75
251.001	108.75
251.471	105.75
251.94	86.75
252.41	83.75
252.879	93.75
253.349	104.75
253.818	99.75
254.288	89.75
254.757	88.75
255.227	75.75
255.696	99.75
256.166	93.75
256.635	96.75
257.105	97.75
257.574	97.75
258.043	103.75
258.513	97.75
258.982	106.75
259.451	95.75
259.92	102.75
260.389	105.75
260.859	85.75
261.328	105.75
261.797	97.75
262.266	96.75
262.735	92.75
263.204	109.75
263.673	104.75
264.142	97.75
264.611	101.75
265.08	97.75
265.549	119.75
266.018	101.75
266.487	109.75
266.955	107.75
267.424	113.75
267.893	116.75
268.362	91.75
268.83	99.75
269.299	100.75
269.768	104.75
270.236	117.75
270.705	111.75
271.174	112.75
271.642	104.75
272.111	109.75
272.579	111.75
273.048	128.75
273.516	124.75
273.985	103.75
274.453	115.75
274.922	107.75
275.39	104.75
275.858	116.75
276.327	112.75
276.795	105.75
277.263	119.75
277.731	111.75
278.2	109.75
278.668	111.75
279.136	96.75
279.604	130.75
280.072	123.75
280.54	122.75
281.008	102.75
281.477	110.75
281.945	134.75
282.413	129.75
282.881	128.75
283.348	103.75
283.816	120.75
284.284	131.75
284.752	134.75
285.22	125.75
285.688	130.75
286.156	120.75
286.623	116.75
287.091	107.75
287.559	125.75
288.026	115.75
288.494	108.75
288.962	125.75
289.429	113.75
289.897	122.75
290.364	137.75
290.832	113.75
291.3	130.75
291.767	136.75
292.234	139.75
292.702	135.75
293.169	134.75
293.637	146.75
294.104	154.75
294.571	129.75
295.039	125.75
295.506	131.75
295.973	146.75
296.44	143.75
296.908	131.75
297.375	160.75
297.842	126.75
298.309	139.75
298.776	130.75
299.243	145.75
299.71	124.75
300.177	145.75
300.644	157.75
301.111	149.75
301.578	153.75
302.045	139.75
302.512	127.75
302.979	144.75
303.446	148.75
303.913	152.75
304.379	150.75
304.846	143.75
305.313	145.75
305.78	146.75
306.246	147.75
306.713	156.75
307.18	143.75
307.646	176.75
308.113	156.75
308.579	155.75
309.046	156.75
309.512	139.75
309.979	162.75
310.445	170.75
310.912	161.75
311.378	159.75
311.845	171.75
312.311	178.75
312.777	164.75
313.244	151.75
313.71	178.75
314.176	177.75
314.642	161.75
315.109	154.75
315.575	161.75
316.041	169.75
316.507	184.75
316.973	145.75
317.439	169.75
317.905	185.75
318.371	166.75
318.837	195.75
319.303	191.75
319.769	167.75
320.235	189.75
320.701	181.75
321.167	186.75
321.633	177.75
322.099	170.75
322.564	200.75
323.03	181.75
323.496	196.75
323.962	183.75
324.427	176.75
324.893	198.75
325.359	192.75
325.824	199.75
326.29	201.75
326.755	185.75
327.221	193.75
327.686	204.75
328.152	187.75
328.617	188.75
329.083	195.75
329.548	210.75
330.014	185.75
330.479	184.75
330.944	201.75
331.41	206.75
331.875	207.75
332.34	194.75
332.805	216.75
333.271	219.75
333.736	214.75
334.201	229.75
334.666	194.75
335.131	204.75
335.596	209.75
336.061	220.75
336.526	213.75
336.991	234.75
337.456	190.75
337.921	211.75
338.386	208.75
338.851	221.75
339.316	209.75
339.781	206.75
340.246	218.75
340.711	217.75
341.175	231.75
341.64	217.75
342.105	224.75
342.569	222.75
343.034	213.75
343.499	234.75
343.963	256.75
344.428	245.75
344.893	241.75
345.357	245.75
345.822	242.75
346.286	233.75
346.751	219.75
347.215	269.75
347.679	232.75
348.144	264.75
348.608	262.75
349.073	265.75
349.537	272.75
350.001	261.75
350.465	287.75
350.93	276.75
351.394	283.75
351.858	280.75
352.322	275.75
352.786	274.75
353.25	287.75
353.715	277.75
354.179	292.75
354.643	293.75
355.107	317.75
355.571	307.75
356.035	289.75
356.498	303.75
356.962	285.75
357.426	299.75
357.89	285.75
358.354	281.75
358.818	276.75
359.281	293.75
359.745	311.75
360.209	293.75
360.673	303.75
361.136	304.75
361.6	282.75
362.064	315.75
362.527	287.75
362.991	301.75
363.454	289.75
363.918	313.75
364.381	302.75
364.845	306.75
365.308	291.75
365.772	315.75
366.235	315.75
366.698	303.75
367.162	324.75
367.625	309.75
368.088	335.75
368.552	318.75
369.015	317.75
369.478	329.75
369.941	317.75
370.404	328.75
370.867	296.75
371.331	311.75
371.794	343.75
372.257	353.75
372.72	359.75
373.183	339.75
373.646	351.75
374.109	348.75
374.572	343.75
375.035	329.75
375.497	362.75
375.96	332.75
376.423	359.75
376.886	362.75
377.349	367.75
377.811	360.75
378.274	345.75
378.737	356.75
379.199	363.75
379.662	370.75
380.125	362.75
380.587	368.75
381.05	378.75
381.512	383.75
381.975	385.75
382.437	413.75
382.9	394.75
383.362	395.75
383.825	395.75
384.287	383.75
384.75	399.75
385.212	394.75
385.674	411.75
386.136	404.75
386.599	382.75
387.061	419.75
387.523	419.75
387.985	395.75
388.447	396.75
388.91	384.75
389.372	435.75
389.834	421.75
390.296	410.75
390.758	448.75
391.22	437.75
391.682	419.75
392.144	426.75
392.606	408.75
393.068	408.75
393.529	438.75
393.991	460.75
394.453	450.75
394.915	425.75
395.377	443.75
395.838	441.75
396.3	413.75
396.762	413.75
397.224	431.75
397.685	453.75
398.147	420.75
398.608	450.75
399.07	445.75
399.531	453.75
399.993	487.75
400.454	469.75
400.916	457.75
401.377	461.75
401.839	480.75
402.3	477.75
402.762	491.75
403.223	505.75
403.684	538.75
404.145	480.75
404.607	467.75
405.068	485.75
405.529	462.75
405.99	515.75
406.451	470.75
406.913	491.75
407.374	505.75
407.835	487.75
408.296	495.75
408.757	505.75
409.218	509.75
409.679	487.75
410.14	513.75
410.601	548.75
411.062	538.75
411.522	560.75
411.983	569.75
412.444	577.75
412.905	601.75
413.366	609.75
413.826	641.75
414.287	695.75
414.748	823.75
415.208	870.75
415.669	747.75
416.13	681.75
416.59	684.75
417.051	701.75
417.511	717.75
417.972	749.75
418.432	777.75
418.893	900.75
419.353	857.75
419.814	693.75
420.274	609.75
420.734	613.75
421.195	642.75
421.655	585.75
422.115	627.75
422.576	617.75
423.036	620.75
423.496	661.75
423.956	671.75
424.416	677.75
424.876	785.75
425.336	771.75
425.797	742.75
426.257	729.75
426.717	676.75
427.177	643.75
427.637	615.75
428.097	639.75
428.556	643.75
429.016	710.75
429.476	677.75
429.936	639.75
430.396	637.75
430.856	653.75
431.315	634.75
431.775	692.75
432.235	771.75
432.694	770.75
433.154	715.75
433.614	713.75
434.073	695.75
434.533	628.75
434.993	609.75
435.452	651.75
435.912	656.75
436.371	671.75
436.83	677.75
437.29	653.75
437.749	648.75
438.209	667.75
438.668	664.75
439.127	657.75
439.587	669.75
440.046	658.75
440.505	680.75
440.964	698.75
441.424	711.75
441.883	737.75
442.342	695.75
442.801	654.75
443.26	695.75
443.719	669.75
444.178	683.75
444.637	698.75
445.096	684.75
445.555	712.75
446.014	696.75
446.473	719.75
446.932	677.75
447.391	696.75
447.849	729.75
448.308	699.75
448.767	705.75
449.226	712.75
449.685	747.75
450.143	780.75
450.602	759.75
451.061	707.75
451.519	759.75
451.978	701.75
452.436	707.75
452.895	715.75
453.353	729.75
453.812	695.75
454.27	691.75
454.729	721.75
455.187	731.75
455.646	739.75
456.104	724.75
456.562	720.75
457.021	740.75
457.479	719.75
457.937	760.75
458.395	746.75
458.854	743.75
459.312	737.75
459.77	733.75
460.228	766.75
460.686	747.75
461.144	796.75
461.602	762.75
462.06	769.75
462.518	781.75
462.976	763.75
463.434	769.75
463.892	800.75
464.35	794.75
464.808	815.75
465.266	817.75
465.724	832.75
466.181	834.75
466.639	823.75
467.097	848.75
467.555	877.75
468.012	859.75
468.47	899.75
468.928	869.75
469.385	882.75
469.843	920.75
470.3	947.75
470.758	948.75
471.215	958.75
471.673	1035.75
472.13	1010.75
472.588	1012.75
473.045	975.75
473.503	1023.75
473.96	1045.75
474.417	1072.75
474.875	1101.75
475.332	1149.75
475.789	1135.75
476.246	1110.75
476.704	1187.75
477.161	1158.75
477.618	1163.75
478.075	1167.75
478.532	1264.75
478.989	1254.75
479.446	1319.75
479.903	1337.75
480.36	1339.75
480.817	1333.75
481.274	1338.75
481.731	1373.75
482.188	1406.75
482.645	1453.75
483.102	1461.75
483.558	1486.75
484.015	1512.75
484.472	1505.75
484.929	1551.75
485.385	1530.75
485.842	1543.75
486.299	1568.75
486.755	1515.75
487.212	1545.75
487.668	1450.75
488.125	1478.75
488.582	1450.75
489.038	1469.75
489.494	1459.75
489.951	1494.75
490.407	1498.75
490.864	1523.75
491.32	1486.75
491.776	1474.75
492.233	1499.75
492.689	1523.75
493.145	1472.75
493.602	1460.75
494.058	1542.75
494.514	1509.75
494.97	1525.75
495.426	1543.75
495.882	1578.75
496.338	1583.75
496.794	1547.75
497.251	1551.75
497.707	1601.75
498.163	1616.75
498.618	1608.75
499.074	1601.75
499.53	1626.75
499.986	1638.75
500.442	1631.75
500.898	1589.75
501.354	1649.75
501.809	1602.75
502.265	1642.75
502.721	1635.75
503.177	1638.75
503.632	1730.75
504.088	1667.75
504.543	1747.75
504.999	1685.75
505.455	1698.75
505.91	1731.75
506.366	1719.75
506.821	1720.75
507.277	1679.75
507.732	1689.75
508.187	1724.75
508.643	1692.75
509.098	1697.75
509.553	1742.75
510.009	1766.75
510.464	1780.75
510.919	1808.75
511.375	1829.75
511.83	1870.75
512.285	1874.75
512.74	1936.75
513.195	1943.75
513.65	2011.75
514.105	2012.75
514.56	1990.75
515.015	2045.75
515.47	2087.75
515.925	2037.75
516.38	2047.75
516.835	2073.75
517.29	2040.75
517.745	2041.75
518.2	2061.75
518.655	1985.75
519.109	1959.75
519.564	1909.75
520.019	1946.75
520.474	1897.75
520.928	1885.75
521.383	1853.75
521.838	1883.75
522.292	1823.75
522.747	1839.75
523.201	1789.75
523.656	1817.75
524.11	1824.75
524.565	1755.75
525.019	1773.75
525.474	1779.75
525.928	1764.75
526.382	1709.75
526.837	1827.75
527.291	1756.75
527.745	1750.75
528.2	1805.75
528.654	1755.75
529.108	1738.75
529.562	1763.75
530.016	1799.75
530.47	1788.75
530.925	1771.75
531.379	1785.75
531.833	1777.75
532.287	1813.75
532.741	1761.75
533.195	1776.75
533.649	1801.75
534.103	1755.75
534.556	1742.75
535.01	1793.75
535.464	1769.75
535.918	1757.75
536.372	1807.75
536.826	1777.75
537.279	1751.75
537.733	1781.75
538.187	1760.75
538.64	1761.75
539.094	1801.75
539.548	1769.75
540.001	1795.75
540.455	1859.75
540.908	1848.75
541.362	1876.75
541.815	1917.75
542.269	1927.75
542.722	1908.75
543.175	1924.75
543.629	1940.75
544.082	1959.75
544.536	1998.75
544.989	1963.75
545.442	1909.75
545.895	2006.75
546.349	2011.75
546.802	1981.75
547.255	1977.75
547.708	1989.75
548.161	2039.75
548.614	2049.75
549.067	2047.75
549.52	2044.75
549.973	1988.75
550.426	1991.75
550.879	1990.75
551.332	1988.75
551.785	2019.75
552.238	2019.75
552.691	2016.75
553.144	2028.75
553.596	2105.75
554.049	2093.75
554.502	2139.75
554.955	2197.75
555.407	2234.75
555.86	2194.75
556.313	2177.75
556.765	2242.75
557.218	2169.75
557.67	2141.75
558.123	2138.75
558.576	2121.75
559.028	2104.75
559.48	2153.75
559.933	2143.75
560.385	2071.75
560.838	2000.75
561.29	1937.75
561.742	1909.75
562.195	1854.75
562.647	1873.75
563.099	1898.75
563.551	1847.75
564.004	1883.75
564.456	1886.75
564.908	1825.75
565.36	1740.75
565.812	1712.75
566.264	1729.75
566.716	1695.75
567.168	1675.75
567.62	1642.75
568.072	1656.75
568.524	1655.75
568.976	1641.75
569.428	1612.75
569.88	1614.75
570.332	1647.75
570.784	1668.75
571.235	1621.75
571.687	1661.75
572.139	1664.75
572.59	1637.75
573.042	1677.75
573.494	1682.75
573.945	1651.75
574.397	1653.75
574.849	1657.75
575.3	1613.75
575.752	1614.75
576.203	1579.75
576.655	1607.75
577.106	1567.75
577.557	1603.75
578.009	1545.75
578.46	1561.75
578.912	1527.75
579.363	1524.75
579.814	1561.75
580.265	1537.75
580.717	1562.75
581.168	1575.75
581.619	1562.75
582.07	1595.75
582.521	1563.75
582.972	1570.75
583.423	1578.75
583.875	1556.75
584.326	1544.75
584.777	1570.75
585.227	1634.75
585.678	1641.75
586.129	1689.75
586.58	1684.75
587.031	1693.75
587.482	1741.75
587.933	1800.75
588.384	1787.75
588.834	1795.75
589.285	1757.75
589.736	1747.75
590.186	1791.75
590.637	1758.75
591.088	1712.75
591.538	1663.75
591.989	1683.75
592.439	1634.75
592.89	1626.75
593.34	1639.75
593.791	1613.75
594.241	1595.75
594.692	1588.75
595.142	1577.75
595.593	1585.75
596.043	1639.75
596.493	1643.75
596.943	1599.75
597.394	1653.75
597.844	1697.75
598.294	1671.75
598.744	1785.75
599.195	1767.75
599.645	1913.75
600.095	2055.75
600.545	2143.75
600.995	2238.75
601.445	2347.75
601.895	2453.75
602.345	2533.75
602.795	2543.75
603.245	2451.75
603.695	2306.75
604.145	2134.75
604.594	2021.75
605.044	1899.75
605.494	1834.75
605.944	1689.75
606.393	1631.75
606.843	1635.75
607.293	1641.75
607.743	1613.75
608.192	1615.75
608.642	1602.75
609.091	1597.75
609.541	1639.75
609.99	1637.75
610.44	1584.75
610.889	1592.75
611.339	1541.75
611.788	1522.75
612.238	1559.75
612.687	1593.75
613.136	1541.75
613.586	1584.75
614.035	1588.75
614.484	1580.75
614.933	1601.75
615.383	1549.75
615.832	1553.75
616.281	1454.75
616.73	1463.75
617.179	1416.75
617.628	1386.75
618.077	1402.75
618.526	1375.75
618.975	1377.75
619.424	1318.75
619.873	1347.75
620.322	1323.75
620.771	1319.75
621.22	1311.75
621.669	1290.75
622.118	1257.75
622.567	1259.75
623.015	1219.75
623.464	1231.75
623.913	1226.75
624.361	1213.75
624.81	1172.75
625.259	1206.75
625.707	1207.75
626.156	1201.75
626.604	1188.75
627.053	1218.75
627.501	1234.75
627.95	1265.75
628.398	1253.75
628.847	1226.75
629.295	1276.75
629.744	1241.75
630.192	1223.75
630.64	1153.75
631.089	1143.75
631.537	1157.75
631.985	1093.75
632.433	1118.75
632.881	1102.75
633.33	1106.75
633.778	1116.75
634.226	1119.75
634.674	1115.75
635.122	1127.75
635.57	1169.75
636.018	1150.75
636.466	1159.75
636.914	1170.75
637.362	1135.75
637.81	1175.75
638.258	1222.75
638.705	1217.75
639.153	1236.75
639.601	1245.75
640.049	1296.75
640.497	1294.75
640.944	1381.75
641.392	1335.75
641.84	1239.75
642.287	1137.75
642.735	1122.75
643.182	1073.75
643.63	1105.75
644.078	1048.75
644.525	1098.75
644.973	1053.75
645.42	1098.75
645.867	1112.75
646.315	1063.75
646.762	1113.75
647.21	1099.75
647.657	1117.75
648.104	1099.75
648.551	1047.75
648.999	1045.75
649.446	1022.75
649.893	1017.75
650.34	1013.75
650.787	1048.75
651.234	1088.75
651.682	1169.75
652.129	1257.75
652.576	1392.75
653.023	1646.75
653.47	1825.75
653.917	1884.75
654.363	1911.75
654.81	1960.75
655.257	2105.75
655.704	1777.75
656.151	1358.75
656.598	1183.75
657.044	1059.75
657.491	1066.75
657.938	1039.75
658.385	1020.75
658.831	1010.75
659.278	972.75
659.724	1003.75
660.171	966.75
660.618	974.75
661.064	908.75
661.511	949.75
661.957	938.75
662.404	940.75
662.85	989.75
663.296	965.75
663.743	985.75
664.189	957.75
664.635	935.75
665.082	958.75
665.528	962.75
665.974	951.75
666.42	931.75
666.867	931.75
667.313	892.75
667.759	895.75
668.205	842.75
668.651	873.75
669.097	881.75
669.543	883.75
669.989	886.75
670.435	919.75
670.881	910.75
671.327	951.75
671.773	989.75
672.219	1068.75
672.665	1146.75
673.11	1214.75
673.556	1305.75
674.002	1302.75
674.448	1367.75
674.893	1175.75
675.339	1039.75
675.785	905.75
676.23	880.75
676.676	857.75
677.122	807.75
677.567	807.75
678.013	784.75
678.458	757.75
678.904	769.75
679.349	741.75
679.794	744.75
680.24	769.75
680.685	755.75
681.131	752.75
681.576	748.75
682.021	745.75
682.466	763.75
682.912	749.75
683.357	788.75
683.802	837.75
684.247	921.75
684.692	1021.75
685.137	1071.75
685.583	1112.75
686.028	1142.75
686.473	1143.75
686.918	982.75
687.363	874.75
687.807	869.75
688.252	817.75
688.697	774.75
689.142	718.75
689.587	767.75
690.032	724.75
690.477	771.75
690.921	807.75
691.366	835.75
691.811	909.75
692.255	961.75
692.7	1061.75
693.145	1417.75
693.589	2203.75
694.034	2960.75
694.478	3280.75
694.923	2968.75
695.367	3833.75
695.812	3453.75
696.256	1355.75
696.701	871.75
697.145	778.75
697.59	748.75
698.034	706.75
698.478	730.75
698.922	710.75
699.367	739.75
699.811	759.75
700.255	802.75
700.699	903.75
701.143	968.75
701.588	1065.75
702.032	1120.75
702.476	1104.75
702.92	1123.75
703.364	1328.75
703.808	1973.75
704.252	2762.75
704.696	3056.75
705.14	2874.75
705.584	3756.75
706.027	2940.75
706.471	1379.75
706.915	941.75
707.359	791.75
707.803	731.75
708.246	707.75
708.69	704.75
709.134	675.75
709.577	658.75
710.021	701.75
710.465	698.75
710.908	674.75
711.352	699.75
711.795	773.75
712.239	864.75
712.682	866.75
713.126	847.75
713.569	906.75
714.012	861.75
714.456	703.75
714.899	663.75
715.342	660.75
715.786	596.75
716.229	589.75
716.672	566.75
717.115	581.75
717.558	589.75
718.002	602.75
718.445	615.75
718.888	643.75
719.331	663.75
719.774	694.75
720.217	687.75
720.66	628.75
721.103	608.75
721.546	595.75
721.989	552.75
722.432	557.75
722.874	581.75
723.317	566.75
723.76	570.75
724.203	661.75
724.645	858.75
725.088	1103.75
725.531	1175.75
725.974	1120.75
726.416	1211.75
726.859	754.75
727.301	590.75
727.744	541.75
728.187	549.75
728.629	560.75
729.071	577.75
729.514	593.75
729.956	616.75
730.399	618.75
730.841	648.75
731.283	629.75
731.726	623.75
732.168	629.75
732.61	646.75
733.053	668.75
733.495	753.75
733.937	819.75
734.379	942.75
734.821	1093.75
735.263	1579.75
735.705	2670.75
736.148	4553.75
736.59	5247.75
737.032	4970.75
737.474	5290.75
737.916	2480.75
738.357	1152.75
738.799	813.75
739.241	689.75
739.683	671.75
740.125	718.75
740.567	725.75
741.008	720.75
741.45	773.75
741.892	789.75
742.334	830.75
742.775	783.75
743.217	824.75
743.658	721.75
744.1	651.75
744.542	741.75
744.983	792.75
745.425	793.75
745.866	855.75
746.307	759.75
746.749	736.75
747.19	851.75
747.632	1524.75
748.073	3022.75
748.514	4807.75
748.956	5823.75
749.397	8039.75
749.838	6389.75
750.279	5204.75
750.72	3803.75
751.162	1661.75
751.603	855.75
752.044	622.75
752.485	533.75
752.926	509.75
753.367	483.75
753.808	485.75
754.249	475.75
754.69	475.75
755.131	467.75
755.572	469.75
756.013	455.75
756.453	463.75
756.894	456.75
757.335	463.75
757.776	474.75
758.216	470.75
758.657	521.75
759.098	543.75
759.538	598.75
759.979	792.75
760.42	1285.75
760.86	2940.75
761.301	7044.75
761.741	10571.75
762.182	10740.75
762.622	10046.75
763.063	4367.75
763.503	1696.75
763.943	869.75
764.384	646.75
764.824	581.75
765.264	501.75
765.705	476.75
766.145	459.75
766.585	459.75
767.025	444.75
767.465	443.75
767.906	450.75
768.346	449.75
768.786	485.75
769.226	637.75
769.666	1047.75
770.106	2317.75
770.546	4227.75
770.986	4550.75
771.426	4439.75
771.866	2351.75
772.306	1046.75
772.745	588.75
773.185	453.75
773.625	435.75
774.065	417.75
774.505	487.75
774.944	738.75
775.384	1195.75
775.824	1342.75
776.263	1303.75
776.703	948.75
777.142	568.75
777.582	404.75
778.021	349.75
778.461	329.75
778.9	363.75
779.34	347.75
779.779	336.75
780.219	325.75
780.658	329.75
781.097	302.75
781.537	308.75
781.976	317.75
782.415	313.75
782.855	271.75
783.294	287.75
783.733	291.75
784.172	319.75
784.611	296.75
785.05	307.75
785.489	325.75
785.928	303.75
786.367	328.75
786.806	336.75
787.245	352.75
787.684	361.75
788.123	365.75
788.562	359.75
789.001	355.75
789.44	334.75
789.879	331.75
790.317	341.75
790.756	340.75
791.195	358.75
791.634	445.75
792.072	665.75
792.511	1381.75
792.95	3215.75
793.388	3961.75
793.827	3436.75
794.265	1898.75
794.704	897.75
795.142	525.75
795.581	419.75
796.019	371.75
796.458	353.75
796.896	371.75
797.334	388.75
797.773	461.75
798.211	693.75
798.649	1488.75
799.087	2543.75
799.526	3892.75
799.964	4383.75
800.402	3571.75
800.84	2009.75
801.278	1015.75
801.716	565.75
802.154	446.75
802.592	389.75
803.03	389.75
803.468	390.75
803.906	389.75
804.344	409.75
804.782	409.75
805.22	378.75
805.658	375.75
806.096	395.75
806.533	435.75
806.971	511.75
807.409	629.75
807.847	1081.75
808.284	2528.75
808.722	5205.75
809.16	7183.75
809.597	9967.75
810.035	12829.75
810.472	10825.75
810.91	5909.75
811.347	2743.75
811.785	1238.75
812.222	713.75
812.66	551.75
813.097	449.75
813.535	387.75
813.972	382.75
814.409	344.75
814.846	325.75
815.284	323.75
815.721	325.75
816.158	308.75
816.595	373.75
817.032	474.75
817.47	482.75
817.907	393.75
818.344	385.75
818.781	330.75
819.218	337.75
819.655	443.75
820.092	608.75
820.529	607.75
820.966	538.75
821.403	413.75
821.839	357.75
822.276	343.75
822.713	394.75
823.15	397.75
823.587	410.75
824.023	540.75
824.46	1142.75
824.897	2251.75
825.333	2348.75
825.77	1409.75
826.206	763.75
826.643	453.75
827.08	318.75
827.516	296.75
827.953	281.75
828.389	241.75
828.825	244.75
829.262	226.75
829.698	243.75
830.135	235.75
830.571	227.75
831.007	207.75
831.443	201.75
831.88	226.75
832.316	215.75
832.752	239.75
833.188	215.75
833.624	228.75
834.06	225.75
834.497	235.75
834.933	245.75
835.369	250.75
835.805	254.75
836.241	281.75
836.677	291.75
837.112	289.75
837.548	349.75
837.984	455.75
838.42	719.75
838.856	1871.75
839.292	4000.75
839.727	4345.75
840.163	2830.75
840.599	3380.75
841.034	5103.75
841.47	3897.75
841.906	2085.75
842.341	1149.75
842.777	684.75
843.212	599.75
843.648	496.75
844.083	364.75
844.519	314.75
844.954	217.75
845.39	213.75
845.825	214.75
846.261	225.75
846.696	209.75
847.131	181.75
847.566	210.75
848.002	210.75
848.437	206.75
848.872	228.75
849.307	238.75
849.742	329.75
850.177	672.75
850.613	1472.75
851.048	1615.75
851.483	915.75
851.918	553.75
852.353	336.75
852.788	229.75
853.223	181.75
853.657	199.75
854.092	201.75
854.527	179.75
854.962	184.75
855.397	175.75
855.832	181.75
856.266	155.75
856.701	178.75
857.136	197.75
857.57	206.75
858.005	205.75
858.44	207.75
858.874	195.75
859.309	184.75
859.743	189.75
860.178	158.75
860.612	191.75
861.047	193.75
861.481	261.75
861.915	239.75
862.35	189.75
862.784	191.75
863.218	172.75
863.653	188.75
864.087	185.75
864.521	194.75
864.955	274.75
865.39	449.75
865.824	411.75
866.258	417.75
866.692	586.75
867.126	555.75
867.56	384.75
867.994	274.75
868.428	225.75
868.862	210.75
869.296	187.75
869.73	231.75
870.164	232.75
870.598	225.75
871.031	200.75
871.465	175.75
871.899	152.75
872.333	155.75
872.766	151.75
873.2	138.75
873.634	149.75
874.067	136.75
874.501	137.75
874.935	154.75
875.368	158.75
875.802	156.75
876.235	141.75
876.669	134.75
877.102	127.75
877.535	131.75
877.969	151.75
878.402	127.75
878.836	139.75
879.269	123.75
879.702	122.75
880.135	122.75
880.569	121.75
881.002	130.75
881.435	144.75
881.868	115.75
882.301	139.75
882.734	135.75
883.167	128.75
883.601	131.75
884.034	120.75
884.467	134.75
884.899	139.75
885.332	113.75
885.765	116.75
886.198	137.75
886.631	116.75
887.064	131.75
887.497	124.75
887.929	113.75
888.362	101.75
888.795	123.75
889.228	135.75
889.66	109.75
890.093	122.75
890.526	140.75
890.958	122.75
891.391	121.75
891.823	121.75
892.256	111.75
892.688	131.75
893.121	122.75
893.553	126.75
893.985	123.75
894.418	119.75
894.85	134.75
895.282	111.75
895.715	122.75
896.147	128.75
896.579	121.75
897.011	133.75
897.444	129.75
897.876	138.75
898.308	122.75
898.74	115.75
899.172	111.75
899.604	119.75
900.036	113.75
900.468	118.75
900.9	115.75
901.332	120.75
901.764	125.75
902.196	121.75
902.628	137.75
903.06	144.75
903.491	157.75
903.923	139.75
904.355	129.75
904.787	139.75
905.218	146.75
905.65	141.75
906.082	118.75
906.513	127.75
906.945	109.75
907.376	125.75
907.808	127.75
908.239	128.75
908.671	132.75
909.102	138.75
909.534	156.75
909.965	189.75
910.397	361.75
910.828	918.75
911.259	973.75
911.691	612.75
912.122	449.75
912.553	257.75
912.984	157.75
913.415	142.75
913.847	133.75
914.278	147.75
914.709	122.75
915.14	123.75
915.571	117.75
916.002	112.75
916.433	125.75
916.864	121.75
917.295	113.75
917.726	112.75
918.157	125.75
918.587	126.75
919.018	135.75
919.449	141.75
919.88	159.75
920.311	153.75
920.741	226.75
921.172	479.75
921.603	387.75
922.033	267.75
922.464	210.75
922.895	166.75
923.325	126.75
923.756	101.75
924.186	131.75
924.617	116.75
925.047	151.75
925.478	159.75
925.908	156.75
926.338	126.75
926.769	132.75
927.199	125.75
927.629	111.75
928.06	122.75
928.49	110.75
928.92	111.75
929.35	117.75
929.78	109.75
930.21	108.75
930.641	114.75
931.071	113.75
931.501	104.75
931.931	111.75
932.361	104.75
932.791	102.75
933.221	108.75
933.651	115.75
934.08	138.75
934.51	119.75
934.94	119.75
935.37	122.75
935.8	107.75
936.229	116.75
936.659	99.75
937.089	112.75
937.519	128.75
937.948	143.75
938.378	133.75
938.807	122.75
939.237	95.75
939.666	95.75
940.096	113.75
940.525	92.75
940.955	93.75
941.384	92.75
941.814	86.75
942.243	99.75
942.672	96.75
943.102	83.75
943.531	84.75
943.96	97.75
944.39	100.75
944.819	110.75
945.248	86.75
945.677	92.75
946.106	94.75
946.535	99.75
946.964	107.75
947.393	99.75
947.822	107.75
948.251	97.75
948.68	106.75
949.109	90.75
949.538	103.75
949.967	77.75
950.396	87.75
950.825	102.75
951.254	78.75
951.682	97.75
952.111	87.75
952.54	109.75
952.969	87.75
953.397	97.75
953.826	97.75
954.254	94.75
954.683	100.75
955.112	121.75
955.54	96.75
955.969	88.75
956.397	104.75
956.826	95.75
957.254	99.75
957.682	89.75
958.111	92.75
958.539	102.75
958.967	89.75
959.396	106.75
959.824	75.75
960.252	96.75
960.68	107.75
961.109	106.75
961.537	117.75
961.965	83.75
962.393	86.75
962.821	98.75
963.249	102.75
963.677	87.75
964.105	137.75
964.533	210.75
964.961	186.75
965.389	143.75
965.817	115.75
966.245	103.75
966.672	95.75
967.1	102.75
967.528	88.75
967.956	85.75
968.383	95.75
968.811	102.75
969.239	105.75
969.666	91.75
970.094	104.75
970.522	88.75
970.949	95.75
971.377	85.75
971.804	100.75
972.232	88.75
972.659	95.75
973.087	95.75
973.514	92.75
973.941	107.75
974.369	83.75
974.796	84.75
975.223	109.75
975.651	84.75
976.078	83.75
976.505	85.75
976.932	98.75
977.359	123.75
977.786	113.75
978.214	97.75
978.641	94.75
979.068	103.75
979.495	91.75
979.922	89.75
980.349	95.75
980.776	99.75
981.202	100.75
981.629	81.75
982.056	89.75
982.483	71.75
982.91	86.75
983.337	88.75
983.763	83.75
984.19	83.75
984.617	92.75
985.043	106.75
985.47	96.75
985.897	78.75
986.323	82.75
986.75	90.75
987.176	81.75
987.603	89.75
988.029	78.75
988.456	88.75
988.882	99.75
989.308	82.75
989.735	89.75
990.161	80.75
990.587	109.75
991.014	96.75
991.44	73.75
991.866	95.75
992.292	83.75
992.719	80.75
993.145	72.75
993.571	90.75
993.997	87.75
994.423	82.75
994.849	72.75
995.275	97.75
995.701	90.75
996.127	85.75
996.553	87.75
996.979	89.75
997.405	87.75
997.83	93.75
998.256	79.75
998.682	84.75
999.108	77.75
999.534	80.75
999.959	84.75
1000.385	100.75
1000.811	89.75
1001.236	79.75
1001.662	101.75
1002.087	86.75
1002.513	89.75
1002.938	92.75
1003.364	91.75
1003.789	94.75
1004.215	79.75
1004.64	101.75
1005.066	88.75
1005.491	95.75
1005.916	82.75
1006.342	84.75
1006.767	93.75
1007.192	92.75
1007.617	89.75
1008.042	97.75
1008.468	94.75
1008.893	82.75
1009.318	102.75
1009.743	97.75
1010.168	104.75
1010.593	118.75
1011.018	100.75
1011.443	96.75
1011.868	76.75
1012.293	101.75
1012.718	87.75
1013.143	94.75
1013.567	77.75
1013.992	88.75
1014.417	95.75
1014.842	96.75
1015.267	82.75
1015.691	90.75
1016.116	82.75
1016.541	90.75
1016.965	103.75
1017.39	91.75
1017.814	70.75
1018.239	87.75
1018.663	94.75
1019.088	88.75
1019.512	92.75
1019.937	86.75
1020.361	98.75
1020.785	85.75
1021.21	77.75
1021.634	75.75
1022.058	102.75
1022.483	69.75
1022.907	87.75
1023.331	78.75
1023.755	82.75
1024.179	87.75
1024.604	67.75
1025.028	77.75
1025.452	84.75
1025.876	98.75
1026.3	97.75
1026.724	93.75
1027.148	94.75
1027.572	80.75
1027.996	76.75
1028.42	83.75
1028.843	87.75
1029.267	88.75
1029.691	90.75
1030.115	79.75
1030.539	93.75
1030.962	82.75
1031.386	77.75
1031.81	78.75
1032.233	81.75
1032.657	79.75
1033.08	79.75
1033.504	85.75
1033.927	85.75
1034.351	73.75
1034.774	85.75
1035.198	79.75
1035.621	64.75
1036.045	90.75
1036.468	104.75
1036.891	98.75
1037.315	86.75
1037.738	67.75
1038.161	87.75
1038.584	92.75
1039.008	77.75
1039.431	93.75
1039.854	90.75
1040.277	95.75
1040.7	78.75
1041.123	84.75
1041.546	87.75
1041.969	84.75
1042.392	101.75
1042.815	74.75
1043.238	79.75
1043.661	82.75
1044.084	71.75
1044.507	76.75
1044.93	94.75
1045.352	74.75
1045.775	92.75
1046.198	97.75
1046.621	86.75
1047.043	78.75
1047.466	88.75
1047.889	99.75
1048.311	83.75
1048.734	91.75
1049.156	95.75
1049.579	74.75
1050.001	95.75
1050.424	82.75
1050.846	68.75
1051.269	93.75
1051.691	73.75
1052.113	75.75
1052.536	73.75
1052.958	89.75
1053.38	93.75
1053.802	83.75
1054.225	94.75
1054.647	73.75
1055.069	88.75
1055.491	89.75
1055.913	83.75
1056.335	85.75
1056.757	84.75
1057.179	83.75
1057.601	83.75
1058.023	77.75
1058.445	72.75
1058.867	87.75
1059.289	79.75
1059.711	80.75
1060.133	98.75
1060.555	94.75
1060.976	82.75
1061.398	82.75
1061.82	78.75
1062.241	84.75
1062.663	81.75
1063.085	87.75
1063.506	74.75
1063.928	84.75
1064.35	101.75
1064.771	83.75
1065.193	77.75
1065.614	93.75
1066.035	100.75
1066.457	90.75
1066.878	93.75
1067.3	87.75
1067.721	78.75
1068.142	84.75
1068.564	98.75
1068.985	79.75
1069.406	103.75
1069.827	80.75
1070.248	78.75
1070.67	75.75
1071.091	69.75
1071.512	93.75
1071.933	76.75
1072.354	84.75
1072.775	80.75
1073.196	82.75
1073.617	84.75
1074.038	92.75
1074.459	85.75
1074.88	90.75
1075.3	85.75
1075.721	104.75
1076.142	78.75
1076.563	83.75
1076.983	75.75
1077.404	89.75
1077.825	94.75
1078.246	77.75
1078.666	82.75
1079.087	82.75
1079.507	83.75
1079.928	80.75
1080.348	97.75
1080.769	85.75
1081.189	70.75
1081.61	79.75
1082.03	76.75
1082.451	73.75
1082.871	94.75
1083.291	103.75
1083.711	78.75
1084.132	81.75
1084.552	79.75
1084.972	73.75
1085.392	72.75
1085.813	91.75
1086.233	88.75
1086.653	107.75
1087.073	77.75
1087.493	74.75
1087.913	84.75
1088.333	78.75
1088.753	96.75
1089.173	85.75
1089.593	99.75
1090.013	92.75
1090.433	87.75
1090.852	88.75
1091.272	86.75
1091.692	76.75
1092.112	91.75
1092.531	84.75
1092.951	77.75
1093.371	63.75
1093.79	77.75
1094.21	65.75
1094.63	94.75
1095.049	90.75
1095.469	87.75
1095.888	90.75
1096.308	77.75
1096.727	103.75
1097.146	75.75
1097.566	96.75
1097.985	86.75
1098.405	101.75
1098.824	80.75
1099.243	84.75
1099.662	79.75
1100.082	92.75
1100.501	95.75
1100.92	95.75
1101.339	79.75
1101.758	90.75
