Data from 20170802-ORNL-NYSim-Air_HRD10391_10-36-06-569.txt Node
Date: Wed Aug 02 10:36:06 EDT 2017
User: Ender
Spectrometer: HR+D1039
Trigger mode: 0
Integration Time (sec): 3.750000E-3
Scans to average: 1
Electric dark correction enabled: true
Nonlinearity correction enabled: false
Boxcar width: 0
XAxis mode: Wavelengths
Number of Pixels in Spectrum: 2048
>>>>>Begin Spectral Data<<<<<
187.836	5.94
188.309	5.94
188.782	5.94
189.255	-9.06
189.728	-5.06
190.201	-1.06
190.674	-16.06
191.147	-5.06
191.619	1.94
192.092	-9.06
192.565	-5.06
193.038	8.94
193.511	10.94
193.984	3.94
194.456	-3.06
194.929	-7.06
195.402	14.94
195.874	13.94
196.347	14.94
196.82	11.94
197.292	23.94
197.765	26.94
198.237	28.94
198.71	35.94
199.182	34.94
199.655	48.94
200.127	41.94
200.6	40.94
201.072	49.94
201.544	53.94
202.017	68.94
202.489	61.94
202.961	65.94
203.433	66.94
203.906	54.94
204.378	67.94
204.85	78.94
205.322	68.94
205.794	57.94
206.266	88.94
206.739	77.94
207.211	73.94
207.683	98.94
208.155	80.94
208.627	77.94
209.099	93.94
209.57	85.94
210.042	76.94
210.514	94.94
210.986	84.94
211.458	82.94
211.93	72.94
212.402	78.94
212.873	84.94
213.345	76.94
213.817	100.94
214.288	81.94
214.76	76.94
215.232	78.94
215.703	83.94
216.175	96.94
216.646	66.94
217.118	89.94
217.589	57.94
218.061	64.94
218.532	56.94
219.004	65.94
219.475	76.94
219.946	81.94
220.418	76.94
220.889	72.94
221.36	83.94
221.832	68.94
222.303	95.94
222.774	72.94
223.245	80.94
223.717	84.94
224.188	70.94
224.659	73.94
225.13	89.94
225.601	58.94
226.072	68.94
226.543	79.94
227.014	76.94
227.485	78.94
227.956	84.94
228.427	69.94
228.898	90.94
229.369	66.94
229.839	85.94
230.31	87.94
230.781	90.94
231.252	84.94
231.722	65.94
232.193	68.94
232.664	78.94
233.135	93.94
233.605	70.94
234.076	77.94
234.546	84.94
235.017	80.94
235.487	79.94
235.958	61.94
236.428	84.94
236.899	74.94
237.369	74.94
237.84	68.94
238.31	85.94
238.78	86.94
239.251	88.94
239.721	86.94
240.191	85.94
240.662	73.94
241.132	66.94
241.602	87.94
242.072	78.94
242.542	78.94
243.013	91.94
243.483	89.94
243.953	80.94
244.423	88.94
244.893	85.94
245.363	87.94
245.833	88.94
246.303	96.94
246.773	80.94
247.243	94.94
247.712	78.94
248.182	104.94
248.652	102.94
249.122	89.94
249.592	86.94
250.061	85.94
250.531	91.94
251.001	97.94
251.471	92.94
251.94	83.94
252.41	87.94
252.879	103.94
253.349	82.94
253.818	84.94
254.288	80.94
254.757	97.94
255.227	88.94
255.696	93.94
256.166	92.94
256.635	102.94
257.105	103.94
257.574	98.94
258.043	87.94
258.513	78.94
258.982	100.94
259.451	96.94
259.92	88.94
260.389	91.94
260.859	97.94
261.328	101.94
261.797	88.94
262.266	96.94
262.735	107.94
263.204	99.94
263.673	112.94
264.142	102.94
264.611	91.94
265.08	100.94
265.549	116.94
266.018	92.94
266.487	98.94
266.955	98.94
267.424	97.94
267.893	106.94
268.362	87.94
268.83	117.94
269.299	103.94
269.768	92.94
270.236	96.94
270.705	101.94
271.174	104.94
271.642	102.94
272.111	100.94
272.579	84.94
273.048	111.94
273.516	108.94
273.985	103.94
274.453	92.94
274.922	92.94
275.39	112.94
275.858	110.94
276.327	117.94
276.795	106.94
277.263	119.94
277.731	101.94
278.2	110.94
278.668	116.94
279.136	116.94
279.604	132.94
280.072	104.94
280.54	103.94
281.008	116.94
281.477	106.94
281.945	104.94
282.413	119.94
282.881	125.94
283.348	107.94
283.816	105.94
284.284	117.94
284.752	123.94
285.22	146.94
285.688	118.94
286.156	132.94
286.623	116.94
287.091	123.94
287.559	108.94
288.026	139.94
288.494	120.94
288.962	116.94
289.429	116.94
289.897	116.94
290.364	132.94
290.832	98.94
291.3	122.94
291.767	120.94
292.234	132.94
292.702	130.94
293.169	117.94
293.637	138.94
294.104	126.94
294.571	134.94
295.039	128.94
295.506	150.94
295.973	124.94
296.44	128.94
296.908	133.94
297.375	147.94
297.842	133.94
298.309	129.94
298.776	143.94
299.243	141.94
299.71	154.94
300.177	145.94
300.644	146.94
301.111	118.94
301.578	137.94
302.045	137.94
302.512	134.94
302.979	136.94
303.446	139.94
303.913	141.94
304.379	133.94
304.846	141.94
305.313	143.94
305.78	165.94
306.246	137.94
306.713	140.94
307.18	144.94
307.646	149.94
308.113	159.94
308.579	168.94
309.046	148.94
309.512	156.94
309.979	136.94
310.445	140.94
310.912	150.94
311.378	128.94
311.845	175.94
312.311	147.94
312.777	162.94
313.244	142.94
313.71	153.94
314.176	148.94
314.642	169.94
315.109	158.94
315.575	153.94
316.041	162.94
316.507	150.94
316.973	172.94
317.439	170.94
317.905	159.94
318.371	172.94
318.837	154.94
319.303	168.94
319.769	178.94
320.235	172.94
320.701	158.94
321.167	164.94
321.633	180.94
322.099	185.94
322.564	174.94
323.03	174.94
323.496	181.94
323.962	185.94
324.427	168.94
324.893	183.94
325.359	188.94
325.824	174.94
326.29	164.94
326.755	200.94
327.221	170.94
327.686	204.94
328.152	202.94
328.617	188.94
329.083	168.94
329.548	209.94
330.014	189.94
330.479	196.94
330.944	192.94
331.41	184.94
331.875	190.94
332.34	197.94
332.805	185.94
333.271	190.94
333.736	201.94
334.201	220.94
334.666	184.94
335.131	214.94
335.596	212.94
336.061	215.94
336.526	183.94
336.991	190.94
337.456	188.94
337.921	176.94
338.386	199.94
338.851	197.94
339.316	215.94
339.781	198.94
340.246	205.94
340.711	212.94
341.175	223.94
341.64	217.94
342.105	210.94
342.569	217.94
343.034	255.94
343.499	238.94
343.963	236.94
344.428	214.94
344.893	224.94
345.357	210.94
345.822	233.94
346.286	219.94
346.751	230.94
347.215	232.94
347.679	227.94
348.144	239.94
348.608	263.94
349.073	254.94
349.537	264.94
350.001	245.94
350.465	250.94
350.93	261.94
351.394	257.94
351.858	265.94
352.322	271.94
352.786	274.94
353.25	267.94
353.715	265.94
354.179	278.94
354.643	284.94
355.107	287.94
355.571	269.94
356.035	292.94
356.498	293.94
356.962	289.94
357.426	286.94
357.89	279.94
358.354	264.94
358.818	276.94
359.281	274.94
359.745	280.94
360.209	276.94
360.673	267.94
361.136	271.94
361.6	288.94
362.064	284.94
362.527	289.94
362.991	306.94
363.454	269.94
363.918	280.94
364.381	300.94
364.845	292.94
365.308	302.94
365.772	307.94
366.235	284.94
366.698	297.94
367.162	326.94
367.625	294.94
368.088	280.94
368.552	301.94
369.015	296.94
369.478	290.94
369.941	292.94
370.404	313.94
370.867	316.94
371.331	338.94
371.794	297.94
372.257	344.94
372.72	328.94
373.183	320.94
373.646	312.94
374.109	313.94
374.572	348.94
375.035	318.94
375.497	306.94
375.96	325.94
376.423	344.94
376.886	325.94
377.349	354.94
377.811	353.94
378.274	364.94
378.737	344.94
379.199	354.94
379.662	346.94
380.125	339.94
380.587	349.94
381.05	348.94
381.512	368.94
381.975	371.94
382.437	394.94
382.9	383.94
383.362	370.94
383.825	368.94
384.287	401.94
384.75	359.94
385.212	358.94
385.674	384.94
386.136	390.94
386.599	380.94
387.061	395.94
387.523	380.94
387.985	401.94
388.447	358.94
388.91	379.94
389.372	384.94
389.834	389.94
390.296	424.94
390.758	403.94
391.22	392.94
391.682	381.94
392.144	415.94
392.606	398.94
393.068	400.94
393.529	448.94
393.991	443.94
394.453	420.94
394.915	421.94
395.377	424.94
395.838	408.94
396.3	418.94
396.762	393.94
397.224	407.94
397.685	410.94
398.147	424.94
398.608	436.94
399.07	420.94
399.531	454.94
399.993	448.94
400.454	447.94
400.916	423.94
401.377	436.94
401.839	474.94
402.3	470.94
402.762	466.94
403.223	509.94
403.684	520.94
404.145	480.94
404.607	478.94
405.068	450.94
405.529	467.94
405.99	462.94
406.451	500.94
406.913	464.94
407.374	453.94
407.835	466.94
408.296	455.94
408.757	440.94
409.218	478.94
409.679	492.94
410.14	491.94
410.601	517.94
411.062	546.94
411.522	530.94
411.983	530.94
412.444	538.94
412.905	539.94
413.366	561.94
413.826	609.94
414.287	675.94
414.748	800.94
415.208	837.94
415.669	677.94
416.13	615.94
416.59	625.94
417.051	650.94
417.511	697.94
417.972	720.94
418.432	772.94
418.893	881.94
419.353	824.94
419.814	654.94
420.274	560.94
420.734	546.94
421.195	554.94
421.655	566.94
422.115	581.94
422.576	577.94
423.036	620.94
423.496	616.94
423.956	630.94
424.416	650.94
424.876	749.94
425.336	767.94
425.797	704.94
426.257	695.94
426.717	637.94
427.177	600.94
427.637	598.94
428.097	596.94
428.556	613.94
429.016	665.94
429.476	667.94
429.936	634.94
430.396	617.94
430.856	611.94
431.315	622.94
431.775	643.94
432.235	708.94
432.694	723.94
433.154	672.94
433.614	672.94
434.073	667.94
434.533	600.94
434.993	589.94
435.452	632.94
435.912	635.94
436.371	630.94
436.83	622.94
437.29	637.94
437.749	616.94
438.209	591.94
438.668	636.94
439.127	656.94
439.587	654.94
440.046	640.94
440.505	650.94
440.964	659.94
441.424	688.94
441.883	717.94
442.342	664.94
442.801	638.94
443.26	643.94
443.719	638.94
444.178	628.94
444.637	620.94
445.096	672.94
445.555	654.94
446.014	670.94
446.473	656.94
446.932	645.94
447.391	684.94
447.849	692.94
448.308	667.94
448.767	684.94
449.226	683.94
449.685	695.94
450.143	754.94
450.602	723.94
451.061	712.94
451.519	717.94
451.978	671.94
452.436	699.94
452.895	711.94
453.353	700.94
453.812	689.94
454.27	680.94
454.729	693.94
455.187	698.94
455.646	727.94
456.104	700.94
456.562	700.94
457.021	697.94
457.479	674.94
457.937	700.94
458.395	727.94
458.854	724.94
459.312	727.94
459.77	712.94
460.228	707.94
460.686	727.94
461.144	719.94
461.602	720.94
462.06	729.94
462.518	716.94
462.976	738.94
463.434	740.94
463.892	766.94
464.35	776.94
464.808	788.94
465.266	821.94
465.724	802.94
466.181	757.94
466.639	806.94
467.097	825.94
467.555	849.94
468.012	823.94
468.47	862.94
468.928	879.94
469.385	893.94
469.843	890.94
470.3	919.94
470.758	888.94
471.215	912.94
471.673	942.94
472.13	940.94
472.588	977.94
473.045	942.94
473.503	972.94
473.96	1012.94
474.417	1025.94
474.875	1064.94
475.332	1093.94
475.789	1093.94
476.246	1089.94
476.704	1085.94
477.161	1129.94
477.618	1156.94
478.075	1138.94
478.532	1214.94
478.989	1244.94
479.446	1269.94
479.903	1275.94
480.36	1259.94
480.817	1308.94
481.274	1266.94
481.731	1314.94
482.188	1354.94
482.645	1382.94
483.102	1409.94
483.558	1452.94
484.015	1432.94
484.472	1482.94
484.929	1487.94
485.385	1460.94
485.842	1435.94
486.299	1492.94
486.755	1434.94
487.212	1468.94
487.668	1455.94
488.125	1420.94
488.582	1403.94
489.038	1395.94
489.494	1420.94
489.951	1432.94
490.407	1427.94
490.864	1429.94
491.32	1438.94
491.776	1439.94
492.233	1473.94
492.689	1435.94
493.145	1419.94
493.602	1449.94
494.058	1488.94
494.514	1493.94
494.97	1472.94
495.426	1540.94
495.882	1510.94
496.338	1563.94
496.794	1552.94
497.251	1548.94
497.707	1550.94
498.163	1587.94
498.618	1563.94
499.074	1544.94
499.53	1598.94
499.986	1583.94
500.442	1581.94
500.898	1571.94
501.354	1606.94
501.809	1581.94
502.265	1631.94
502.721	1626.94
503.177	1604.94
503.632	1586.94
504.088	1602.94
504.543	1685.94
504.999	1670.94
505.455	1639.94
505.91	1620.94
506.366	1658.94
506.821	1669.94
507.277	1620.94
507.732	1650.94
508.187	1674.94
508.643	1682.94
509.098	1670.94
509.553	1652.94
510.009	1701.94
510.464	1746.94
510.919	1762.94
511.375	1746.94
511.83	1832.94
512.285	1840.94
512.74	1868.94
513.195	1920.94
513.65	1923.94
514.105	1956.94
514.56	1944.94
515.015	1990.94
515.47	2031.94
515.925	1952.94
516.38	1941.94
516.835	1982.94
517.29	1979.94
517.745	1965.94
518.2	1973.94
518.655	1904.94
519.109	1918.94
519.564	1874.94
520.019	1830.94
520.474	1812.94
520.928	1835.94
521.383	1803.94
521.838	1830.94
522.292	1780.94
522.747	1777.94
523.201	1785.94
523.656	1776.94
524.11	1741.94
524.565	1764.94
525.019	1699.94
525.474	1729.94
525.928	1746.94
526.382	1728.94
526.837	1694.94
527.291	1777.94
527.745	1691.94
528.2	1716.94
528.654	1706.94
529.108	1685.94
529.562	1728.94
530.016	1683.94
530.47	1713.94
530.925	1665.94
531.379	1718.94
531.833	1729.94
532.287	1724.94
532.741	1719.94
533.195	1716.94
533.649	1701.94
534.103	1760.94
534.556	1752.94
535.01	1728.94
535.464	1724.94
535.918	1714.94
536.372	1704.94
536.826	1726.94
537.279	1746.94
537.733	1726.94
538.187	1764.94
538.64	1749.94
539.094	1719.94
539.548	1731.94
540.001	1753.94
540.455	1762.94
540.908	1765.94
541.362	1786.94
541.815	1832.94
542.269	1835.94
542.722	1875.94
543.175	1843.94
543.629	1885.94
544.082	1875.94
544.536	1892.94
544.989	1928.94
545.442	1963.94
545.895	1917.94
546.349	1916.94
546.802	1994.94
547.255	1969.94
547.708	1974.94
548.161	1984.94
548.614	2046.94
549.067	2008.94
549.52	2020.94
549.973	1926.94
550.426	1940.94
550.879	1913.94
551.332	1896.94
551.785	1941.94
552.238	1966.94
552.691	1995.94
553.144	2025.94
553.596	2050.94
554.049	2074.94
554.502	2111.94
554.955	2173.94
555.407	2203.94
555.86	2164.94
556.313	2173.94
556.765	2125.94
557.218	2059.94
557.67	2126.94
558.123	2051.94
558.576	2074.94
559.028	2063.94
559.48	2080.94
559.933	2076.94
560.385	1953.94
560.838	1926.94
561.29	1896.94
561.742	1856.94
562.195	1826.94
562.647	1813.94
563.099	1842.94
563.551	1788.94
564.004	1819.94
564.456	1832.94
564.908	1764.94
565.36	1718.94
565.812	1703.94
566.264	1681.94
566.716	1626.94
567.168	1637.94
567.62	1598.94
568.072	1640.94
568.524	1614.94
568.976	1590.94
569.428	1618.94
569.88	1587.94
570.332	1572.94
570.784	1635.94
571.235	1569.94
571.687	1617.94
572.139	1610.94
572.59	1650.94
573.042	1630.94
573.494	1667.94
573.945	1575.94
574.397	1602.94
574.849	1589.94
575.3	1600.94
575.752	1583.94
576.203	1525.94
576.655	1548.94
577.106	1508.94
577.557	1492.94
578.009	1505.94
578.46	1539.94
578.912	1508.94
579.363	1514.94
579.814	1509.94
580.265	1522.94
580.717	1507.94
581.168	1476.94
581.619	1526.94
582.07	1570.94
582.521	1494.94
582.972	1534.94
583.423	1566.94
583.875	1547.94
584.326	1537.94
584.777	1574.94
585.227	1578.94
585.678	1566.94
586.129	1634.94
586.58	1628.94
587.031	1704.94
587.482	1684.94
587.933	1720.94
588.384	1749.94
588.834	1739.94
589.285	1731.94
589.736	1723.94
590.186	1725.94
590.637	1744.94
591.088	1692.94
591.538	1660.94
591.989	1655.94
592.439	1588.94
592.89	1604.94
593.34	1567.94
593.791	1548.94
594.241	1525.94
594.692	1564.94
595.142	1537.94
595.593	1558.94
596.043	1539.94
596.493	1572.94
596.943	1542.94
597.394	1652.94
597.844	1614.94
598.294	1620.94
598.744	1697.94
599.195	1805.94
599.645	1863.94
600.095	1984.94
600.545	2086.94
600.995	2195.94
601.445	2311.94
601.895	2432.94
602.345	2509.94
602.795	2404.94
603.245	2373.94
603.695	2226.94
604.145	2108.94
604.594	1991.94
605.044	1898.94
605.494	1804.94
605.944	1694.94
606.393	1595.94
606.843	1566.94
607.293	1549.94
607.743	1580.94
608.192	1617.94
608.642	1600.94
609.091	1572.94
609.541	1595.94
609.99	1632.94
610.44	1570.94
610.889	1521.94
611.339	1505.94
611.788	1497.94
612.238	1502.94
612.687	1517.94
613.136	1537.94
613.586	1523.94
614.035	1523.94
614.484	1506.94
614.933	1556.94
615.383	1456.94
615.832	1457.94
616.281	1469.94
616.73	1420.94
617.179	1399.94
617.628	1376.94
618.077	1376.94
618.526	1321.94
618.975	1336.94
619.424	1279.94
619.873	1321.94
620.322	1256.94
620.771	1311.94
621.22	1292.94
621.669	1227.94
622.118	1220.94
622.567	1228.94
623.015	1198.94
623.464	1201.94
623.913	1173.94
624.361	1189.94
624.81	1184.94
625.259	1163.94
625.707	1164.94
626.156	1191.94
626.604	1216.94
627.053	1167.94
627.501	1188.94
627.95	1204.94
628.398	1271.94
628.847	1216.94
629.295	1202.94
629.744	1216.94
630.192	1156.94
630.64	1176.94
631.089	1122.94
631.537	1123.94
631.985	1082.94
632.433	1083.94
632.881	1048.94
633.33	1086.94
633.778	1033.94
634.226	1046.94
634.674	1093.94
635.122	1096.94
635.57	1129.94
636.018	1125.94
636.466	1144.94
636.914	1124.94
637.362	1091.94
637.81	1148.94
638.258	1195.94
638.705	1178.94
639.153	1243.94
639.601	1257.94
640.049	1282.94
640.497	1332.94
640.944	1331.94
641.392	1309.94
641.84	1213.94
642.287	1143.94
642.735	1075.94
643.182	1064.94
643.63	1060.94
644.078	1031.94
644.525	1018.94
644.973	1044.94
645.42	1060.94
645.867	1060.94
646.315	1060.94
646.762	1060.94
647.21	1094.94
647.657	1094.94
648.104	1043.94
648.551	1014.94
648.999	1023.94
649.446	1012.94
649.893	996.94
650.34	1010.94
650.787	1056.94
651.234	1078.94
651.682	1112.94
652.129	1216.94
652.576	1408.94
653.023	1609.94
653.47	1750.94
653.917	1861.94
654.363	1897.94
654.81	1962.94
655.257	2042.94
655.704	1719.94
656.151	1353.94
656.598	1144.94
657.044	1066.94
657.491	1029.94
657.938	982.94
658.385	977.94
658.831	1005.94
659.278	964.94
659.724	974.94
660.171	949.94
660.618	930.94
661.064	937.94
661.511	922.94
661.957	908.94
662.404	913.94
662.85	955.94
663.296	931.94
663.743	939.94
664.189	906.94
664.635	951.94
665.082	959.94
665.528	964.94
665.974	934.94
666.42	904.94
666.867	901.94
667.313	872.94
667.759	868.94
668.205	871.94
668.651	869.94
669.097	856.94
669.543	864.94
669.989	890.94
670.435	904.94
670.881	890.94
671.327	927.94
671.773	980.94
672.219	1040.94
672.665	1152.94
673.11	1181.94
673.556	1236.94
674.002	1237.94
674.448	1348.94
674.893	1140.94
675.339	983.94
675.785	893.94
676.23	850.94
676.676	812.94
677.122	832.94
677.567	754.94
678.013	769.94
678.458	764.94
678.904	760.94
679.349	748.94
679.794	759.94
680.24	746.94
680.685	748.94
681.131	752.94
681.576	750.94
682.021	763.94
682.466	742.94
682.912	717.94
683.357	781.94
683.802	808.94
684.247	896.94
684.692	991.94
685.137	1066.94
685.583	1090.94
686.028	1120.94
686.473	1099.94
686.918	945.94
687.363	849.94
687.807	798.94
688.252	806.94
688.697	751.94
689.142	782.94
689.587	742.94
690.032	741.94
690.477	785.94
690.921	806.94
691.366	837.94
691.811	889.94
692.255	944.94
692.7	1083.94
693.145	1388.94
693.589	2150.94
694.034	2885.94
694.478	3226.94
694.923	2972.94
695.367	3668.94
695.812	3258.94
696.256	1307.94
696.701	864.94
697.145	739.94
697.59	727.94
698.034	697.94
698.478	723.94
698.922	682.94
699.367	738.94
699.811	750.94
700.255	789.94
700.699	869.94
701.143	938.94
701.588	1012.94
702.032	1038.94
702.476	1089.94
702.92	1120.94
703.364	1322.94
703.808	1910.94
704.252	2736.94
704.696	3131.94
705.14	2858.94
705.584	3606.94
706.027	2844.94
706.471	1342.94
706.915	922.94
707.359	763.94
707.803	724.94
708.246	682.94
708.69	660.94
709.134	686.94
709.577	688.94
710.021	688.94
710.465	679.94
710.908	646.94
711.352	649.94
711.795	703.94
712.239	821.94
712.682	860.94
713.126	825.94
713.569	891.94
714.012	826.94
714.456	648.94
714.899	644.94
715.342	605.94
715.786	593.94
716.229	541.94
716.672	562.94
717.115	566.94
717.558	561.94
718.002	571.94
718.445	588.94
718.888	644.94
719.331	654.94
719.774	638.94
720.217	641.94
720.66	622.94
721.103	600.94
721.546	562.94
721.989	540.94
722.432	530.94
722.874	536.94
723.317	547.94
723.76	554.94
724.203	608.94
724.645	870.94
725.088	1051.94
725.531	1097.94
725.974	1093.94
726.416	1184.94
726.859	757.94
727.301	598.94
727.744	507.94
728.187	546.94
728.629	541.94
729.071	583.94
729.514	590.94
729.956	609.94
730.399	630.94
730.841	626.94
731.283	620.94
731.726	592.94
732.168	600.94
732.61	624.94
733.053	679.94
733.495	731.94
733.937	806.94
734.379	896.94
734.821	1104.94
735.263	1543.94
735.705	2608.94
736.148	4472.94
736.59	5174.94
737.032	4943.94
737.474	5212.94
737.916	2440.94
738.357	1107.94
738.799	783.94
739.241	714.94
739.683	672.94
740.125	690.94
740.567	714.94
741.008	676.94
741.45	733.94
741.892	754.94
742.334	808.94
742.775	786.94
743.217	783.94
743.658	687.94
744.1	625.94
744.542	701.94
744.983	782.94
745.425	809.94
745.866	855.94
746.307	727.94
746.749	710.94
747.19	867.94
747.632	1524.94
748.073	2978.94
748.514	4701.94
748.956	5762.94
749.397	7815.94
749.838	6227.94
750.279	5146.94
750.72	3674.94
751.162	1570.94
751.603	821.94
752.044	633.94
752.485	548.94
752.926	520.94
753.367	493.94
753.808	480.94
754.249	465.94
754.69	475.94
755.131	455.94
755.572	468.94
756.013	441.94
756.453	451.94
756.894	449.94
757.335	453.94
757.776	453.94
758.216	468.94
758.657	461.94
759.098	525.94
759.538	609.94
759.979	719.94
760.42	1229.94
760.86	2874.94
761.301	6972.94
761.741	10282.94
762.182	10638.94
762.622	9828.94
763.063	4355.94
763.503	1706.94
763.943	852.94
764.384	640.94
764.824	566.94
765.264	495.94
765.705	502.94
766.145	475.94
766.585	454.94
767.025	444.94
767.465	451.94
767.906	425.94
768.346	454.94
768.786	490.94
769.226	594.94
769.666	1023.94
770.106	2264.94
770.546	4115.94
770.986	4466.94
771.426	4299.94
771.866	2306.94
772.306	1020.94
772.745	582.94
773.185	433.94
773.625	422.94
774.065	415.94
774.505	467.94
774.944	704.94
775.384	1149.94
775.824	1337.94
776.263	1293.94
776.703	901.94
777.142	522.94
777.582	406.94
778.021	333.94
778.461	335.94
778.9	338.94
779.34	324.94
779.779	312.94
780.219	308.94
780.658	318.94
781.097	301.94
781.537	299.94
781.976	308.94
782.415	312.94
782.855	288.94
783.294	298.94
783.733	307.94
784.172	300.94
784.611	297.94
785.05	308.94
785.489	307.94
785.928	314.94
786.367	308.94
786.806	302.94
787.245	366.94
787.684	374.94
788.123	362.94
788.562	342.94
789.001	341.94
789.44	328.94
789.879	317.94
790.317	332.94
790.756	352.94
791.195	362.94
791.634	423.94
792.072	640.94
792.511	1378.94
792.95	3074.94
793.388	3842.94
793.827	3376.94
794.265	1871.94
794.704	874.94
795.142	493.94
795.581	398.94
796.019	349.94
796.458	332.94
796.896	347.94
797.334	350.94
797.773	416.94
798.211	702.94
798.649	1481.94
799.087	2404.94
799.526	3854.94
799.964	4246.94
800.402	3580.94
800.84	1939.94
801.278	995.94
801.716	546.94
802.154	400.94
802.592	396.94
803.03	376.94
803.468	416.94
803.906	397.94
804.344	379.94
804.782	356.94
805.22	384.94
805.658	374.94
806.096	388.94
806.533	435.94
806.971	464.94
807.409	668.94
807.847	1028.94
808.284	2462.94
808.722	5098.94
809.16	7040.94
809.597	9802.94
810.035	12617.94
810.472	10614.94
810.91	5682.94
811.347	2663.94
811.785	1212.94
812.222	694.94
812.66	495.94
813.097	429.94
813.535	379.94
813.972	373.94
814.409	331.94
814.846	312.94
815.284	309.94
815.721	285.94
816.158	301.94
816.595	372.94
817.032	432.94
817.47	470.94
817.907	391.94
818.344	344.94
818.781	312.94
819.218	324.94
819.655	416.94
820.092	552.94
820.529	568.94
820.966	505.94
821.403	399.94
821.839	330.94
822.276	326.94
822.713	367.94
823.15	369.94
823.587	391.94
824.023	524.94
824.46	1121.94
824.897	2194.94
825.333	2311.94
825.77	1352.94
826.206	765.94
826.643	438.94
827.08	303.94
827.516	259.94
827.953	245.94
828.389	242.94
828.825	244.94
829.262	218.94
829.698	206.94
830.135	216.94
830.571	207.94
831.007	225.94
831.443	235.94
831.88	212.94
832.316	203.94
832.752	230.94
833.188	226.94
833.624	218.94
834.06	228.94
834.497	239.94
834.933	245.94
835.369	216.94
835.805	237.94
836.241	242.94
836.677	259.94
837.112	274.94
837.548	335.94
837.984	398.94
838.42	684.94
838.856	1825.94
839.292	3941.94
839.727	4266.94
840.163	2703.94
840.599	3288.94
841.034	4911.94
841.47	3771.94
841.906	2006.94
842.341	1126.94
842.777	662.94
843.212	586.94
843.648	486.94
844.083	359.94
844.519	296.94
844.954	216.94
845.39	236.94
845.825	208.94
846.261	184.94
846.696	204.94
847.131	200.94
847.566	194.94
848.002	193.94
848.437	215.94
848.872	194.94
849.307	214.94
849.742	312.94
850.177	652.94
850.613	1444.94
851.048	1578.94
851.483	852.94
851.918	546.94
852.353	296.94
852.788	227.94
853.223	198.94
853.657	191.94
854.092	156.94
854.527	168.94
854.962	179.94
855.397	179.94
855.832	156.94
856.266	183.94
856.701	179.94
857.136	184.94
857.57	167.94
858.005	205.94
858.44	206.94
858.874	203.94
859.309	185.94
859.743	196.94
860.178	159.94
860.612	189.94
861.047	210.94
861.481	268.94
861.915	257.94
862.35	196.94
862.784	170.94
863.218	158.94
863.653	173.94
864.087	178.94
864.521	201.94
864.955	259.94
865.39	401.94
865.824	415.94
866.258	406.94
866.692	547.94
867.126	534.94
867.56	385.94
867.994	250.94
868.428	202.94
868.862	221.94
869.296	220.94
869.73	233.94
870.164	222.94
870.598	225.94
871.031	173.94
871.465	166.94
871.899	154.94
872.333	146.94
872.766	146.94
873.2	131.94
873.634	142.94
874.067	134.94
874.501	152.94
874.935	152.94
875.368	157.94
875.802	150.94
876.235	157.94
876.669	146.94
877.102	137.94
877.535	129.94
877.969	137.94
878.402	120.94
878.836	148.94
879.269	132.94
879.702	123.94
880.135	134.94
880.569	140.94
881.002	130.94
881.435	133.94
881.868	133.94
882.301	111.94
882.734	138.94
883.167	112.94
883.601	117.94
884.034	114.94
884.467	128.94
884.899	125.94
885.332	133.94
885.765	111.94
886.198	128.94
886.631	128.94
887.064	129.94
887.497	118.94
887.929	118.94
888.362	138.94
888.795	114.94
889.228	118.94
889.66	103.94
890.093	131.94
890.526	129.94
890.958	131.94
891.391	127.94
891.823	105.94
892.256	111.94
892.688	122.94
893.121	120.94
893.553	108.94
893.985	130.94
894.418	120.94
894.85	117.94
895.282	130.94
895.715	129.94
896.147	105.94
896.579	106.94
897.011	117.94
897.444	124.94
897.876	107.94
898.308	125.94
898.74	106.94
899.172	118.94
899.604	108.94
900.036	115.94
900.468	104.94
900.9	112.94
901.332	140.94
901.764	123.94
902.196	111.94
902.628	112.94
903.06	130.94
903.491	138.94
903.923	138.94
904.355	143.94
904.787	133.94
905.218	149.94
905.65	137.94
906.082	124.94
906.513	118.94
906.945	131.94
907.376	134.94
907.808	113.94
908.239	108.94
908.671	132.94
909.102	132.94
909.534	134.94
909.965	211.94
910.397	351.94
910.828	904.94
911.259	951.94
911.691	588.94
912.122	415.94
912.553	252.94
912.984	171.94
913.415	143.94
913.847	116.94
914.278	133.94
914.709	129.94
915.14	105.94
915.571	118.94
916.002	118.94
916.433	113.94
916.864	116.94
917.295	113.94
917.726	137.94
918.157	135.94
918.587	141.94
919.018	142.94
919.449	124.94
919.88	130.94
920.311	141.94
920.741	236.94
921.172	474.94
921.603	351.94
922.033	264.94
922.464	182.94
922.895	144.94
923.325	127.94
923.756	121.94
924.186	120.94
924.617	132.94
925.047	144.94
925.478	166.94
925.908	130.94
926.338	133.94
926.769	124.94
927.199	111.94
927.629	106.94
928.06	121.94
928.49	95.94
928.92	121.94
929.35	98.94
929.78	104.94
930.21	109.94
930.641	100.94
931.071	104.94
931.501	97.94
931.931	110.94
932.361	92.94
932.791	84.94
933.221	78.94
933.651	106.94
934.08	113.94
934.51	120.94
934.94	120.94
935.37	122.94
935.8	104.94
936.229	90.94
936.659	98.94
937.089	101.94
937.519	130.94
937.948	136.94
938.378	115.94
938.807	100.94
939.237	102.94
939.666	86.94
940.096	84.94
940.525	77.94
940.955	91.94
941.384	88.94
941.814	103.94
942.243	92.94
942.672	86.94
943.102	88.94
943.531	85.94
943.96	90.94
944.39	75.94
944.819	84.94
945.248	70.94
945.677	91.94
946.106	80.94
946.535	79.94
946.964	82.94
947.393	73.94
947.822	82.94
948.251	70.94
948.68	92.94
949.109	95.94
949.538	90.94
949.967	96.94
950.396	103.94
950.825	97.94
951.254	93.94
951.682	95.94
952.111	100.94
952.54	97.94
952.969	100.94
953.397	70.94
953.826	88.94
954.254	83.94
954.683	104.94
955.112	91.94
955.54	92.94
955.969	81.94
956.397	82.94
956.826	82.94
957.254	99.94
957.682	69.94
958.111	79.94
958.539	75.94
958.967	78.94
959.396	84.94
959.824	86.94
960.252	82.94
960.68	92.94
961.109	68.94
961.537	79.94
961.965	70.94
962.393	90.94
962.821	79.94
963.249	86.94
963.677	110.94
964.105	116.94
964.533	205.94
964.961	163.94
965.389	143.94
965.817	114.94
966.245	108.94
966.672	86.94
967.1	86.94
967.528	94.94
967.956	93.94
968.383	74.94
968.811	84.94
969.239	83.94
969.666	86.94
970.094	74.94
970.522	81.94
970.949	82.94
971.377	74.94
971.804	86.94
972.232	84.94
972.659	83.94
973.087	94.94
973.514	79.94
973.941	90.94
974.369	82.94
974.796	89.94
975.223	92.94
975.651	104.94
976.078	90.94
976.505	94.94
976.932	101.94
977.359	124.94
977.786	106.94
978.214	101.94
978.641	96.94
979.068	97.94
979.495	69.94
979.922	74.94
980.349	89.94
980.776	103.94
981.202	95.94
981.629	67.94
982.056	95.94
982.483	80.94
982.91	77.94
983.337	72.94
983.763	74.94
984.19	100.94
984.617	88.94
985.043	86.94
985.47	108.94
985.897	84.94
986.323	69.94
986.75	79.94
987.176	84.94
987.603	81.94
988.029	77.94
988.456	84.94
988.882	84.94
989.308	78.94
989.735	83.94
990.161	84.94
990.587	85.94
991.014	87.94
991.44	89.94
991.866	79.94
992.292	87.94
992.719	98.94
993.145	94.94
993.571	93.94
993.997	92.94
994.423	98.94
994.849	93.94
995.275	84.94
995.701	96.94
996.127	78.94
996.553	82.94
996.979	84.94
997.405	85.94
997.83	82.94
998.256	80.94
998.682	79.94
999.108	93.94
999.534	100.94
999.959	89.94
1000.385	90.94
1000.811	86.94
1001.236	86.94
1001.662	70.94
1002.087	75.94
1002.513	70.94
1002.938	95.94
1003.364	76.94
1003.789	82.94
1004.215	90.94
1004.64	82.94
1005.066	92.94
1005.491	104.94
1005.916	84.94
1006.342	100.94
1006.767	98.94
1007.192	91.94
1007.617	84.94
1008.042	86.94
1008.468	89.94
1008.893	80.94
1009.318	87.94
1009.743	92.94
1010.168	103.94
1010.593	91.94
1011.018	113.94
1011.443	97.94
1011.868	79.94
1012.293	85.94
1012.718	90.94
1013.143	90.94
1013.567	76.94
1013.992	85.94
1014.417	82.94
1014.842	93.94
1015.267	88.94
1015.691	91.94
1016.116	82.94
1016.541	91.94
1016.965	69.94
1017.39	83.94
1017.814	76.94
1018.239	72.94
1018.663	89.94
1019.088	83.94
1019.512	72.94
1019.937	89.94
1020.361	88.94
1020.785	81.94
1021.21	89.94
1021.634	76.94
1022.058	80.94
1022.483	58.94
1022.907	70.94
1023.331	78.94
1023.755	90.94
1024.179	68.94
1024.604	82.94
1025.028	80.94
1025.452	91.94
1025.876	64.94
1026.3	90.94
1026.724	93.94
1027.148	97.94
1027.572	100.94
1027.996	77.94
1028.42	72.94
1028.843	88.94
1029.267	70.94
1029.691	74.94
1030.115	69.94
1030.539	81.94
1030.962	77.94
1031.386	96.94
1031.81	72.94
1032.233	61.94
1032.657	73.94
1033.08	69.94
1033.504	92.94
1033.927	75.94
1034.351	104.94
1034.774	75.94
1035.198	93.94
1035.621	75.94
1036.045	80.94
1036.468	55.94
1036.891	84.94
1037.315	68.94
1037.738	75.94
1038.161	97.94
1038.584	82.94
1039.008	70.94
1039.431	102.94
1039.854	92.94
1040.277	91.94
1040.7	84.94
1041.123	86.94
1041.546	78.94
1041.969	84.94
1042.392	82.94
1042.815	81.94
1043.238	90.94
1043.661	75.94
1044.084	86.94
1044.507	89.94
1044.93	70.94
1045.352	110.94
1045.775	86.94
1046.198	84.94
1046.621	97.94
1047.043	83.94
1047.466	76.94
1047.889	95.94
1048.311	78.94
1048.734	84.94
1049.156	84.94
1049.579	78.94
1050.001	78.94
1050.424	82.94
1050.846	82.94
1051.269	84.94
1051.691	92.94
1052.113	81.94
1052.536	72.94
1052.958	84.94
1053.38	82.94
1053.802	80.94
1054.225	94.94
1054.647	84.94
1055.069	70.94
1055.491	71.94
1055.913	67.94
1056.335	84.94
1056.757	80.94
1057.179	89.94
1057.601	67.94
1058.023	72.94
1058.445	82.94
1058.867	82.94
1059.289	74.94
1059.711	85.94
1060.133	80.94
1060.555	79.94
1060.976	80.94
1061.398	89.94
1061.82	84.94
1062.241	67.94
1062.663	81.94
1063.085	80.94
1063.506	94.94
1063.928	87.94
1064.35	71.94
1064.771	85.94
1065.193	79.94
1065.614	77.94
1066.035	66.94
1066.457	85.94
1066.878	73.94
1067.3	93.94
1067.721	90.94
1068.142	75.94
1068.564	74.94
1068.985	77.94
1069.406	72.94
1069.827	85.94
1070.248	89.94
1070.67	69.94
1071.091	108.94
1071.512	83.94
1071.933	80.94
1072.354	91.94
1072.775	93.94
1073.196	83.94
1073.617	63.94
1074.038	86.94
1074.459	80.94
1074.88	73.94
1075.3	78.94
1075.721	82.94
1076.142	80.94
1076.563	63.94
1076.983	79.94
1077.404	79.94
1077.825	82.94
1078.246	84.94
1078.666	70.94
1079.087	80.94
1079.507	90.94
1079.928	86.94
1080.348	86.94
1080.769	67.94
1081.189	88.94
1081.61	67.94
1082.03	87.94
1082.451	80.94
1082.871	79.94
1083.291	74.94
1083.711	72.94
1084.132	76.94
1084.552	89.94
1084.972	72.94
1085.392	87.94
1085.813	77.94
1086.233	80.94
1086.653	85.94
1087.073	71.94
1087.493	77.94
1087.913	93.94
1088.333	68.94
1088.753	88.94
1089.173	61.94
1089.593	95.94
1090.013	92.94
1090.433	86.94
1090.852	71.94
1091.272	100.94
1091.692	84.94
1092.112	89.94
1092.531	65.94
1092.951	75.94
1093.371	72.94
1093.79	83.94
1094.21	83.94
1094.63	91.94
1095.049	98.94
1095.469	81.94
1095.888	74.94
1096.308	73.94
1096.727	61.94
1097.146	81.94
1097.566	71.94
1097.985	80.94
1098.405	88.94
1098.824	69.94
1099.243	74.94
1099.662	97.94
1100.082	90.94
1100.501	86.94
1100.92	60.94
1101.339	76.94
1101.758	79.94
