Data from 20170802-ORNL-NYSim-Air_HRD10391_10-36-29-604.txt Node
Date: Wed Aug 02 10:36:29 EDT 2017
User: Ender
Spectrometer: HR+D1039
Trigger mode: 0
Integration Time (sec): 3.750000E-3
Scans to average: 1
Electric dark correction enabled: true
Nonlinearity correction enabled: false
Boxcar width: 0
XAxis mode: Wavelengths
Number of Pixels in Spectrum: 2048
>>>>>Begin Spectral Data<<<<<
187.836	-21.25
188.309	-21.25
188.782	-21.25
189.255	-2.25
189.728	9.75
190.201	-6.25
190.674	-17.25
191.147	-12.25
191.619	0.75
192.092	-0.25
192.565	-8.25
193.038	5.75
193.511	9.75
193.984	-6.25
194.456	-3.25
194.929	11.75
195.402	17.75
195.874	21.75
196.347	9.75
196.82	27.75
197.292	31.75
197.765	42.75
198.237	28.75
198.71	42.75
199.182	27.75
199.655	59.75
200.127	67.75
200.6	55.75
201.072	75.75
201.544	67.75
202.017	69.75
202.489	64.75
202.961	65.75
203.433	59.75
203.906	60.75
204.378	84.75
204.85	80.75
205.322	81.75
205.794	63.75
206.266	92.75
206.739	95.75
207.211	88.75
207.683	103.75
208.155	77.75
208.627	73.75
209.099	88.75
209.57	93.75
210.042	82.75
210.514	90.75
210.986	79.75
211.458	77.75
211.93	97.75
212.402	89.75
212.873	77.75
213.345	86.75
213.817	97.75
214.288	85.75
214.76	90.75
215.232	66.75
215.703	71.75
216.175	89.75
216.646	99.75
217.118	82.75
217.589	88.75
218.061	86.75
218.532	87.75
219.004	71.75
219.475	88.75
219.946	71.75
220.418	84.75
220.889	69.75
221.36	93.75
221.832	74.75
222.303	85.75
222.774	86.75
223.245	80.75
223.717	74.75
224.188	83.75
224.659	72.75
225.13	70.75
225.601	87.75
226.072	93.75
226.543	83.75
227.014	85.75
227.485	102.75
227.956	78.75
228.427	86.75
228.898	72.75
229.369	89.75
229.839	69.75
230.31	89.75
230.781	83.75
231.252	83.75
231.722	93.75
232.193	93.75
232.664	95.75
233.135	86.75
233.605	85.75
234.076	87.75
234.546	97.75
235.017	79.75
235.487	87.75
235.958	80.75
236.428	86.75
236.899	81.75
237.369	86.75
237.84	93.75
238.31	95.75
238.78	92.75
239.251	88.75
239.721	81.75
240.191	98.75
240.662	94.75
241.132	73.75
241.602	79.75
242.072	78.75
242.542	79.75
243.013	81.75
243.483	82.75
243.953	90.75
244.423	102.75
244.893	91.75
245.363	88.75
245.833	81.75
246.303	82.75
246.773	98.75
247.243	90.75
247.712	97.75
248.182	92.75
248.652	111.75
249.122	97.75
249.592	100.75
250.061	90.75
250.531	85.75
251.001	93.75
251.471	90.75
251.94	106.75
252.41	92.75
252.879	103.75
253.349	104.75
253.818	105.75
254.288	84.75
254.757	107.75
255.227	105.75
255.696	81.75
256.166	111.75
256.635	105.75
257.105	81.75
257.574	103.75
258.043	95.75
258.513	92.75
258.982	100.75
259.451	93.75
259.92	103.75
260.389	116.75
260.859	108.75
261.328	116.75
261.797	105.75
262.266	93.75
262.735	91.75
263.204	116.75
263.673	107.75
264.142	95.75
264.611	102.75
265.08	103.75
265.549	104.75
266.018	97.75
266.487	96.75
266.955	112.75
267.424	97.75
267.893	120.75
268.362	105.75
268.83	97.75
269.299	99.75
269.768	98.75
270.236	122.75
270.705	103.75
271.174	115.75
271.642	114.75
272.111	115.75
272.579	124.75
273.048	106.75
273.516	99.75
273.985	103.75
274.453	109.75
274.922	105.75
275.39	120.75
275.858	93.75
276.327	124.75
276.795	106.75
277.263	111.75
277.731	122.75
278.2	111.75
278.668	109.75
279.136	117.75
279.604	116.75
280.072	109.75
280.54	123.75
281.008	114.75
281.477	127.75
281.945	123.75
282.413	119.75
282.881	122.75
283.348	130.75
283.816	105.75
284.284	112.75
284.752	115.75
285.22	117.75
285.688	110.75
286.156	140.75
286.623	122.75
287.091	128.75
287.559	121.75
288.026	142.75
288.494	116.75
288.962	120.75
289.429	117.75
289.897	132.75
290.364	125.75
290.832	129.75
291.3	141.75
291.767	128.75
292.234	129.75
292.702	130.75
293.169	133.75
293.637	130.75
294.104	150.75
294.571	141.75
295.039	131.75
295.506	118.75
295.973	150.75
296.44	136.75
296.908	123.75
297.375	131.75
297.842	143.75
298.309	138.75
298.776	141.75
299.243	138.75
299.71	129.75
300.177	157.75
300.644	141.75
301.111	144.75
301.578	133.75
302.045	145.75
302.512	133.75
302.979	137.75
303.446	130.75
303.913	130.75
304.379	141.75
304.846	133.75
305.313	128.75
305.78	149.75
306.246	157.75
306.713	156.75
307.18	154.75
307.646	135.75
308.113	166.75
308.579	162.75
309.046	166.75
309.512	162.75
309.979	158.75
310.445	167.75
310.912	155.75
311.378	171.75
311.845	152.75
312.311	157.75
312.777	145.75
313.244	165.75
313.71	175.75
314.176	178.75
314.642	163.75
315.109	160.75
315.575	159.75
316.041	163.75
316.507	169.75
316.973	169.75
317.439	188.75
317.905	197.75
318.371	173.75
318.837	156.75
319.303	161.75
319.769	197.75
320.235	197.75
320.701	175.75
321.167	186.75
321.633	168.75
322.099	170.75
322.564	178.75
323.03	189.75
323.496	185.75
323.962	163.75
324.427	201.75
324.893	193.75
325.359	179.75
325.824	181.75
326.29	196.75
326.755	189.75
327.221	185.75
327.686	182.75
328.152	194.75
328.617	212.75
329.083	187.75
329.548	182.75
330.014	204.75
330.479	194.75
330.944	203.75
331.41	203.75
331.875	205.75
332.34	195.75
332.805	213.75
333.271	190.75
333.736	199.75
334.201	222.75
334.666	212.75
335.131	208.75
335.596	210.75
336.061	209.75
336.526	201.75
336.991	191.75
337.456	236.75
337.921	207.75
338.386	225.75
338.851	210.75
339.316	225.75
339.781	223.75
340.246	183.75
340.711	224.75
341.175	241.75
341.64	236.75
342.105	222.75
342.569	220.75
343.034	233.75
343.499	206.75
343.963	220.75
344.428	229.75
344.893	259.75
345.357	215.75
345.822	223.75
346.286	242.75
346.751	227.75
347.215	257.75
347.679	254.75
348.144	263.75
348.608	259.75
349.073	256.75
349.537	273.75
350.001	258.75
350.465	234.75
350.93	260.75
351.394	284.75
351.858	283.75
352.322	281.75
352.786	277.75
353.25	295.75
353.715	261.75
354.179	276.75
354.643	289.75
355.107	299.75
355.571	294.75
356.035	294.75
356.498	285.75
356.962	287.75
357.426	306.75
357.89	277.75
358.354	278.75
358.818	278.75
359.281	289.75
359.745	294.75
360.209	293.75
360.673	274.75
361.136	270.75
361.6	280.75
362.064	280.75
362.527	296.75
362.991	304.75
363.454	309.75
363.918	324.75
364.381	296.75
364.845	296.75
365.308	284.75
365.772	285.75
366.235	295.75
366.698	314.75
367.162	302.75
367.625	309.75
368.088	323.75
368.552	320.75
369.015	318.75
369.478	317.75
369.941	309.75
370.404	324.75
370.867	330.75
371.331	315.75
371.794	328.75
372.257	333.75
372.72	316.75
373.183	314.75
373.646	321.75
374.109	321.75
374.572	359.75
375.035	335.75
375.497	337.75
375.96	343.75
376.423	349.75
376.886	356.75
377.349	355.75
377.811	364.75
378.274	345.75
378.737	333.75
379.199	337.75
379.662	370.75
380.125	352.75
380.587	355.75
381.05	371.75
381.512	379.75
381.975	391.75
382.437	387.75
382.9	368.75
383.362	353.75
383.825	390.75
384.287	408.75
384.75	382.75
385.212	365.75
385.674	372.75
386.136	364.75
386.599	394.75
387.061	386.75
387.523	404.75
387.985	408.75
388.447	386.75
388.91	417.75
389.372	422.75
389.834	415.75
390.296	401.75
390.758	387.75
391.22	398.75
391.682	383.75
392.144	403.75
392.606	389.75
393.068	407.75
393.529	436.75
393.991	433.75
394.453	419.75
394.915	436.75
395.377	411.75
395.838	423.75
396.3	411.75
396.762	395.75
397.224	411.75
397.685	403.75
398.147	395.75
398.608	421.75
399.07	441.75
399.531	431.75
399.993	435.75
400.454	459.75
400.916	477.75
401.377	461.75
401.839	453.75
402.3	467.75
402.762	487.75
403.223	520.75
403.684	510.75
404.145	521.75
404.607	480.75
405.068	497.75
405.529	473.75
405.99	451.75
406.451	480.75
406.913	483.75
407.374	490.75
407.835	470.75
408.296	486.75
408.757	513.75
409.218	503.75
409.679	499.75
410.14	501.75
410.601	529.75
411.062	519.75
411.522	540.75
411.983	546.75
412.444	551.75
412.905	575.75
413.366	585.75
413.826	596.75
414.287	685.75
414.748	785.75
415.208	833.75
415.669	687.75
416.13	639.75
416.59	621.75
417.051	695.75
417.511	690.75
417.972	758.75
418.432	782.75
418.893	894.75
419.353	823.75
419.814	642.75
420.274	590.75
420.734	583.75
421.195	599.75
421.655	572.75
422.115	563.75
422.576	583.75
423.036	595.75
423.496	614.75
423.956	644.75
424.416	682.75
424.876	735.75
425.336	749.75
425.797	728.75
426.257	732.75
426.717	672.75
427.177	597.75
427.637	610.75
428.097	592.75
428.556	649.75
429.016	689.75
429.476	675.75
429.936	617.75
430.396	655.75
430.856	646.75
431.315	641.75
431.775	669.75
432.235	743.75
432.694	740.75
433.154	674.75
433.614	697.75
434.073	675.75
434.533	624.75
434.993	619.75
435.452	619.75
435.912	636.75
436.371	613.75
436.83	655.75
437.29	650.75
437.749	628.75
438.209	636.75
438.668	640.75
439.127	641.75
439.587	686.75
440.046	636.75
440.505	656.75
440.964	680.75
441.424	666.75
441.883	699.75
442.342	657.75
442.801	675.75
443.26	634.75
443.719	671.75
444.178	657.75
444.637	658.75
445.096	670.75
445.555	688.75
446.014	644.75
446.473	676.75
446.932	644.75
447.391	672.75
447.849	696.75
448.308	691.75
448.767	736.75
449.226	705.75
449.685	714.75
450.143	731.75
450.602	718.75
451.061	699.75
451.519	706.75
451.978	688.75
452.436	661.75
452.895	707.75
453.353	683.75
453.812	676.75
454.27	689.75
454.729	677.75
455.187	702.75
455.646	697.75
456.104	736.75
456.562	742.75
457.021	726.75
457.479	706.75
457.937	693.75
458.395	733.75
458.854	701.75
459.312	709.75
459.77	715.75
460.228	735.75
460.686	736.75
461.144	761.75
461.602	745.75
462.06	733.75
462.518	750.75
462.976	760.75
463.434	757.75
463.892	761.75
464.35	775.75
464.808	817.75
465.266	800.75
465.724	815.75
466.181	821.75
466.639	824.75
467.097	826.75
467.555	857.75
468.012	861.75
468.47	866.75
468.928	900.75
469.385	899.75
469.843	923.75
470.3	879.75
470.758	924.75
471.215	938.75
471.673	943.75
472.13	1005.75
472.588	1010.75
473.045	986.75
473.503	998.75
473.96	1029.75
474.417	1041.75
474.875	1063.75
475.332	1063.75
475.789	1092.75
476.246	1102.75
476.704	1147.75
477.161	1119.75
477.618	1135.75
478.075	1194.75
478.532	1197.75
478.989	1257.75
479.446	1309.75
479.903	1262.75
480.36	1309.75
480.817	1299.75
481.274	1294.75
481.731	1378.75
482.188	1341.75
482.645	1365.75
483.102	1369.75
483.558	1469.75
484.015	1473.75
484.472	1474.75
484.929	1455.75
485.385	1438.75
485.842	1496.75
486.299	1488.75
486.755	1471.75
487.212	1473.75
487.668	1424.75
488.125	1431.75
488.582	1431.75
489.038	1416.75
489.494	1428.75
489.951	1431.75
490.407	1467.75
490.864	1420.75
491.32	1460.75
491.776	1446.75
492.233	1461.75
492.689	1488.75
493.145	1466.75
493.602	1437.75
494.058	1515.75
494.514	1507.75
494.97	1471.75
495.426	1499.75
495.882	1519.75
496.338	1497.75
496.794	1569.75
497.251	1562.75
497.707	1599.75
498.163	1581.75
498.618	1571.75
499.074	1571.75
499.53	1596.75
499.986	1577.75
500.442	1575.75
500.898	1580.75
501.354	1627.75
501.809	1608.75
502.265	1584.75
502.721	1565.75
503.177	1625.75
503.632	1606.75
504.088	1601.75
504.543	1672.75
504.999	1711.75
505.455	1665.75
505.91	1665.75
506.366	1672.75
506.821	1663.75
507.277	1625.75
507.732	1675.75
508.187	1658.75
508.643	1667.75
509.098	1627.75
509.553	1671.75
510.009	1718.75
510.464	1737.75
510.919	1741.75
511.375	1836.75
511.83	1802.75
512.285	1797.75
512.74	1855.75
513.195	1925.75
513.65	1916.75
514.105	1945.75
514.56	1940.75
515.015	1993.75
515.47	1961.75
515.925	1973.75
516.38	1982.75
516.835	2023.75
517.29	2029.75
517.745	1981.75
518.2	1930.75
518.655	1908.75
519.109	1868.75
519.564	1877.75
520.019	1807.75
520.474	1834.75
520.928	1858.75
521.383	1829.75
521.838	1820.75
522.292	1793.75
522.747	1777.75
523.201	1809.75
523.656	1714.75
524.11	1767.75
524.565	1724.75
525.019	1738.75
525.474	1764.75
525.928	1741.75
526.382	1743.75
526.837	1737.75
527.291	1736.75
527.745	1707.75
528.2	1749.75
528.654	1728.75
529.108	1733.75
529.562	1698.75
530.016	1733.75
530.47	1725.75
530.925	1719.75
531.379	1712.75
531.833	1715.75
532.287	1687.75
532.741	1715.75
533.195	1731.75
533.649	1744.75
534.103	1726.75
534.556	1725.75
535.01	1761.75
535.464	1731.75
535.918	1729.75
536.372	1740.75
536.826	1731.75
537.279	1696.75
537.733	1706.75
538.187	1731.75
538.64	1725.75
539.094	1785.75
539.548	1815.75
540.001	1771.75
540.455	1737.75
540.908	1761.75
541.362	1804.75
541.815	1767.75
542.269	1866.75
542.722	1841.75
543.175	1852.75
543.629	1865.75
544.082	1853.75
544.536	1908.75
544.989	1949.75
545.442	1933.75
545.895	1964.75
546.349	1909.75
546.802	1905.75
547.255	1928.75
547.708	1989.75
548.161	1985.75
548.614	2021.75
549.067	2009.75
549.52	1978.75
549.973	1964.75
550.426	1928.75
550.879	1957.75
551.332	1963.75
551.785	1939.75
552.238	1952.75
552.691	2011.75
553.144	2012.75
553.596	2003.75
554.049	2060.75
554.502	2109.75
554.955	2097.75
555.407	2166.75
555.86	2163.75
556.313	2144.75
556.765	2112.75
557.218	2079.75
557.67	2079.75
558.123	2042.75
558.576	2043.75
559.028	2062.75
559.48	2085.75
559.933	2045.75
560.385	2025.75
560.838	1949.75
561.29	1885.75
561.742	1794.75
562.195	1856.75
562.647	1799.75
563.099	1784.75
563.551	1769.75
564.004	1801.75
564.456	1781.75
564.908	1786.75
565.36	1733.75
565.812	1659.75
566.264	1669.75
566.716	1637.75
567.168	1642.75
567.62	1598.75
568.072	1631.75
568.524	1619.75
568.976	1588.75
569.428	1610.75
569.88	1541.75
570.332	1609.75
570.784	1586.75
571.235	1590.75
571.687	1653.75
572.139	1627.75
572.59	1635.75
573.042	1630.75
573.494	1626.75
573.945	1630.75
574.397	1576.75
574.849	1601.75
575.3	1541.75
575.752	1567.75
576.203	1548.75
576.655	1537.75
577.106	1504.75
577.557	1492.75
578.009	1487.75
578.46	1493.75
578.912	1498.75
579.363	1506.75
579.814	1496.75
580.265	1528.75
580.717	1500.75
581.168	1532.75
581.619	1523.75
582.07	1516.75
582.521	1543.75
582.972	1539.75
583.423	1506.75
583.875	1501.75
584.326	1481.75
584.777	1558.75
585.227	1571.75
585.678	1611.75
586.129	1626.75
586.58	1641.75
587.031	1627.75
587.482	1699.75
587.933	1717.75
588.384	1719.75
588.834	1713.75
589.285	1721.75
589.736	1737.75
590.186	1715.75
590.637	1698.75
591.088	1681.75
591.538	1681.75
591.989	1620.75
592.439	1630.75
592.89	1556.75
593.34	1597.75
593.791	1556.75
594.241	1509.75
594.692	1543.75
595.142	1556.75
595.593	1554.75
596.043	1563.75
596.493	1593.75
596.943	1578.75
597.394	1573.75
597.844	1599.75
598.294	1632.75
598.744	1661.75
599.195	1773.75
599.645	1872.75
600.095	1969.75
600.545	2077.75
600.995	2192.75
601.445	2267.75
601.895	2388.75
602.345	2537.75
602.795	2456.75
603.245	2365.75
603.695	2221.75
604.145	2100.75
604.594	1962.75
605.044	1848.75
605.494	1735.75
605.944	1661.75
606.393	1627.75
606.843	1574.75
607.293	1561.75
607.743	1593.75
608.192	1582.75
608.642	1570.75
609.091	1590.75
609.541	1636.75
609.99	1590.75
610.44	1570.75
610.889	1559.75
611.339	1523.75
611.788	1495.75
612.238	1509.75
612.687	1516.75
613.136	1497.75
613.586	1530.75
614.035	1536.75
614.484	1549.75
614.933	1519.75
615.383	1482.75
615.832	1478.75
616.281	1448.75
616.73	1444.75
617.179	1381.75
617.628	1354.75
618.077	1339.75
618.526	1322.75
618.975	1295.75
619.424	1273.75
619.873	1291.75
620.322	1283.75
620.771	1321.75
621.22	1294.75
621.669	1212.75
622.118	1223.75
622.567	1205.75
623.015	1169.75
623.464	1195.75
623.913	1151.75
624.361	1183.75
624.81	1195.75
625.259	1190.75
625.707	1149.75
626.156	1179.75
626.604	1193.75
627.053	1200.75
627.501	1215.75
627.95	1219.75
628.398	1242.75
628.847	1222.75
629.295	1202.75
629.744	1188.75
630.192	1156.75
630.64	1184.75
631.089	1115.75
631.537	1096.75
631.985	1041.75
632.433	1065.75
632.881	1065.75
633.33	1086.75
633.778	1090.75
634.226	1071.75
634.674	1125.75
635.122	1111.75
635.57	1084.75
636.018	1131.75
636.466	1133.75
636.914	1125.75
637.362	1135.75
637.81	1150.75
638.258	1183.75
638.705	1215.75
639.153	1237.75
639.601	1258.75
640.049	1280.75
640.497	1309.75
640.944	1319.75
641.392	1311.75
641.84	1211.75
642.287	1125.75
642.735	1058.75
643.182	1051.75
643.63	1061.75
644.078	1077.75
644.525	1035.75
644.973	1065.75
645.42	1079.75
645.867	1071.75
646.315	1040.75
646.762	1038.75
647.21	1038.75
647.657	1080.75
648.104	1084.75
648.551	996.75
648.999	997.75
649.446	963.75
649.893	1020.75
650.34	1002.75
650.787	1017.75
651.234	1065.75
651.682	1147.75
652.129	1182.75
652.576	1361.75
653.023	1597.75
653.47	1765.75
653.917	1823.75
654.363	1848.75
654.81	1923.75
655.257	2051.75
655.704	1732.75
656.151	1315.75
656.598	1117.75
657.044	1054.75
657.491	1031.75
657.938	1029.75
658.385	973.75
658.831	1003.75
659.278	974.75
659.724	958.75
660.171	974.75
660.618	942.75
661.064	937.75
661.511	927.75
661.957	943.75
662.404	922.75
662.85	967.75
663.296	955.75
663.743	946.75
664.189	937.75
664.635	949.75
665.082	953.75
665.528	925.75
665.974	934.75
666.42	891.75
666.867	907.75
667.313	867.75
667.759	845.75
668.205	867.75
668.651	890.75
669.097	873.75
669.543	862.75
669.989	867.75
670.435	879.75
670.881	881.75
671.327	898.75
671.773	953.75
672.219	1053.75
672.665	1127.75
673.11	1177.75
673.556	1207.75
674.002	1245.75
674.448	1313.75
674.893	1178.75
675.339	976.75
675.785	890.75
676.23	857.75
676.676	830.75
677.122	791.75
677.567	784.75
678.013	763.75
678.458	746.75
678.904	734.75
679.349	762.75
679.794	743.75
680.24	746.75
680.685	745.75
681.131	723.75
681.576	753.75
682.021	749.75
682.466	764.75
682.912	736.75
683.357	783.75
683.802	860.75
684.247	901.75
684.692	979.75
685.137	1029.75
685.583	1058.75
686.028	1106.75
686.473	1073.75
686.918	969.75
687.363	840.75
687.807	816.75
688.252	801.75
688.697	734.75
689.142	755.75
689.587	730.75
690.032	731.75
690.477	735.75
690.921	807.75
691.366	829.75
691.811	868.75
692.255	921.75
692.7	1082.75
693.145	1358.75
693.589	2107.75
694.034	2793.75
694.478	3191.75
694.923	2940.75
695.367	3657.75
695.812	3259.75
696.256	1293.75
696.701	853.75
697.145	734.75
697.59	743.75
698.034	705.75
698.478	713.75
698.922	731.75
699.367	690.75
699.811	753.75
700.255	781.75
700.699	871.75
701.143	959.75
701.588	1026.75
702.032	1060.75
702.476	1099.75
702.92	1133.75
703.364	1264.75
703.808	1916.75
704.252	2675.75
704.696	3020.75
705.14	2831.75
705.584	3527.75
706.027	2833.75
706.471	1279.75
706.915	885.75
707.359	774.75
707.803	699.75
708.246	685.75
708.69	677.75
709.134	688.75
709.577	680.75
710.021	669.75
710.465	668.75
710.908	665.75
711.352	669.75
711.795	706.75
712.239	794.75
712.682	850.75
713.126	861.75
713.569	891.75
714.012	829.75
714.456	645.75
714.899	637.75
715.342	605.75
715.786	595.75
716.229	562.75
716.672	565.75
717.115	556.75
717.558	553.75
718.002	586.75
718.445	592.75
718.888	653.75
719.331	663.75
719.774	634.75
720.217	649.75
720.66	631.75
721.103	594.75
721.546	589.75
721.989	538.75
722.432	545.75
722.874	534.75
723.317	501.75
723.76	567.75
724.203	631.75
724.645	855.75
725.088	1051.75
725.531	1118.75
725.974	1098.75
726.416	1178.75
726.859	750.75
727.301	576.75
727.744	541.75
728.187	529.75
728.629	537.75
729.071	582.75
729.514	581.75
729.956	606.75
730.399	646.75
730.841	645.75
731.283	615.75
731.726	619.75
732.168	554.75
732.61	602.75
733.053	658.75
733.495	736.75
733.937	825.75
734.379	919.75
734.821	1081.75
735.263	1535.75
735.705	2682.75
736.148	4413.75
736.59	5081.75
737.032	4803.75
737.474	5145.75
737.916	2397.75
738.357	1129.75
738.799	778.75
739.241	689.75
739.683	693.75
740.125	671.75
740.567	682.75
741.008	692.75
741.45	761.75
741.892	783.75
742.334	823.75
742.775	775.75
743.217	765.75
743.658	710.75
744.1	635.75
744.542	749.75
744.983	779.75
745.425	789.75
745.866	821.75
746.307	735.75
746.749	724.75
747.19	853.75
747.632	1469.75
748.073	2931.75
748.514	4637.75
748.956	5736.75
749.397	7759.75
749.838	6092.75
750.279	5060.75
750.72	3683.75
751.162	1598.75
751.603	837.75
752.044	596.75
752.485	535.75
752.926	477.75
753.367	482.75
753.808	471.75
754.249	451.75
754.69	465.75
755.131	447.75
755.572	437.75
756.013	451.75
756.453	460.75
756.894	454.75
757.335	450.75
757.776	469.75
758.216	497.75
758.657	484.75
759.098	531.75
759.538	579.75
759.979	738.75
760.42	1211.75
760.86	2884.75
761.301	6809.75
761.741	10235.75
762.182	10587.75
762.622	9661.75
763.063	4254.75
763.503	1634.75
763.943	857.75
764.384	654.75
764.824	542.75
765.264	501.75
765.705	473.75
766.145	467.75
766.585	439.75
767.025	427.75
767.465	407.75
767.906	427.75
768.346	433.75
768.786	525.75
769.226	617.75
769.666	1025.75
770.106	2279.75
770.546	4107.75
770.986	4442.75
771.426	4329.75
771.866	2333.75
772.306	997.75
772.745	547.75
773.185	437.75
773.625	418.75
774.065	407.75
774.505	495.75
774.944	734.75
775.384	1147.75
775.824	1374.75
776.263	1327.75
776.703	931.75
777.142	546.75
777.582	407.75
778.021	359.75
778.461	318.75
778.9	329.75
779.34	319.75
779.779	351.75
780.219	313.75
780.658	300.75
781.097	305.75
781.537	303.75
781.976	303.75
782.415	276.75
782.855	289.75
783.294	281.75
783.733	283.75
784.172	309.75
784.611	272.75
785.05	300.75
785.489	289.75
785.928	319.75
786.367	337.75
786.806	306.75
787.245	355.75
787.684	371.75
788.123	366.75
788.562	342.75
789.001	387.75
789.44	302.75
789.879	339.75
790.317	317.75
790.756	333.75
791.195	371.75
791.634	427.75
792.072	643.75
792.511	1326.75
792.95	2995.75
793.388	3845.75
793.827	3315.75
794.265	1885.75
794.704	921.75
795.142	517.75
795.581	405.75
796.019	355.75
796.458	355.75
796.896	354.75
797.334	372.75
797.773	459.75
798.211	692.75
798.649	1437.75
799.087	2443.75
799.526	3744.75
799.964	4241.75
800.402	3477.75
800.84	1942.75
801.278	983.75
801.716	551.75
802.154	443.75
802.592	400.75
803.03	376.75
803.468	371.75
803.906	391.75
804.344	387.75
804.782	379.75
805.22	384.75
805.658	364.75
806.096	414.75
806.533	417.75
806.971	517.75
807.409	653.75
807.847	1043.75
808.284	2478.75
808.722	5009.75
809.16	6982.75
809.597	9589.75
810.035	12473.75
810.472	10567.75
810.91	5704.75
811.347	2711.75
811.785	1166.75
812.222	685.75
812.66	526.75
813.097	442.75
813.535	389.75
813.972	350.75
814.409	337.75
814.846	315.75
815.284	311.75
815.721	302.75
816.158	327.75
816.595	379.75
817.032	434.75
817.47	461.75
817.907	391.75
818.344	336.75
818.781	325.75
819.218	324.75
819.655	461.75
820.092	539.75
820.529	598.75
820.966	514.75
821.403	413.75
821.839	331.75
822.276	325.75
822.713	363.75
823.15	389.75
823.587	381.75
824.023	507.75
824.46	1103.75
824.897	2181.75
825.333	2283.75
825.77	1305.75
826.206	760.75
826.643	433.75
827.08	310.75
827.516	257.75
827.953	264.75
828.389	251.75
828.825	243.75
829.262	221.75
829.698	214.75
830.135	203.75
830.571	206.75
831.007	213.75
831.443	218.75
831.88	203.75
832.316	231.75
832.752	206.75
833.188	224.75
833.624	222.75
834.06	212.75
834.497	239.75
834.933	231.75
835.369	231.75
835.805	250.75
836.241	246.75
836.677	262.75
837.112	312.75
837.548	341.75
837.984	424.75
838.42	697.75
838.856	1781.75
839.292	3924.75
839.727	4252.75
840.163	2778.75
840.599	3217.75
841.034	4925.75
841.47	3766.75
841.906	2021.75
842.341	1100.75
842.777	665.75
843.212	589.75
843.648	467.75
844.083	364.75
844.519	297.75
844.954	258.75
845.39	249.75
845.825	208.75
846.261	194.75
846.696	202.75
847.131	211.75
847.566	202.75
848.002	213.75
848.437	207.75
848.872	211.75
849.307	241.75
849.742	313.75
850.177	667.75
850.613	1441.75
851.048	1563.75
851.483	857.75
851.918	553.75
852.353	328.75
852.788	248.75
853.223	198.75
853.657	193.75
854.092	210.75
854.527	166.75
854.962	185.75
855.397	211.75
855.832	180.75
856.266	179.75
856.701	161.75
857.136	180.75
857.57	173.75
858.005	206.75
858.44	185.75
858.874	201.75
859.309	189.75
859.743	207.75
860.178	173.75
860.612	192.75
861.047	208.75
861.481	240.75
861.915	249.75
862.35	197.75
862.784	181.75
863.218	191.75
863.653	157.75
864.087	176.75
864.521	207.75
864.955	281.75
865.39	452.75
865.824	421.75
866.258	396.75
866.692	555.75
867.126	529.75
867.56	399.75
867.994	290.75
868.428	211.75
868.862	216.75
869.296	217.75
869.73	255.75
870.164	236.75
870.598	217.75
871.031	197.75
871.465	158.75
871.899	154.75
872.333	143.75
872.766	149.75
873.2	146.75
873.634	149.75
874.067	137.75
874.501	144.75
874.935	166.75
875.368	143.75
875.802	137.75
876.235	131.75
876.669	134.75
877.102	147.75
877.535	137.75
877.969	143.75
878.402	114.75
878.836	139.75
879.269	123.75
879.702	126.75
880.135	149.75
880.569	157.75
881.002	131.75
881.435	122.75
881.868	120.75
882.301	129.75
882.734	118.75
883.167	130.75
883.601	127.75
884.034	136.75
884.467	125.75
884.899	128.75
885.332	139.75
885.765	136.75
886.198	114.75
886.631	116.75
887.064	117.75
887.497	125.75
887.929	133.75
888.362	121.75
888.795	124.75
889.228	122.75
889.66	109.75
890.093	119.75
890.526	113.75
890.958	134.75
891.391	100.75
891.823	123.75
892.256	127.75
892.688	104.75
893.121	112.75
893.553	121.75
893.985	111.75
894.418	131.75
894.85	133.75
895.282	121.75
895.715	129.75
896.147	118.75
896.579	118.75
897.011	106.75
897.444	119.75
897.876	136.75
898.308	120.75
898.74	139.75
899.172	116.75
899.604	120.75
900.036	112.75
900.468	125.75
900.9	129.75
901.332	131.75
901.764	128.75
902.196	127.75
902.628	141.75
903.06	119.75
903.491	158.75
903.923	164.75
904.355	132.75
904.787	133.75
905.218	134.75
905.65	147.75
906.082	127.75
906.513	122.75
906.945	123.75
907.376	111.75
907.808	115.75
908.239	119.75
908.671	133.75
909.102	127.75
909.534	162.75
909.965	204.75
910.397	346.75
910.828	879.75
911.259	937.75
911.691	592.75
912.122	411.75
912.553	237.75
912.984	173.75
913.415	153.75
913.847	145.75
914.278	139.75
914.709	129.75
915.14	140.75
915.571	123.75
916.002	115.75
916.433	120.75
916.864	136.75
917.295	144.75
917.726	139.75
918.157	148.75
918.587	131.75
919.018	141.75
919.449	134.75
919.88	140.75
920.311	161.75
920.741	233.75
921.172	459.75
921.603	360.75
922.033	292.75
922.464	213.75
922.895	162.75
923.325	127.75
923.756	128.75
924.186	106.75
924.617	153.75
925.047	142.75
925.478	164.75
925.908	145.75
926.338	136.75
926.769	110.75
927.199	111.75
927.629	114.75
928.06	107.75
928.49	112.75
928.92	113.75
929.35	113.75
929.78	99.75
930.21	92.75
930.641	106.75
931.071	111.75
931.501	105.75
931.931	98.75
932.361	94.75
932.791	106.75
933.221	110.75
933.651	106.75
934.08	139.75
934.51	127.75
934.94	90.75
935.37	120.75
935.8	79.75
936.229	94.75
936.659	98.75
937.089	107.75
937.519	134.75
937.948	156.75
938.378	127.75
938.807	127.75
939.237	110.75
939.666	109.75
940.096	98.75
940.525	105.75
940.955	97.75
941.384	93.75
941.814	78.75
942.243	102.75
942.672	96.75
943.102	86.75
943.531	90.75
943.96	94.75
944.39	93.75
944.819	90.75
945.248	90.75
945.677	102.75
946.106	102.75
946.535	83.75
946.964	98.75
947.393	95.75
947.822	97.75
948.251	84.75
948.68	105.75
949.109	96.75
949.538	89.75
949.967	91.75
950.396	107.75
950.825	93.75
951.254	90.75
951.682	100.75
952.111	87.75
952.54	91.75
952.969	101.75
953.397	93.75
953.826	102.75
954.254	101.75
954.683	91.75
955.112	108.75
955.54	94.75
955.969	91.75
956.397	91.75
956.826	94.75
957.254	97.75
957.682	89.75
958.111	95.75
958.539	83.75
958.967	93.75
959.396	88.75
959.824	106.75
960.252	80.75
960.68	109.75
961.109	94.75
961.537	89.75
961.965	93.75
962.393	79.75
962.821	91.75
963.249	84.75
963.677	89.75
964.105	130.75
964.533	211.75
964.961	169.75
965.389	153.75
965.817	130.75
966.245	109.75
966.672	100.75
967.1	98.75
967.528	92.75
967.956	89.75
968.383	86.75
968.811	80.75
969.239	82.75
969.666	73.75
970.094	91.75
970.522	95.75
970.949	95.75
971.377	89.75
971.804	92.75
972.232	82.75
972.659	103.75
973.087	97.75
973.514	87.75
973.941	79.75
974.369	99.75
974.796	100.75
975.223	75.75
975.651	91.75
976.078	99.75
976.505	106.75
976.932	105.75
977.359	123.75
977.786	110.75
978.214	107.75
978.641	93.75
979.068	79.75
979.495	97.75
979.922	77.75
980.349	87.75
980.776	91.75
981.202	80.75
981.629	96.75
982.056	86.75
982.483	81.75
982.91	88.75
983.337	76.75
983.763	82.75
984.19	97.75
984.617	95.75
985.043	91.75
985.47	90.75
985.897	65.75
986.323	95.75
986.75	84.75
987.176	100.75
987.603	70.75
988.029	76.75
988.456	72.75
988.882	97.75
989.308	96.75
989.735	95.75
990.161	84.75
990.587	95.75
991.014	105.75
991.44	97.75
991.866	101.75
992.292	95.75
992.719	77.75
993.145	85.75
993.571	77.75
993.997	98.75
994.423	86.75
994.849	95.75
995.275	84.75
995.701	86.75
996.127	80.75
996.553	83.75
996.979	79.75
997.405	82.75
997.83	93.75
998.256	87.75
998.682	97.75
999.108	88.75
999.534	95.75
999.959	87.75
1000.385	93.75
1000.811	83.75
1001.236	82.75
1001.662	84.75
1002.087	97.75
1002.513	70.75
1002.938	90.75
1003.364	74.75
1003.789	101.75
1004.215	95.75
1004.64	85.75
1005.066	87.75
1005.491	113.75
1005.916	80.75
1006.342	72.75
1006.767	81.75
1007.192	107.75
1007.617	97.75
1008.042	85.75
1008.468	91.75
1008.893	104.75
1009.318	82.75
1009.743	91.75
1010.168	106.75
1010.593	113.75
1011.018	97.75
1011.443	91.75
1011.868	89.75
1012.293	94.75
1012.718	87.75
1013.143	77.75
1013.567	87.75
1013.992	85.75
1014.417	93.75
1014.842	66.75
1015.267	91.75
1015.691	92.75
1016.116	96.75
1016.541	103.75
1016.965	86.75
1017.39	91.75
1017.814	81.75
1018.239	82.75
1018.663	94.75
1019.088	77.75
1019.512	98.75
1019.937	98.75
1020.361	81.75
1020.785	106.75
1021.21	106.75
1021.634	79.75
1022.058	79.75
1022.483	99.75
1022.907	97.75
1023.331	92.75
1023.755	68.75
1024.179	90.75
1024.604	79.75
1025.028	82.75
1025.452	90.75
1025.876	59.75
1026.3	78.75
1026.724	82.75
1027.148	82.75
1027.572	97.75
1027.996	87.75
1028.42	87.75
1028.843	79.75
1029.267	75.75
1029.691	64.75
1030.115	69.75
1030.539	83.75
1030.962	99.75
1031.386	97.75
1031.81	84.75
1032.233	72.75
1032.657	84.75
1033.08	93.75
1033.504	80.75
1033.927	71.75
1034.351	82.75
1034.774	83.75
1035.198	76.75
1035.621	85.75
1036.045	101.75
1036.468	92.75
1036.891	91.75
1037.315	76.75
1037.738	100.75
1038.161	71.75
1038.584	73.75
1039.008	73.75
1039.431	84.75
1039.854	84.75
1040.277	77.75
1040.7	73.75
1041.123	75.75
1041.546	95.75
1041.969	85.75
1042.392	89.75
1042.815	91.75
1043.238	79.75
1043.661	79.75
1044.084	70.75
1044.507	81.75
1044.93	78.75
1045.352	92.75
1045.775	101.75
1046.198	71.75
1046.621	89.75
1047.043	73.75
1047.466	67.75
1047.889	88.75
1048.311	98.75
1048.734	88.75
1049.156	89.75
1049.579	81.75
1050.001	75.75
1050.424	90.75
1050.846	83.75
1051.269	99.75
1051.691	74.75
1052.113	83.75
1052.536	98.75
1052.958	79.75
1053.38	74.75
1053.802	90.75
1054.225	79.75
1054.647	91.75
1055.069	75.75
1055.491	97.75
1055.913	91.75
1056.335	84.75
1056.757	91.75
1057.179	79.75
1057.601	88.75
1058.023	85.75
1058.445	83.75
1058.867	80.75
1059.289	76.75
1059.711	83.75
1060.133	93.75
1060.555	88.75
1060.976	63.75
1061.398	79.75
1061.82	83.75
1062.241	74.75
1062.663	88.75
1063.085	89.75
1063.506	88.75
1063.928	72.75
1064.35	81.75
1064.771	87.75
1065.193	90.75
1065.614	83.75
1066.035	89.75
1066.457	73.75
1066.878	81.75
1067.3	79.75
1067.721	87.75
1068.142	99.75
1068.564	72.75
1068.985	91.75
1069.406	76.75
1069.827	81.75
1070.248	74.75
1070.67	76.75
1071.091	85.75
1071.512	72.75
1071.933	71.75
1072.354	71.75
1072.775	83.75
1073.196	74.75
1073.617	79.75
1074.038	80.75
1074.459	77.75
1074.88	87.75
1075.3	100.75
1075.721	93.75
1076.142	81.75
1076.563	87.75
1076.983	74.75
1077.404	100.75
1077.825	101.75
1078.246	80.75
1078.666	96.75
1079.087	70.75
1079.507	89.75
1079.928	89.75
1080.348	76.75
1080.769	85.75
1081.189	79.75
1081.61	85.75
1082.03	71.75
1082.451	77.75
1082.871	80.75
1083.291	78.75
1083.711	89.75
1084.132	88.75
1084.552	89.75
1084.972	76.75
1085.392	76.75
1085.813	75.75
1086.233	83.75
1086.653	95.75
1087.073	85.75
1087.493	79.75
1087.913	87.75
1088.333	97.75
1088.753	80.75
1089.173	76.75
1089.593	71.75
1090.013	88.75
1090.433	74.75
1090.852	75.75
1091.272	77.75
1091.692	72.75
1092.112	75.75
1092.531	93.75
1092.951	82.75
1093.371	82.75
1093.79	79.75
1094.21	95.75
1094.63	86.75
1095.049	89.75
1095.469	73.75
1095.888	94.75
1096.308	83.75
1096.727	85.75
1097.146	81.75
1097.566	74.75
1097.985	90.75
1098.405	99.75
1098.824	90.75
1099.243	83.75
1099.662	100.75
1100.082	79.75
1100.501	90.75
1100.92	72.75
1101.339	95.75
1101.758	99.75
