Data from 20170802-ORNL-NYSim-Air_HRD10391_10-36-25-599.txt Node
Date: Wed Aug 02 10:36:25 EDT 2017
User: Ender
Spectrometer: HR+D1039
Trigger mode: 0
Integration Time (sec): 3.750000E-3
Scans to average: 1
Electric dark correction enabled: true
Nonlinearity correction enabled: false
Boxcar width: 0
XAxis mode: Wavelengths
Number of Pixels in Spectrum: 2048
>>>>>Begin Spectral Data<<<<<
187.836	5.19
188.309	5.19
188.782	5.19
189.255	-8.81
189.728	-15.81
190.201	-10.81
190.674	-12.81
191.147	-19.81
191.619	-16.81
192.092	-11.81
192.565	-4.81
193.038	-3.81
193.511	19.19
193.984	2.19
194.456	8.19
194.929	21.19
195.402	26.19
195.874	23.19
196.347	7.19
196.82	32.19
197.292	28.19
197.765	25.19
198.237	30.19
198.71	37.19
199.182	45.19
199.655	50.19
200.127	65.19
200.6	47.19
201.072	53.19
201.544	65.19
202.017	74.19
202.489	79.19
202.961	64.19
203.433	55.19
203.906	80.19
204.378	71.19
204.85	68.19
205.322	85.19
205.794	75.19
206.266	81.19
206.739	82.19
207.211	79.19
207.683	98.19
208.155	78.19
208.627	95.19
209.099	67.19
209.57	73.19
210.042	78.19
210.514	70.19
210.986	75.19
211.458	80.19
211.93	79.19
212.402	88.19
212.873	85.19
213.345	79.19
213.817	85.19
214.288	92.19
214.76	82.19
215.232	76.19
215.703	94.19
216.175	80.19
216.646	84.19
217.118	91.19
217.589	95.19
218.061	86.19
218.532	63.19
219.004	85.19
219.475	71.19
219.946	75.19
220.418	85.19
220.889	85.19
221.36	84.19
221.832	83.19
222.303	70.19
222.774	94.19
223.245	85.19
223.717	85.19
224.188	84.19
224.659	71.19
225.13	67.19
225.601	78.19
226.072	82.19
226.543	78.19
227.014	79.19
227.485	86.19
227.956	87.19
228.427	85.19
228.898	61.19
229.369	83.19
229.839	71.19
230.31	83.19
230.781	73.19
231.252	89.19
231.722	80.19
232.193	93.19
232.664	85.19
233.135	87.19
233.605	84.19
234.076	79.19
234.546	76.19
235.017	87.19
235.487	91.19
235.958	86.19
236.428	75.19
236.899	93.19
237.369	91.19
237.84	86.19
238.31	81.19
238.78	73.19
239.251	73.19
239.721	74.19
240.191	100.19
240.662	85.19
241.132	85.19
241.602	87.19
242.072	86.19
242.542	90.19
243.013	80.19
243.483	91.19
243.953	99.19
244.423	79.19
244.893	82.19
245.363	94.19
245.833	84.19
246.303	93.19
246.773	92.19
247.243	75.19
247.712	87.19
248.182	89.19
248.652	89.19
249.122	90.19
249.592	85.19
250.061	100.19
250.531	98.19
251.001	72.19
251.471	88.19
251.94	104.19
252.41	84.19
252.879	75.19
253.349	101.19
253.818	109.19
254.288	115.19
254.757	94.19
255.227	81.19
255.696	92.19
256.166	82.19
256.635	66.19
257.105	93.19
257.574	102.19
258.043	98.19
258.513	110.19
258.982	83.19
259.451	93.19
259.92	95.19
260.389	102.19
260.859	105.19
261.328	101.19
261.797	103.19
262.266	107.19
262.735	115.19
263.204	103.19
263.673	94.19
264.142	90.19
264.611	106.19
265.08	100.19
265.549	102.19
266.018	98.19
266.487	125.19
266.955	103.19
267.424	93.19
267.893	74.19
268.362	101.19
268.83	99.19
269.299	85.19
269.768	111.19
270.236	109.19
270.705	100.19
271.174	107.19
271.642	89.19
272.111	99.19
272.579	126.19
273.048	104.19
273.516	101.19
273.985	111.19
274.453	108.19
274.922	100.19
275.39	114.19
275.858	117.19
276.327	121.19
276.795	113.19
277.263	123.19
277.731	108.19
278.2	105.19
278.668	130.19
279.136	118.19
279.604	121.19
280.072	128.19
280.54	115.19
281.008	122.19
281.477	105.19
281.945	119.19
282.413	115.19
282.881	107.19
283.348	139.19
283.816	98.19
284.284	131.19
284.752	129.19
285.22	115.19
285.688	116.19
286.156	123.19
286.623	121.19
287.091	119.19
287.559	119.19
288.026	124.19
288.494	123.19
288.962	121.19
289.429	129.19
289.897	114.19
290.364	119.19
290.832	123.19
291.3	131.19
291.767	141.19
292.234	120.19
292.702	117.19
293.169	138.19
293.637	131.19
294.104	124.19
294.571	128.19
295.039	132.19
295.506	115.19
295.973	141.19
296.44	122.19
296.908	138.19
297.375	152.19
297.842	129.19
298.309	149.19
298.776	149.19
299.243	128.19
299.71	128.19
300.177	133.19
300.644	159.19
301.111	149.19
301.578	133.19
302.045	145.19
302.512	147.19
302.979	136.19
303.446	135.19
303.913	149.19
304.379	149.19
304.846	155.19
305.313	135.19
305.78	137.19
306.246	153.19
306.713	151.19
307.18	143.19
307.646	160.19
308.113	155.19
308.579	156.19
309.046	157.19
309.512	153.19
309.979	146.19
310.445	173.19
310.912	140.19
311.378	168.19
311.845	165.19
312.311	156.19
312.777	161.19
313.244	151.19
313.71	149.19
314.176	155.19
314.642	161.19
315.109	179.19
315.575	158.19
316.041	163.19
316.507	180.19
316.973	172.19
317.439	175.19
317.905	169.19
318.371	165.19
318.837	170.19
319.303	181.19
319.769	168.19
320.235	169.19
320.701	176.19
321.167	178.19
321.633	182.19
322.099	170.19
322.564	183.19
323.03	191.19
323.496	180.19
323.962	176.19
324.427	181.19
324.893	181.19
325.359	207.19
325.824	185.19
326.29	193.19
326.755	170.19
327.221	187.19
327.686	191.19
328.152	211.19
328.617	180.19
329.083	216.19
329.548	191.19
330.014	194.19
330.479	207.19
330.944	213.19
331.41	214.19
331.875	198.19
332.34	206.19
332.805	195.19
333.271	199.19
333.736	207.19
334.201	204.19
334.666	205.19
335.131	208.19
335.596	190.19
336.061	206.19
336.526	245.19
336.991	203.19
337.456	218.19
337.921	210.19
338.386	214.19
338.851	208.19
339.316	221.19
339.781	212.19
340.246	211.19
340.711	212.19
341.175	197.19
341.64	212.19
342.105	241.19
342.569	209.19
343.034	234.19
343.499	235.19
343.963	238.19
344.428	240.19
344.893	224.19
345.357	237.19
345.822	240.19
346.286	257.19
346.751	243.19
347.215	252.19
347.679	267.19
348.144	253.19
348.608	254.19
349.073	266.19
349.537	274.19
350.001	281.19
350.465	274.19
350.93	278.19
351.394	287.19
351.858	277.19
352.322	285.19
352.786	260.19
353.25	260.19
353.715	298.19
354.179	288.19
354.643	297.19
355.107	271.19
355.571	278.19
356.035	294.19
356.498	308.19
356.962	295.19
357.426	304.19
357.89	289.19
358.354	272.19
358.818	289.19
359.281	287.19
359.745	289.19
360.209	303.19
360.673	272.19
361.136	288.19
361.6	273.19
362.064	302.19
362.527	300.19
362.991	301.19
363.454	302.19
363.918	311.19
364.381	298.19
364.845	297.19
365.308	313.19
365.772	333.19
366.235	299.19
366.698	305.19
367.162	313.19
367.625	304.19
368.088	310.19
368.552	334.19
369.015	293.19
369.478	321.19
369.941	311.19
370.404	298.19
370.867	323.19
371.331	309.19
371.794	321.19
372.257	314.19
372.72	319.19
373.183	299.19
373.646	322.19
374.109	335.19
374.572	311.19
375.035	344.19
375.497	350.19
375.96	350.19
376.423	356.19
376.886	387.19
377.349	355.19
377.811	383.19
378.274	345.19
378.737	350.19
379.199	374.19
379.662	359.19
380.125	361.19
380.587	354.19
381.05	379.19
381.512	383.19
381.975	391.19
382.437	390.19
382.9	380.19
383.362	396.19
383.825	373.19
384.287	402.19
384.75	400.19
385.212	393.19
385.674	383.19
386.136	408.19
386.599	403.19
387.061	388.19
387.523	414.19
387.985	399.19
388.447	417.19
388.91	415.19
389.372	412.19
389.834	410.19
390.296	402.19
390.758	412.19
391.22	416.19
391.682	409.19
392.144	402.19
392.606	425.19
393.068	423.19
393.529	420.19
393.991	429.19
394.453	426.19
394.915	405.19
395.377	427.19
395.838	420.19
396.3	427.19
396.762	400.19
397.224	410.19
397.685	411.19
398.147	444.19
398.608	418.19
399.07	421.19
399.531	425.19
399.993	475.19
400.454	467.19
400.916	462.19
401.377	469.19
401.839	461.19
402.3	492.19
402.762	471.19
403.223	520.19
403.684	524.19
404.145	490.19
404.607	482.19
405.068	480.19
405.529	485.19
405.99	490.19
406.451	506.19
406.913	480.19
407.374	498.19
407.835	474.19
408.296	470.19
408.757	481.19
409.218	482.19
409.679	498.19
410.14	519.19
410.601	535.19
411.062	522.19
411.522	527.19
411.983	573.19
412.444	565.19
412.905	574.19
413.366	609.19
413.826	627.19
414.287	717.19
414.748	841.19
415.208	844.19
415.669	734.19
416.13	661.19
416.59	630.19
417.051	670.19
417.511	690.19
417.972	758.19
418.432	768.19
418.893	890.19
419.353	851.19
419.814	632.19
420.274	603.19
420.734	581.19
421.195	603.19
421.655	590.19
422.115	599.19
422.576	629.19
423.036	655.19
423.496	636.19
423.956	648.19
424.416	691.19
424.876	792.19
425.336	775.19
425.797	776.19
426.257	713.19
426.717	697.19
427.177	630.19
427.637	634.19
428.097	631.19
428.556	645.19
429.016	695.19
429.476	666.19
429.936	655.19
430.396	631.19
430.856	631.19
431.315	647.19
431.775	692.19
432.235	765.19
432.694	739.19
433.154	729.19
433.614	675.19
434.073	698.19
434.533	622.19
434.993	641.19
435.452	639.19
435.912	637.19
436.371	640.19
436.83	647.19
437.29	623.19
437.749	623.19
438.209	636.19
438.668	661.19
439.127	689.19
439.587	668.19
440.046	665.19
440.505	650.19
440.964	634.19
441.424	689.19
441.883	682.19
442.342	672.19
442.801	663.19
443.26	669.19
443.719	685.19
444.178	675.19
444.637	680.19
445.096	686.19
445.555	714.19
446.014	683.19
446.473	673.19
446.932	690.19
447.391	715.19
447.849	686.19
448.308	703.19
448.767	705.19
449.226	721.19
449.685	728.19
450.143	763.19
450.602	760.19
451.061	730.19
451.519	739.19
451.978	718.19
452.436	717.19
452.895	725.19
453.353	703.19
453.812	681.19
454.27	740.19
454.729	719.19
455.187	695.19
455.646	707.19
456.104	722.19
456.562	705.19
457.021	755.19
457.479	735.19
457.937	741.19
458.395	757.19
458.854	745.19
459.312	739.19
459.77	717.19
460.228	755.19
460.686	779.19
461.144	778.19
461.602	754.19
462.06	746.19
462.518	756.19
462.976	765.19
463.434	778.19
463.892	763.19
464.35	809.19
464.808	803.19
465.266	834.19
465.724	803.19
466.181	821.19
466.639	831.19
467.097	869.19
467.555	887.19
468.012	861.19
468.47	903.19
468.928	891.19
469.385	941.19
469.843	907.19
470.3	913.19
470.758	937.19
471.215	940.19
471.673	976.19
472.13	1004.19
472.588	985.19
473.045	965.19
473.503	1008.19
473.96	1021.19
474.417	1041.19
474.875	1072.19
475.332	1123.19
475.789	1101.19
476.246	1151.19
476.704	1144.19
477.161	1181.19
477.618	1157.19
478.075	1184.19
478.532	1195.19
478.989	1229.19
479.446	1325.19
479.903	1289.19
480.36	1316.19
480.817	1349.19
481.274	1336.19
481.731	1386.19
482.188	1420.19
482.645	1426.19
483.102	1440.19
483.558	1490.19
484.015	1507.19
484.472	1525.19
484.929	1511.19
485.385	1501.19
485.842	1482.19
486.299	1547.19
486.755	1525.19
487.212	1490.19
487.668	1455.19
488.125	1448.19
488.582	1462.19
489.038	1449.19
489.494	1465.19
489.951	1535.19
490.407	1494.19
490.864	1502.19
491.32	1511.19
491.776	1478.19
492.233	1507.19
492.689	1493.19
493.145	1479.19
493.602	1445.19
494.058	1509.19
494.514	1515.19
494.97	1544.19
495.426	1557.19
495.882	1510.19
496.338	1561.19
496.794	1572.19
497.251	1584.19
497.707	1615.19
498.163	1606.19
498.618	1641.19
499.074	1589.19
499.53	1590.19
499.986	1634.19
500.442	1646.19
500.898	1655.19
501.354	1627.19
501.809	1647.19
502.265	1653.19
502.721	1641.19
503.177	1626.19
503.632	1638.19
504.088	1655.19
504.543	1658.19
504.999	1688.19
505.455	1703.19
505.91	1678.19
506.366	1731.19
506.821	1639.19
507.277	1695.19
507.732	1713.19
508.187	1667.19
508.643	1691.19
509.098	1769.19
509.553	1737.19
510.009	1706.19
510.464	1778.19
510.919	1826.19
511.375	1806.19
511.83	1848.19
512.285	1863.19
512.74	1860.19
513.195	1946.19
513.65	1943.19
514.105	1959.19
514.56	2005.19
515.015	1993.19
515.47	2055.19
515.925	2035.19
516.38	1993.19
516.835	2036.19
517.29	2014.19
517.745	2034.19
518.2	1984.19
518.655	1992.19
519.109	1921.19
519.564	1929.19
520.019	1905.19
520.474	1897.19
520.928	1841.19
521.383	1877.19
521.838	1893.19
522.292	1833.19
522.747	1817.19
523.201	1843.19
523.656	1805.19
524.11	1822.19
524.565	1743.19
525.019	1755.19
525.474	1813.19
525.928	1760.19
526.382	1800.19
526.837	1786.19
527.291	1779.19
527.745	1786.19
528.2	1768.19
528.654	1724.19
529.108	1745.19
529.562	1739.19
530.016	1767.19
530.47	1744.19
530.925	1793.19
531.379	1742.19
531.833	1773.19
532.287	1789.19
532.741	1773.19
533.195	1771.19
533.649	1803.19
534.103	1775.19
534.556	1754.19
535.01	1786.19
535.464	1767.19
535.918	1779.19
536.372	1772.19
536.826	1796.19
537.279	1787.19
537.733	1775.19
538.187	1781.19
538.64	1779.19
539.094	1778.19
539.548	1844.19
540.001	1809.19
540.455	1830.19
540.908	1783.19
541.362	1845.19
541.815	1825.19
542.269	1957.19
542.722	1904.19
543.175	1941.19
543.629	1927.19
544.082	1919.19
544.536	1971.19
544.989	1964.19
545.442	1927.19
545.895	1955.19
546.349	2013.19
546.802	2017.19
547.255	2014.19
547.708	1994.19
548.161	2067.19
548.614	2043.19
549.067	2025.19
549.52	2050.19
549.973	2046.19
550.426	1969.19
550.879	2033.19
551.332	2009.19
551.785	1991.19
552.238	2027.19
552.691	2024.19
553.144	2051.19
553.596	2068.19
554.049	2090.19
554.502	2159.19
554.955	2171.19
555.407	2240.19
555.86	2195.19
556.313	2152.19
556.765	2122.19
557.218	2153.19
557.67	2143.19
558.123	2078.19
558.576	2087.19
559.028	2162.19
559.48	2135.19
559.933	2088.19
560.385	2055.19
560.838	1986.19
561.29	1929.19
561.742	1897.19
562.195	1880.19
562.647	1870.19
563.099	1821.19
563.551	1868.19
564.004	1894.19
564.456	1863.19
564.908	1799.19
565.36	1748.19
565.812	1748.19
566.264	1694.19
566.716	1703.19
567.168	1665.19
567.62	1671.19
568.072	1644.19
568.524	1646.19
568.976	1632.19
569.428	1611.19
569.88	1616.19
570.332	1635.19
570.784	1651.19
571.235	1606.19
571.687	1637.19
572.139	1641.19
572.59	1647.19
573.042	1661.19
573.494	1668.19
573.945	1640.19
574.397	1559.19
574.849	1619.19
575.3	1624.19
575.752	1578.19
576.203	1589.19
576.655	1579.19
577.106	1577.19
577.557	1549.19
578.009	1534.19
578.46	1577.19
578.912	1554.19
579.363	1533.19
579.814	1551.19
580.265	1547.19
580.717	1565.19
581.168	1551.19
581.619	1544.19
582.07	1563.19
582.521	1542.19
582.972	1596.19
583.423	1559.19
583.875	1558.19
584.326	1575.19
584.777	1606.19
585.227	1591.19
585.678	1643.19
586.129	1664.19
586.58	1662.19
587.031	1693.19
587.482	1791.19
587.933	1774.19
588.384	1773.19
588.834	1772.19
589.285	1788.19
589.736	1706.19
590.186	1773.19
590.637	1773.19
591.088	1720.19
591.538	1641.19
591.989	1635.19
592.439	1622.19
592.89	1583.19
593.34	1603.19
593.791	1594.19
594.241	1580.19
594.692	1526.19
595.142	1590.19
595.593	1587.19
596.043	1569.19
596.493	1596.19
596.943	1532.19
597.394	1593.19
597.844	1662.19
598.294	1746.19
598.744	1739.19
599.195	1815.19
599.645	1889.19
600.095	2041.19
600.545	2135.19
600.995	2175.19
601.445	2343.19
601.895	2439.19
602.345	2541.19
602.795	2523.19
603.245	2423.19
603.695	2243.19
604.145	2130.19
604.594	2005.19
605.044	1899.19
605.494	1786.19
605.944	1683.19
606.393	1632.19
606.843	1607.19
607.293	1571.19
607.743	1611.19
608.192	1623.19
608.642	1586.19
609.091	1583.19
609.541	1601.19
609.99	1626.19
610.44	1589.19
610.889	1611.19
611.339	1582.19
611.788	1539.19
612.238	1553.19
612.687	1548.19
613.136	1537.19
613.586	1524.19
614.035	1552.19
614.484	1562.19
614.933	1576.19
615.383	1557.19
615.832	1517.19
616.281	1516.19
616.73	1491.19
617.179	1417.19
617.628	1408.19
618.077	1391.19
618.526	1380.19
618.975	1375.19
619.424	1347.19
619.873	1352.19
620.322	1354.19
620.771	1328.19
621.22	1298.19
621.669	1257.19
622.118	1271.19
622.567	1259.19
623.015	1213.19
623.464	1209.19
623.913	1199.19
624.361	1202.19
624.81	1181.19
625.259	1203.19
625.707	1175.19
626.156	1195.19
626.604	1187.19
627.053	1198.19
627.501	1188.19
627.95	1245.19
628.398	1267.19
628.847	1240.19
629.295	1241.19
629.744	1207.19
630.192	1193.19
630.64	1189.19
631.089	1130.19
631.537	1145.19
631.985	1113.19
632.433	1128.19
632.881	1112.19
633.33	1125.19
633.778	1103.19
634.226	1125.19
634.674	1142.19
635.122	1112.19
635.57	1130.19
636.018	1124.19
636.466	1139.19
636.914	1153.19
637.362	1180.19
637.81	1150.19
638.258	1182.19
638.705	1195.19
639.153	1235.19
639.601	1283.19
640.049	1336.19
640.497	1356.19
640.944	1395.19
641.392	1315.19
641.84	1262.19
642.287	1157.19
642.735	1077.19
643.182	1091.19
643.63	1048.19
644.078	1049.19
644.525	1089.19
644.973	1101.19
645.42	1076.19
645.867	1063.19
646.315	1078.19
646.762	1093.19
647.21	1089.19
647.657	1102.19
648.104	1068.19
648.551	1033.19
648.999	1070.19
649.446	1051.19
649.893	1068.19
650.34	1046.19
650.787	1068.19
651.234	1104.19
651.682	1167.19
652.129	1261.19
652.576	1432.19
653.023	1639.19
653.47	1775.19
653.917	1841.19
654.363	1912.19
654.81	1953.19
655.257	2105.19
655.704	1788.19
656.151	1389.19
656.598	1147.19
657.044	1053.19
657.491	1065.19
657.938	1017.19
658.385	1001.19
658.831	1007.19
659.278	990.19
659.724	994.19
660.171	989.19
660.618	972.19
661.064	931.19
661.511	912.19
661.957	945.19
662.404	949.19
662.85	959.19
663.296	943.19
663.743	972.19
664.189	933.19
664.635	993.19
665.082	979.19
665.528	948.19
665.974	965.19
666.42	919.19
666.867	942.19
667.313	916.19
667.759	875.19
668.205	883.19
668.651	888.19
669.097	887.19
669.543	896.19
669.989	889.19
670.435	887.19
670.881	915.19
671.327	928.19
671.773	1029.19
672.219	1065.19
672.665	1155.19
673.11	1214.19
673.556	1257.19
674.002	1287.19
674.448	1357.19
674.893	1159.19
675.339	1027.19
675.785	926.19
676.23	875.19
676.676	871.19
677.122	839.19
677.567	841.19
678.013	759.19
678.458	785.19
678.904	754.19
679.349	749.19
679.794	754.19
680.24	758.19
680.685	744.19
681.131	749.19
681.576	739.19
682.021	773.19
682.466	741.19
682.912	764.19
683.357	768.19
683.802	829.19
684.247	924.19
684.692	1013.19
685.137	1043.19
685.583	1116.19
686.028	1109.19
686.473	1094.19
686.918	991.19
687.363	882.19
687.807	833.19
688.252	819.19
688.697	770.19
689.142	715.19
689.587	749.19
690.032	761.19
690.477	755.19
690.921	809.19
691.366	835.19
691.811	883.19
692.255	909.19
692.7	1100.19
693.145	1410.19
693.589	2195.19
694.034	3016.19
694.478	3305.19
694.923	3043.19
695.367	3753.19
695.812	3395.19
696.256	1339.19
696.701	875.19
697.145	769.19
697.59	739.19
698.034	718.19
698.478	717.19
698.922	696.19
699.367	733.19
699.811	747.19
700.255	839.19
700.699	887.19
701.143	978.19
701.588	1057.19
702.032	1145.19
702.476	1125.19
702.92	1116.19
703.364	1306.19
703.808	1986.19
704.252	2773.19
704.696	3167.19
705.14	2933.19
705.584	3736.19
706.027	2943.19
706.471	1329.19
706.915	889.19
707.359	810.19
707.803	741.19
708.246	686.19
708.69	669.19
709.134	677.19
709.577	699.19
710.021	703.19
710.465	701.19
710.908	687.19
711.352	685.19
711.795	708.19
712.239	849.19
712.682	857.19
713.126	845.19
713.569	901.19
714.012	834.19
714.456	700.19
714.899	640.19
715.342	632.19
715.786	610.19
716.229	580.19
716.672	585.19
717.115	562.19
717.558	588.19
718.002	604.19
718.445	634.19
718.888	609.19
719.331	653.19
719.774	678.19
720.217	647.19
720.66	649.19
721.103	597.19
721.546	562.19
721.989	565.19
722.432	532.19
722.874	555.19
723.317	567.19
723.76	570.19
724.203	641.19
724.645	887.19
725.088	1098.19
725.531	1159.19
725.974	1159.19
726.416	1216.19
726.859	780.19
727.301	584.19
727.744	544.19
728.187	543.19
728.629	558.19
729.071	600.19
729.514	602.19
729.956	602.19
730.399	630.19
730.841	643.19
731.283	618.19
731.726	601.19
732.168	597.19
732.61	636.19
733.053	709.19
733.495	775.19
733.937	804.19
734.379	956.19
734.821	1091.19
735.263	1528.19
735.705	2674.19
736.148	4523.19
736.59	5294.19
737.032	4912.19
737.474	5311.19
737.916	2453.19
738.357	1147.19
738.799	828.19
739.241	707.19
739.683	691.19
740.125	690.19
740.567	716.19
741.008	732.19
741.45	759.19
741.892	808.19
742.334	819.19
742.775	819.19
743.217	804.19
743.658	703.19
744.1	629.19
744.542	749.19
744.983	807.19
745.425	781.19
745.866	845.19
746.307	765.19
746.749	709.19
747.19	899.19
747.632	1478.19
748.073	3019.19
748.514	4787.19
748.956	5920.19
749.397	7929.19
749.838	6300.19
750.279	5226.19
750.72	3782.19
751.162	1643.19
751.603	835.19
752.044	650.19
752.485	576.19
752.926	529.19
753.367	499.19
753.808	479.19
754.249	470.19
754.69	479.19
755.131	459.19
755.572	454.19
756.013	449.19
756.453	448.19
756.894	457.19
757.335	462.19
757.776	480.19
758.216	478.19
758.657	511.19
759.098	525.19
759.538	613.19
759.979	771.19
760.42	1219.19
760.86	2923.19
761.301	6992.19
761.741	10455.19
762.182	10791.19
762.622	9985.19
763.063	4386.19
763.503	1680.19
763.943	889.19
764.384	623.19
764.824	581.19
765.264	509.19
765.705	488.19
766.145	454.19
766.585	474.19
767.025	441.19
767.465	447.19
767.906	449.19
768.346	441.19
768.786	482.19
769.226	609.19
769.666	1035.19
770.106	2291.19
770.546	4236.19
770.986	4567.19
771.426	4423.19
771.866	2299.19
772.306	1021.19
772.745	558.19
773.185	468.19
773.625	408.19
774.065	414.19
774.505	479.19
774.944	768.19
775.384	1143.19
775.824	1319.19
776.263	1336.19
776.703	931.19
777.142	562.19
777.582	395.19
778.021	356.19
778.461	356.19
778.9	336.19
779.34	320.19
779.779	326.19
780.219	317.19
780.658	317.19
781.097	340.19
781.537	294.19
781.976	297.19
782.415	332.19
782.855	302.19
783.294	297.19
783.733	308.19
784.172	305.19
784.611	308.19
785.05	300.19
785.489	314.19
785.928	314.19
786.367	319.19
786.806	311.19
787.245	370.19
787.684	376.19
788.123	363.19
788.562	345.19
789.001	331.19
789.44	357.19
789.879	328.19
790.317	333.19
790.756	335.19
791.195	365.19
791.634	456.19
792.072	647.19
792.511	1380.19
792.95	3165.19
793.388	3966.19
793.827	3505.19
794.265	1895.19
794.704	922.19
795.142	514.19
795.581	389.19
796.019	355.19
796.458	368.19
796.896	352.19
797.334	381.19
797.773	461.19
798.211	731.19
798.649	1498.19
799.087	2526.19
799.526	3878.19
799.964	4403.19
800.402	3609.19
800.84	2012.19
801.278	1017.19
801.716	552.19
802.154	415.19
802.592	392.19
803.03	407.19
803.468	402.19
803.906	366.19
804.344	389.19
804.782	405.19
805.22	393.19
805.658	381.19
806.096	407.19
806.533	430.19
806.971	506.19
807.409	665.19
807.847	1061.19
808.284	2520.19
808.722	5139.19
809.16	7197.19
809.597	9940.19
810.035	12781.19
810.472	10840.19
810.91	5756.19
811.347	2724.19
811.785	1221.19
812.222	717.19
812.66	547.19
813.097	445.19
813.535	397.19
813.972	365.19
814.409	359.19
814.846	325.19
815.284	314.19
815.721	306.19
816.158	334.19
816.595	369.19
817.032	474.19
817.47	472.19
817.907	377.19
818.344	373.19
818.781	347.19
819.218	345.19
819.655	460.19
820.092	600.19
820.529	598.19
820.966	519.19
821.403	400.19
821.839	339.19
822.276	341.19
822.713	389.19
823.15	374.19
823.587	400.19
824.023	523.19
824.46	1147.19
824.897	2255.19
825.333	2323.19
825.77	1360.19
826.206	730.19
826.643	423.19
827.08	327.19
827.516	269.19
827.953	270.19
828.389	240.19
828.825	235.19
829.262	250.19
829.698	234.19
830.135	223.19
830.571	229.19
831.007	237.19
831.443	198.19
831.88	229.19
832.316	224.19
832.752	219.19
833.188	232.19
833.624	204.19
834.06	229.19
834.497	224.19
834.933	236.19
835.369	238.19
835.805	241.19
836.241	251.19
836.677	266.19
837.112	297.19
837.548	340.19
837.984	429.19
838.42	715.19
838.856	1825.19
839.292	4045.19
839.727	4315.19
840.163	2809.19
840.599	3264.19
841.034	5035.19
841.47	3871.19
841.906	2099.19
842.341	1145.19
842.777	716.19
843.212	609.19
843.648	487.19
844.083	369.19
844.519	295.19
844.954	273.19
845.39	209.19
845.825	215.19
846.261	206.19
846.696	195.19
847.131	196.19
847.566	190.19
848.002	204.19
848.437	202.19
848.872	213.19
849.307	232.19
849.742	289.19
850.177	669.19
850.613	1465.19
851.048	1605.19
851.483	871.19
851.918	545.19
852.353	321.19
852.788	249.19
853.223	199.19
853.657	183.19
854.092	171.19
854.527	166.19
854.962	195.19
855.397	176.19
855.832	202.19
856.266	171.19
856.701	160.19
857.136	169.19
857.57	178.19
858.005	221.19
858.44	208.19
858.874	212.19
859.309	196.19
859.743	192.19
860.178	196.19
860.612	195.19
861.047	227.19
861.481	271.19
861.915	241.19
862.35	228.19
862.784	172.19
863.218	179.19
863.653	157.19
864.087	188.19
864.521	211.19
864.955	288.19
865.39	425.19
865.824	418.19
866.258	426.19
866.692	573.19
867.126	523.19
867.56	378.19
867.994	255.19
868.428	210.19
868.862	216.19
869.296	225.19
869.73	254.19
870.164	231.19
870.598	206.19
871.031	179.19
871.465	169.19
871.899	138.19
872.333	141.19
872.766	130.19
873.2	120.19
873.634	147.19
874.067	157.19
874.501	152.19
874.935	148.19
875.368	157.19
875.802	142.19
876.235	129.19
876.669	120.19
877.102	134.19
877.535	104.19
877.969	136.19
878.402	130.19
878.836	109.19
879.269	129.19
879.702	127.19
880.135	149.19
880.569	123.19
881.002	139.19
881.435	101.19
881.868	139.19
882.301	114.19
882.734	103.19
883.167	128.19
883.601	126.19
884.034	133.19
884.467	126.19
884.899	131.19
885.332	142.19
885.765	134.19
886.198	130.19
886.631	129.19
887.064	147.19
887.497	128.19
887.929	120.19
888.362	107.19
888.795	121.19
889.228	111.19
889.66	134.19
890.093	120.19
890.526	136.19
890.958	134.19
891.391	126.19
891.823	111.19
892.256	132.19
892.688	131.19
893.121	130.19
893.553	122.19
893.985	112.19
894.418	115.19
894.85	130.19
895.282	121.19
895.715	106.19
896.147	103.19
896.579	111.19
897.011	123.19
897.444	120.19
897.876	123.19
898.308	107.19
898.74	110.19
899.172	115.19
899.604	125.19
900.036	125.19
900.468	124.19
900.9	123.19
901.332	125.19
901.764	131.19
902.196	143.19
902.628	124.19
903.06	143.19
903.491	148.19
903.923	151.19
904.355	126.19
904.787	159.19
905.218	140.19
905.65	142.19
906.082	120.19
906.513	123.19
906.945	138.19
907.376	124.19
907.808	131.19
908.239	132.19
908.671	133.19
909.102	127.19
909.534	142.19
909.965	197.19
910.397	327.19
910.828	897.19
911.259	973.19
911.691	627.19
912.122	428.19
912.553	260.19
912.984	171.19
913.415	173.19
913.847	139.19
914.278	125.19
914.709	117.19
915.14	124.19
915.571	135.19
916.002	116.19
916.433	107.19
916.864	121.19
917.295	129.19
917.726	108.19
918.157	125.19
918.587	151.19
919.018	139.19
919.449	123.19
919.88	141.19
920.311	149.19
920.741	240.19
921.172	475.19
921.603	364.19
922.033	266.19
922.464	202.19
922.895	160.19
923.325	129.19
923.756	120.19
924.186	120.19
924.617	148.19
925.047	161.19
925.478	160.19
925.908	127.19
926.338	138.19
926.769	115.19
927.199	131.19
927.629	105.19
928.06	106.19
928.49	113.19
928.92	115.19
929.35	111.19
929.78	115.19
930.21	90.19
930.641	102.19
931.071	105.19
931.501	113.19
931.931	112.19
932.361	110.19
932.791	94.19
933.221	117.19
933.651	111.19
934.08	146.19
934.51	131.19
934.94	102.19
935.37	100.19
935.8	102.19
936.229	99.19
936.659	82.19
937.089	106.19
937.519	135.19
937.948	137.19
938.378	131.19
938.807	95.19
939.237	110.19
939.666	91.19
940.096	106.19
940.525	101.19
940.955	97.19
941.384	90.19
941.814	105.19
942.243	101.19
942.672	85.19
943.102	78.19
943.531	84.19
943.96	75.19
944.39	93.19
944.819	101.19
945.248	103.19
945.677	82.19
946.106	98.19
946.535	103.19
946.964	91.19
947.393	95.19
947.822	97.19
948.251	84.19
948.68	84.19
949.109	90.19
949.538	88.19
949.967	88.19
950.396	93.19
950.825	97.19
951.254	91.19
951.682	94.19
952.111	101.19
952.54	96.19
952.969	96.19
953.397	76.19
953.826	81.19
954.254	86.19
954.683	86.19
955.112	95.19
955.54	80.19
955.969	95.19
956.397	67.19
956.826	76.19
957.254	84.19
957.682	84.19
958.111	97.19
958.539	100.19
958.967	99.19
959.396	97.19
959.824	85.19
960.252	75.19
960.68	93.19
961.109	105.19
961.537	87.19
961.965	107.19
962.393	97.19
962.821	100.19
963.249	85.19
963.677	98.19
964.105	133.19
964.533	191.19
964.961	165.19
965.389	136.19
965.817	135.19
966.245	92.19
966.672	96.19
967.1	90.19
967.528	80.19
967.956	87.19
968.383	86.19
968.811	94.19
969.239	76.19
969.666	76.19
970.094	113.19
970.522	73.19
970.949	74.19
971.377	85.19
971.804	95.19
972.232	69.19
972.659	88.19
973.087	87.19
973.514	87.19
973.941	85.19
974.369	88.19
974.796	104.19
975.223	88.19
975.651	97.19
976.078	96.19
976.505	96.19
976.932	96.19
977.359	136.19
977.786	118.19
978.214	107.19
978.641	99.19
979.068	102.19
979.495	76.19
979.922	88.19
980.349	88.19
980.776	90.19
981.202	90.19
981.629	107.19
982.056	89.19
982.483	92.19
982.91	82.19
983.337	87.19
983.763	84.19
984.19	75.19
984.617	91.19
985.043	96.19
985.47	83.19
985.897	84.19
986.323	94.19
986.75	85.19
987.176	76.19
987.603	87.19
988.029	93.19
988.456	83.19
988.882	94.19
989.308	90.19
989.735	97.19
990.161	102.19
990.587	87.19
991.014	90.19
991.44	94.19
991.866	93.19
992.292	78.19
992.719	81.19
993.145	88.19
993.571	74.19
993.997	83.19
994.423	87.19
994.849	92.19
995.275	100.19
995.701	90.19
996.127	78.19
996.553	78.19
996.979	97.19
997.405	84.19
997.83	105.19
998.256	87.19
998.682	83.19
999.108	63.19
999.534	90.19
999.959	93.19
1000.385	86.19
1000.811	79.19
1001.236	96.19
1001.662	94.19
1002.087	104.19
1002.513	95.19
1002.938	89.19
1003.364	97.19
1003.789	85.19
1004.215	84.19
1004.64	99.19
1005.066	82.19
1005.491	104.19
1005.916	96.19
1006.342	80.19
1006.767	86.19
1007.192	90.19
1007.617	86.19
1008.042	85.19
1008.468	96.19
1008.893	85.19
1009.318	92.19
1009.743	87.19
1010.168	90.19
1010.593	118.19
1011.018	92.19
1011.443	99.19
1011.868	99.19
1012.293	93.19
1012.718	96.19
1013.143	90.19
1013.567	93.19
1013.992	92.19
1014.417	79.19
1014.842	97.19
1015.267	80.19
1015.691	69.19
1016.116	87.19
1016.541	80.19
1016.965	87.19
1017.39	87.19
1017.814	79.19
1018.239	86.19
1018.663	89.19
1019.088	84.19
1019.512	87.19
1019.937	92.19
1020.361	104.19
1020.785	89.19
1021.21	78.19
1021.634	85.19
1022.058	85.19
1022.483	95.19
1022.907	69.19
1023.331	99.19
1023.755	86.19
1024.179	80.19
1024.604	87.19
1025.028	69.19
1025.452	88.19
1025.876	93.19
1026.3	95.19
1026.724	70.19
1027.148	91.19
1027.572	67.19
1027.996	85.19
1028.42	100.19
1028.843	82.19
1029.267	87.19
1029.691	71.19
1030.115	93.19
1030.539	87.19
1030.962	77.19
1031.386	78.19
1031.81	66.19
1032.233	89.19
1032.657	71.19
1033.08	78.19
1033.504	94.19
1033.927	77.19
1034.351	79.19
1034.774	70.19
1035.198	76.19
1035.621	81.19
1036.045	93.19
1036.468	92.19
1036.891	100.19
1037.315	84.19
1037.738	88.19
1038.161	94.19
1038.584	76.19
1039.008	77.19
1039.431	82.19
1039.854	74.19
1040.277	66.19
1040.7	94.19
1041.123	87.19
1041.546	90.19
1041.969	90.19
1042.392	75.19
1042.815	86.19
1043.238	64.19
1043.661	79.19
1044.084	79.19
1044.507	81.19
1044.93	99.19
1045.352	87.19
1045.775	89.19
1046.198	91.19
1046.621	91.19
1047.043	79.19
1047.466	80.19
1047.889	92.19
1048.311	92.19
1048.734	89.19
1049.156	65.19
1049.579	74.19
1050.001	81.19
1050.424	95.19
1050.846	84.19
1051.269	91.19
1051.691	86.19
1052.113	98.19
1052.536	75.19
1052.958	70.19
1053.38	85.19
1053.802	79.19
1054.225	84.19
1054.647	95.19
1055.069	89.19
1055.491	88.19
1055.913	77.19
1056.335	69.19
1056.757	70.19
1057.179	68.19
1057.601	87.19
1058.023	81.19
1058.445	83.19
1058.867	68.19
1059.289	68.19
1059.711	70.19
1060.133	76.19
1060.555	75.19
1060.976	65.19
1061.398	80.19
1061.82	88.19
1062.241	78.19
1062.663	65.19
1063.085	88.19
1063.506	89.19
1063.928	93.19
1064.35	80.19
1064.771	79.19
1065.193	90.19
1065.614	99.19
1066.035	83.19
1066.457	78.19
1066.878	78.19
1067.3	91.19
1067.721	74.19
1068.142	89.19
1068.564	85.19
1068.985	85.19
1069.406	79.19
1069.827	79.19
1070.248	70.19
1070.67	96.19
1071.091	86.19
1071.512	87.19
1071.933	87.19
1072.354	80.19
1072.775	85.19
1073.196	91.19
1073.617	80.19
1074.038	83.19
1074.459	75.19
1074.88	72.19
1075.3	82.19
1075.721	85.19
1076.142	93.19
1076.563	85.19
1076.983	79.19
1077.404	83.19
1077.825	78.19
1078.246	78.19
1078.666	95.19
1079.087	83.19
1079.507	88.19
1079.928	84.19
1080.348	73.19
1080.769	68.19
1081.189	75.19
1081.61	77.19
1082.03	85.19
1082.451	98.19
1082.871	88.19
1083.291	83.19
1083.711	86.19
1084.132	76.19
1084.552	77.19
1084.972	68.19
1085.392	102.19
1085.813	66.19
1086.233	60.19
1086.653	77.19
1087.073	99.19
1087.493	88.19
1087.913	72.19
1088.333	81.19
1088.753	74.19
1089.173	80.19
1089.593	62.19
1090.013	79.19
1090.433	63.19
1090.852	59.19
1091.272	96.19
1091.692	99.19
1092.112	92.19
1092.531	63.19
1092.951	95.19
1093.371	92.19
1093.79	78.19
1094.21	78.19
1094.63	95.19
1095.049	89.19
1095.469	90.19
1095.888	90.19
1096.308	93.19
1096.727	91.19
1097.146	79.19
1097.566	87.19
1097.985	73.19
1098.405	74.19
1098.824	86.19
1099.243	80.19
1099.662	78.19
1100.082	76.19
1100.501	84.19
1100.92	69.19
1101.339	80.19
1101.758	66.19
