Data from 20170802-ORNL-NYSim-Air_HRD10391_10-36-21-592.txt Node
Date: Wed Aug 02 10:36:21 EDT 2017
User: Ender
Spectrometer: HR+D1039
Trigger mode: 0
Integration Time (sec): 3.750000E-3
Scans to average: 1
Electric dark correction enabled: true
Nonlinearity correction enabled: false
Boxcar width: 0
XAxis mode: Wavelengths
Number of Pixels in Spectrum: 2048
>>>>>Begin Spectral Data<<<<<
187.836	5.38
188.309	5.38
188.782	5.38
189.255	-5.62
189.728	-2.62
190.201	-14.62
190.674	-10.62
191.147	5.38
191.619	-7.62
192.092	6.38
192.565	-11.62
193.038	-1.62
193.511	-6.62
193.984	14.38
194.456	7.38
194.929	16.38
195.402	0.38
195.874	5.38
196.347	23.38
196.82	19.38
197.292	34.38
197.765	20.38
198.237	33.38
198.71	50.38
199.182	29.38
199.655	52.38
200.127	43.38
200.6	52.38
201.072	46.38
201.544	42.38
202.017	56.38
202.489	67.38
202.961	54.38
203.433	55.38
203.906	71.38
204.378	56.38
204.85	74.38
205.322	77.38
205.794	69.38
206.266	71.38
206.739	69.38
207.211	82.38
207.683	67.38
208.155	81.38
208.627	100.38
209.099	89.38
209.57	78.38
210.042	94.38
210.514	74.38
210.986	83.38
211.458	80.38
211.93	88.38
212.402	87.38
212.873	101.38
213.345	80.38
213.817	82.38
214.288	85.38
214.76	95.38
215.232	81.38
215.703	78.38
216.175	85.38
216.646	68.38
217.118	66.38
217.589	90.38
218.061	75.38
218.532	75.38
219.004	82.38
219.475	82.38
219.946	77.38
220.418	86.38
220.889	83.38
221.36	84.38
221.832	69.38
222.303	89.38
222.774	84.38
223.245	80.38
223.717	76.38
224.188	78.38
224.659	73.38
225.13	73.38
225.601	79.38
226.072	77.38
226.543	70.38
227.014	74.38
227.485	83.38
227.956	74.38
228.427	95.38
228.898	85.38
229.369	79.38
229.839	69.38
230.31	87.38
230.781	90.38
231.252	99.38
231.722	79.38
232.193	84.38
232.664	80.38
233.135	83.38
233.605	94.38
234.076	85.38
234.546	89.38
235.017	66.38
235.487	82.38
235.958	79.38
236.428	94.38
236.899	79.38
237.369	85.38
237.84	84.38
238.31	84.38
238.78	95.38
239.251	95.38
239.721	92.38
240.191	88.38
240.662	97.38
241.132	71.38
241.602	82.38
242.072	87.38
242.542	80.38
243.013	80.38
243.483	87.38
243.953	102.38
244.423	99.38
244.893	86.38
245.363	100.38
245.833	94.38
246.303	98.38
246.773	89.38
247.243	97.38
247.712	98.38
248.182	94.38
248.652	98.38
249.122	95.38
249.592	86.38
250.061	76.38
250.531	88.38
251.001	98.38
251.471	103.38
251.94	108.38
252.41	110.38
252.879	88.38
253.349	92.38
253.818	84.38
254.288	80.38
254.757	85.38
255.227	96.38
255.696	88.38
256.166	90.38
256.635	74.38
257.105	78.38
257.574	86.38
258.043	111.38
258.513	96.38
258.982	95.38
259.451	92.38
259.92	96.38
260.389	100.38
260.859	110.38
261.328	98.38
261.797	97.38
262.266	106.38
262.735	109.38
263.204	104.38
263.673	99.38
264.142	116.38
264.611	112.38
265.08	102.38
265.549	97.38
266.018	100.38
266.487	103.38
266.955	101.38
267.424	110.38
267.893	104.38
268.362	108.38
268.83	100.38
269.299	107.38
269.768	112.38
270.236	86.38
270.705	100.38
271.174	113.38
271.642	98.38
272.111	96.38
272.579	89.38
273.048	115.38
273.516	108.38
273.985	112.38
274.453	116.38
274.922	120.38
275.39	109.38
275.858	113.38
276.327	109.38
276.795	125.38
277.263	113.38
277.731	120.38
278.2	113.38
278.668	104.38
279.136	131.38
279.604	121.38
280.072	122.38
280.54	124.38
281.008	99.38
281.477	114.38
281.945	115.38
282.413	122.38
282.881	132.38
283.348	114.38
283.816	126.38
284.284	118.38
284.752	134.38
285.22	126.38
285.688	117.38
286.156	124.38
286.623	129.38
287.091	133.38
287.559	121.38
288.026	119.38
288.494	134.38
288.962	127.38
289.429	127.38
289.897	134.38
290.364	137.38
290.832	125.38
291.3	135.38
291.767	107.38
292.234	121.38
292.702	146.38
293.169	136.38
293.637	147.38
294.104	138.38
294.571	143.38
295.039	139.38
295.506	157.38
295.973	147.38
296.44	135.38
296.908	139.38
297.375	144.38
297.842	146.38
298.309	144.38
298.776	130.38
299.243	144.38
299.71	143.38
300.177	128.38
300.644	127.38
301.111	126.38
301.578	140.38
302.045	152.38
302.512	143.38
302.979	156.38
303.446	134.38
303.913	149.38
304.379	137.38
304.846	155.38
305.313	153.38
305.78	146.38
306.246	148.38
306.713	145.38
307.18	153.38
307.646	152.38
308.113	142.38
308.579	178.38
309.046	162.38
309.512	156.38
309.979	160.38
310.445	176.38
310.912	153.38
311.378	161.38
311.845	156.38
312.311	190.38
312.777	185.38
313.244	158.38
313.71	159.38
314.176	155.38
314.642	180.38
315.109	189.38
315.575	162.38
316.041	166.38
316.507	177.38
316.973	154.38
317.439	180.38
317.905	166.38
318.371	170.38
318.837	178.38
319.303	188.38
319.769	170.38
320.235	183.38
320.701	174.38
321.167	181.38
321.633	194.38
322.099	178.38
322.564	191.38
323.03	182.38
323.496	191.38
323.962	175.38
324.427	208.38
324.893	182.38
325.359	192.38
325.824	186.38
326.29	186.38
326.755	207.38
327.221	199.38
327.686	185.38
328.152	195.38
328.617	198.38
329.083	196.38
329.548	190.38
330.014	199.38
330.479	182.38
330.944	195.38
331.41	185.38
331.875	209.38
332.34	211.38
332.805	218.38
333.271	205.38
333.736	208.38
334.201	202.38
334.666	226.38
335.131	216.38
335.596	222.38
336.061	225.38
336.526	200.38
336.991	194.38
337.456	216.38
337.921	208.38
338.386	210.38
338.851	196.38
339.316	220.38
339.781	209.38
340.246	225.38
340.711	226.38
341.175	230.38
341.64	233.38
342.105	226.38
342.569	239.38
343.034	230.38
343.499	225.38
343.963	256.38
344.428	240.38
344.893	240.38
345.357	242.38
345.822	240.38
346.286	234.38
346.751	250.38
347.215	252.38
347.679	247.38
348.144	252.38
348.608	250.38
349.073	272.38
349.537	267.38
350.001	256.38
350.465	245.38
350.93	276.38
351.394	246.38
351.858	283.38
352.322	266.38
352.786	265.38
353.25	282.38
353.715	261.38
354.179	296.38
354.643	334.38
355.107	287.38
355.571	285.38
356.035	314.38
356.498	306.38
356.962	300.38
357.426	293.38
357.89	318.38
358.354	301.38
358.818	278.38
359.281	265.38
359.745	296.38
360.209	296.38
360.673	291.38
361.136	303.38
361.6	303.38
362.064	312.38
362.527	310.38
362.991	296.38
363.454	275.38
363.918	280.38
364.381	301.38
364.845	276.38
365.308	279.38
365.772	305.38
366.235	308.38
366.698	318.38
367.162	325.38
367.625	313.38
368.088	302.38
368.552	305.38
369.015	314.38
369.478	319.38
369.941	316.38
370.404	324.38
370.867	320.38
371.331	321.38
371.794	308.38
372.257	332.38
372.72	311.38
373.183	326.38
373.646	328.38
374.109	334.38
374.572	332.38
375.035	333.38
375.497	352.38
375.96	342.38
376.423	341.38
376.886	340.38
377.349	358.38
377.811	361.38
378.274	380.38
378.737	372.38
379.199	376.38
379.662	354.38
380.125	368.38
380.587	374.38
381.05	363.38
381.512	379.38
381.975	395.38
382.437	399.38
382.9	402.38
383.362	383.38
383.825	397.38
384.287	394.38
384.75	394.38
385.212	392.38
385.674	422.38
386.136	416.38
386.599	415.38
387.061	400.38
387.523	410.38
387.985	401.38
388.447	386.38
388.91	383.38
389.372	405.38
389.834	393.38
390.296	444.38
390.758	426.38
391.22	409.38
391.682	406.38
392.144	423.38
392.606	419.38
393.068	423.38
393.529	436.38
393.991	458.38
394.453	476.38
394.915	434.38
395.377	422.38
395.838	431.38
396.3	428.38
396.762	440.38
397.224	418.38
397.685	442.38
398.147	432.38
398.608	449.38
399.07	445.38
399.531	447.38
399.993	451.38
400.454	453.38
400.916	476.38
401.377	482.38
401.839	461.38
402.3	456.38
402.762	474.38
403.223	503.38
403.684	527.38
404.145	500.38
404.607	473.38
405.068	508.38
405.529	459.38
405.99	477.38
406.451	490.38
406.913	487.38
407.374	481.38
407.835	497.38
408.296	497.38
408.757	511.38
409.218	521.38
409.679	503.38
410.14	533.38
410.601	554.38
411.062	544.38
411.522	561.38
411.983	562.38
412.444	545.38
412.905	560.38
413.366	616.38
413.826	625.38
414.287	675.38
414.748	855.38
415.208	844.38
415.669	732.38
416.13	684.38
416.59	689.38
417.051	687.38
417.511	715.38
417.972	768.38
418.432	811.38
418.893	902.38
419.353	854.38
419.814	649.38
420.274	604.38
420.734	614.38
421.195	582.38
421.655	612.38
422.115	626.38
422.576	610.38
423.036	621.38
423.496	662.38
423.956	682.38
424.416	658.38
424.876	773.38
425.336	774.38
425.797	734.38
426.257	720.38
426.717	693.38
427.177	648.38
427.637	641.38
428.097	646.38
428.556	667.38
429.016	740.38
429.476	696.38
429.936	636.38
430.396	649.38
430.856	652.38
431.315	657.38
431.775	701.38
432.235	748.38
432.694	782.38
433.154	691.38
433.614	704.38
434.073	683.38
434.533	634.38
434.993	630.38
435.452	683.38
435.912	638.38
436.371	660.38
436.83	642.38
437.29	645.38
437.749	665.38
438.209	622.38
438.668	636.38
439.127	672.38
439.587	686.38
440.046	672.38
440.505	648.38
440.964	700.38
441.424	719.38
441.883	728.38
442.342	652.38
442.801	692.38
443.26	694.38
443.719	672.38
444.178	670.38
444.637	721.38
445.096	719.38
445.555	702.38
446.014	708.38
446.473	661.38
446.932	705.38
447.391	708.38
447.849	729.38
448.308	738.38
448.767	714.38
449.226	726.38
449.685	745.38
450.143	762.38
450.602	753.38
451.061	697.38
451.519	754.38
451.978	758.38
452.436	727.38
452.895	714.38
453.353	700.38
453.812	723.38
454.27	731.38
454.729	711.38
455.187	719.38
455.646	729.38
456.104	723.38
456.562	742.38
457.021	716.38
457.479	701.38
457.937	721.38
458.395	750.38
458.854	762.38
459.312	743.38
459.77	735.38
460.228	764.38
460.686	764.38
461.144	745.38
461.602	777.38
462.06	770.38
462.518	742.38
462.976	760.38
463.434	788.38
463.892	784.38
464.35	778.38
464.808	820.38
465.266	824.38
465.724	826.38
466.181	838.38
466.639	820.38
467.097	867.38
467.555	882.38
468.012	870.38
468.47	872.38
468.928	931.38
469.385	940.38
469.843	963.38
470.3	953.38
470.758	939.38
471.215	975.38
471.673	949.38
472.13	1000.38
472.588	1030.38
473.045	1019.38
473.503	1014.38
473.96	1048.38
474.417	1078.38
474.875	1099.38
475.332	1137.38
475.789	1144.38
476.246	1148.38
476.704	1167.38
477.161	1194.38
477.618	1174.38
478.075	1207.38
478.532	1264.38
478.989	1273.38
479.446	1316.38
479.903	1346.38
480.36	1307.38
480.817	1340.38
481.274	1333.38
481.731	1383.38
482.188	1376.38
482.645	1447.38
483.102	1447.38
483.558	1524.38
484.015	1544.38
484.472	1582.38
484.929	1532.38
485.385	1548.38
485.842	1497.38
486.299	1585.38
486.755	1586.38
487.212	1526.38
487.668	1471.38
488.125	1469.38
488.582	1451.38
489.038	1480.38
489.494	1514.38
489.951	1518.38
490.407	1477.38
490.864	1483.38
491.32	1498.38
491.776	1489.38
492.233	1536.38
492.689	1551.38
493.145	1485.38
493.602	1481.38
494.058	1552.38
494.514	1561.38
494.97	1588.38
495.426	1566.38
495.882	1570.38
496.338	1537.38
496.794	1588.38
497.251	1599.38
497.707	1624.38
498.163	1622.38
498.618	1661.38
499.074	1579.38
499.53	1640.38
499.986	1643.38
500.442	1670.38
500.898	1644.38
501.354	1686.38
501.809	1654.38
502.265	1648.38
502.721	1656.38
503.177	1677.38
503.632	1694.38
504.088	1701.38
504.543	1687.38
504.999	1737.38
505.455	1724.38
505.91	1763.38
506.366	1747.38
506.821	1722.38
507.277	1700.38
507.732	1718.38
508.187	1730.38
508.643	1707.38
509.098	1732.38
509.553	1739.38
510.009	1801.38
510.464	1766.38
510.919	1858.38
511.375	1854.38
511.83	1845.38
512.285	1915.38
512.74	1940.38
513.195	1964.38
513.65	1986.38
514.105	2019.38
514.56	2014.38
515.015	2054.38
515.47	2092.38
515.925	2070.38
516.38	2093.38
516.835	2078.38
517.29	2083.38
517.745	2062.38
518.2	2002.38
518.655	1997.38
519.109	1980.38
519.564	1899.38
520.019	1965.38
520.474	1915.38
520.928	1868.38
521.383	1862.38
521.838	1849.38
522.292	1882.38
522.747	1823.38
523.201	1800.38
523.656	1864.38
524.11	1850.38
524.565	1796.38
525.019	1790.38
525.474	1807.38
525.928	1827.38
526.382	1792.38
526.837	1816.38
527.291	1832.38
527.745	1853.38
528.2	1813.38
528.654	1722.38
529.108	1798.38
529.562	1806.38
530.016	1774.38
530.47	1785.38
530.925	1802.38
531.379	1786.38
531.833	1815.38
532.287	1832.38
532.741	1797.38
533.195	1836.38
533.649	1798.38
534.103	1817.38
534.556	1783.38
535.01	1814.38
535.464	1774.38
535.918	1836.38
536.372	1791.38
536.826	1842.38
537.279	1788.38
537.733	1818.38
538.187	1830.38
538.64	1798.38
539.094	1810.38
539.548	1826.38
540.001	1882.38
540.455	1857.38
540.908	1875.38
541.362	1876.38
541.815	1890.38
542.269	1992.38
542.722	1961.38
543.175	1985.38
543.629	1938.38
544.082	1979.38
544.536	1997.38
544.989	1960.38
545.442	2027.38
545.895	2001.38
546.349	1993.38
546.802	2030.38
547.255	2015.38
547.708	2035.38
548.161	2066.38
548.614	2088.38
549.067	2050.38
549.52	2100.38
549.973	2080.38
550.426	2056.38
550.879	2031.38
551.332	1965.38
551.785	2012.38
552.238	2071.38
552.691	2088.38
553.144	2088.38
553.596	2133.38
554.049	2150.38
554.502	2211.38
554.955	2268.38
555.407	2280.38
555.86	2259.38
556.313	2192.38
556.765	2206.38
557.218	2186.38
557.67	2155.38
558.123	2132.38
558.576	2108.38
559.028	2123.38
559.48	2178.38
559.933	2161.38
560.385	2075.38
560.838	2020.38
561.29	1977.38
561.742	1964.38
562.195	1904.38
562.647	1889.38
563.099	1880.38
563.551	1880.38
564.004	1892.38
564.456	1926.38
564.908	1831.38
565.36	1836.38
565.812	1782.38
566.264	1762.38
566.716	1718.38
567.168	1660.38
567.62	1713.38
568.072	1720.38
568.524	1670.38
568.976	1678.38
569.428	1646.38
569.88	1634.38
570.332	1687.38
570.784	1646.38
571.235	1690.38
571.687	1689.38
572.139	1670.38
572.59	1661.38
573.042	1688.38
573.494	1756.38
573.945	1709.38
574.397	1626.38
574.849	1630.38
575.3	1670.38
575.752	1633.38
576.203	1590.38
576.655	1574.38
577.106	1562.38
577.557	1576.38
578.009	1566.38
578.46	1550.38
578.912	1505.38
579.363	1555.38
579.814	1534.38
580.265	1575.38
580.717	1542.38
581.168	1524.38
581.619	1560.38
582.07	1600.38
582.521	1575.38
582.972	1543.38
583.423	1549.38
583.875	1584.38
584.326	1585.38
584.777	1607.38
585.227	1613.38
585.678	1710.38
586.129	1693.38
586.58	1694.38
587.031	1712.38
587.482	1782.38
587.933	1836.38
588.384	1828.38
588.834	1811.38
589.285	1797.38
589.736	1774.38
590.186	1742.38
590.637	1827.38
591.088	1728.38
591.538	1711.38
591.989	1652.38
592.439	1680.38
592.89	1656.38
593.34	1657.38
593.791	1632.38
594.241	1604.38
594.692	1589.38
595.142	1584.38
595.593	1588.38
596.043	1604.38
596.493	1632.38
596.943	1634.38
597.394	1626.38
597.844	1659.38
598.294	1712.38
598.744	1742.38
599.195	1882.38
599.645	1964.38
600.095	2048.38
600.545	2176.38
600.995	2281.38
601.445	2385.38
601.895	2515.38
602.345	2592.38
602.795	2585.38
603.245	2446.38
603.695	2360.38
604.145	2192.38
604.594	2068.38
605.044	1929.38
605.494	1828.38
605.944	1738.38
606.393	1687.38
606.843	1657.38
607.293	1645.38
607.743	1638.38
608.192	1620.38
608.642	1695.38
609.091	1606.38
609.541	1659.38
609.99	1662.38
610.44	1638.38
610.889	1615.38
611.339	1558.38
611.788	1522.38
612.238	1613.38
612.687	1549.38
613.136	1567.38
613.586	1588.38
614.035	1552.38
614.484	1595.38
614.933	1599.38
615.383	1582.38
615.832	1551.38
616.281	1520.38
616.73	1493.38
617.179	1439.38
617.628	1439.38
618.077	1426.38
618.526	1356.38
618.975	1358.38
619.424	1336.38
619.873	1376.38
620.322	1342.38
620.771	1344.38
621.22	1335.38
621.669	1232.38
622.118	1270.38
622.567	1262.38
623.015	1249.38
623.464	1236.38
623.913	1218.38
624.361	1233.38
624.81	1254.38
625.259	1224.38
625.707	1241.38
626.156	1236.38
626.604	1261.38
627.053	1234.38
627.501	1244.38
627.95	1222.38
628.398	1262.38
628.847	1262.38
629.295	1242.38
629.744	1224.38
630.192	1236.38
630.64	1208.38
631.089	1153.38
631.537	1150.38
631.985	1132.38
632.433	1134.38
632.881	1137.38
633.33	1120.38
633.778	1132.38
634.226	1152.38
634.674	1164.38
635.122	1169.38
635.57	1170.38
636.018	1199.38
636.466	1204.38
636.914	1164.38
637.362	1198.38
637.81	1187.38
638.258	1227.38
638.705	1251.38
639.153	1298.38
639.601	1322.38
640.049	1311.38
640.497	1350.38
640.944	1392.38
641.392	1318.38
641.84	1224.38
642.287	1185.38
642.735	1133.38
643.182	1102.38
643.63	1069.38
644.078	1078.38
644.525	1083.38
644.973	1062.38
645.42	1123.38
645.867	1080.38
646.315	1086.38
646.762	1108.38
647.21	1078.38
647.657	1099.38
648.104	1101.38
648.551	1057.38
648.999	1074.38
649.446	1032.38
649.893	1056.38
650.34	1041.38
650.787	1060.38
651.234	1102.38
651.682	1193.38
652.129	1263.38
652.576	1450.38
653.023	1652.38
653.47	1830.38
653.917	1882.38
654.363	1906.38
654.81	2011.38
655.257	2135.38
655.704	1835.38
656.151	1358.38
656.598	1148.38
657.044	1102.38
657.491	1063.38
657.938	1034.38
658.385	1036.38
658.831	1040.38
659.278	1000.38
659.724	985.38
660.171	969.38
660.618	949.38
661.064	934.38
661.511	951.38
661.957	945.38
662.404	951.38
662.85	966.38
663.296	955.38
663.743	958.38
664.189	958.38
664.635	966.38
665.082	988.38
665.528	979.38
665.974	946.38
666.42	959.38
666.867	934.38
667.313	916.38
667.759	866.38
668.205	880.38
668.651	851.38
669.097	884.38
669.543	910.38
669.989	910.38
670.435	923.38
670.881	944.38
671.327	944.38
671.773	1037.38
672.219	1098.38
672.665	1202.38
673.11	1231.38
673.556	1289.38
674.002	1328.38
674.448	1398.38
674.893	1188.38
675.339	996.38
675.785	954.38
676.23	896.38
676.676	824.38
677.122	825.38
677.567	800.38
678.013	783.38
678.458	772.38
678.904	779.38
679.349	769.38
679.794	738.38
680.24	782.38
680.685	786.38
681.131	762.38
681.576	792.38
682.021	792.38
682.466	776.38
682.912	786.38
683.357	830.38
683.802	852.38
684.247	950.38
684.692	1051.38
685.137	1086.38
685.583	1099.38
686.028	1142.38
686.473	1142.38
686.918	994.38
687.363	908.38
687.807	831.38
688.252	795.38
688.697	780.38
689.142	740.38
689.587	770.38
690.032	748.38
690.477	803.38
690.921	812.38
691.366	861.38
691.811	898.38
692.255	940.38
692.7	1116.38
693.145	1442.38
693.589	2212.38
694.034	2998.38
694.478	3334.38
694.923	3044.38
695.367	3777.38
695.812	3468.38
696.256	1374.38
696.701	879.38
697.145	776.38
697.59	751.38
698.034	702.38
698.478	729.38
698.922	714.38
699.367	742.38
699.811	781.38
700.255	828.38
700.699	919.38
701.143	1001.38
701.588	1060.38
702.032	1116.38
702.476	1140.38
702.92	1114.38
703.364	1318.38
703.808	1993.38
704.252	2812.38
704.696	3218.38
705.14	2998.38
705.584	3753.38
706.027	3004.38
706.471	1344.38
706.915	935.38
707.359	801.38
707.803	762.38
708.246	708.38
708.69	722.38
709.134	698.38
709.577	691.38
710.021	710.38
710.465	723.38
710.908	680.38
711.352	709.38
711.795	762.38
712.239	838.38
712.682	894.38
713.126	852.38
713.569	916.38
714.012	851.38
714.456	702.38
714.899	676.38
715.342	621.38
715.786	627.38
716.229	565.38
716.672	574.38
717.115	573.38
717.558	590.38
718.002	589.38
718.445	612.38
718.888	662.38
719.331	661.38
719.774	706.38
720.217	669.38
720.66	645.38
721.103	624.38
721.546	578.38
721.989	563.38
722.432	566.38
722.874	567.38
723.317	535.38
723.76	571.38
724.203	642.38
724.645	859.38
725.088	1089.38
725.531	1151.38
725.974	1129.38
726.416	1223.38
726.859	809.38
727.301	594.38
727.744	553.38
728.187	556.38
728.629	575.38
729.071	601.38
729.514	596.38
729.956	645.38
730.399	688.38
730.841	646.38
731.283	634.38
731.726	593.38
732.168	634.38
732.61	629.38
733.053	705.38
733.495	767.38
733.937	827.38
734.379	937.38
734.821	1132.38
735.263	1540.38
735.705	2746.38
736.148	4616.38
736.59	5436.38
737.032	5048.38
737.474	5472.38
737.916	2533.38
738.357	1177.38
738.799	775.38
739.241	720.38
739.683	678.38
740.125	705.38
740.567	711.38
741.008	725.38
741.45	774.38
741.892	811.38
742.334	822.38
742.775	824.38
743.217	832.38
743.658	720.38
744.1	680.38
744.542	748.38
744.983	801.38
745.425	811.38
745.866	847.38
746.307	739.38
746.749	726.38
747.19	886.38
747.632	1558.38
748.073	3055.38
748.514	4822.38
748.956	5950.38
749.397	8262.38
749.838	6461.38
750.279	5277.38
750.72	3814.38
751.162	1692.38
751.603	868.38
752.044	616.38
752.485	564.38
752.926	503.38
753.367	538.38
753.808	496.38
754.249	487.38
754.69	482.38
755.131	488.38
755.572	469.38
756.013	478.38
756.453	468.38
756.894	476.38
757.335	495.38
757.776	500.38
758.216	476.38
758.657	502.38
759.098	526.38
759.538	605.38
759.979	772.38
760.42	1266.38
760.86	2900.38
761.301	7174.38
761.741	10715.38
762.182	10985.38
762.622	10241.38
763.063	4468.38
763.503	1763.38
763.943	891.38
764.384	677.38
764.824	582.38
765.264	511.38
765.705	493.38
766.145	469.38
766.585	474.38
767.025	469.38
767.465	449.38
767.906	469.38
768.346	440.38
768.786	493.38
769.226	631.38
769.666	1065.38
770.106	2395.38
770.546	4347.38
770.986	4560.38
771.426	4482.38
771.866	2364.38
772.306	1064.38
772.745	587.38
773.185	470.38
773.625	406.38
774.065	448.38
774.505	509.38
774.944	751.38
775.384	1178.38
775.824	1390.38
776.263	1342.38
776.703	943.38
777.142	581.38
777.582	378.38
778.021	340.38
778.461	344.38
778.9	342.38
779.34	350.38
779.779	326.38
780.219	320.38
780.658	309.38
781.097	313.38
781.537	315.38
781.976	324.38
782.415	290.38
782.855	294.38
783.294	292.38
783.733	293.38
784.172	293.38
784.611	308.38
785.05	298.38
785.489	312.38
785.928	334.38
786.367	339.38
786.806	344.38
787.245	352.38
787.684	376.38
788.123	370.38
788.562	368.38
789.001	365.38
789.44	359.38
789.879	346.38
790.317	336.38
790.756	356.38
791.195	374.38
791.634	454.38
792.072	649.38
792.511	1410.38
792.95	3172.38
793.388	4063.38
793.827	3494.38
794.265	1911.38
794.704	936.38
795.142	506.38
795.581	398.38
796.019	382.38
796.458	354.38
796.896	360.38
797.334	386.38
797.773	464.38
798.211	705.38
798.649	1500.38
799.087	2520.38
799.526	3962.38
799.964	4488.38
800.402	3696.38
800.84	2038.38
801.278	1036.38
801.716	573.38
802.154	432.38
802.592	397.38
803.03	396.38
803.468	387.38
803.906	392.38
804.344	391.38
804.782	405.38
805.22	379.38
805.658	409.38
806.096	426.38
806.533	423.38
806.971	494.38
807.409	674.38
807.847	1086.38
808.284	2584.38
808.722	5298.38
809.16	7256.38
809.597	10085.38
810.035	13018.38
810.472	11008.38
810.91	5928.38
811.347	2740.38
811.785	1262.38
812.222	712.38
812.66	541.38
813.097	441.38
813.535	396.38
813.972	381.38
814.409	351.38
814.846	339.38
815.284	316.38
815.721	330.38
816.158	318.38
816.595	391.38
817.032	462.38
817.47	479.38
817.907	390.38
818.344	356.38
818.781	328.38
819.218	336.38
819.655	457.38
820.092	567.38
820.529	625.38
820.966	538.38
821.403	393.38
821.839	358.38
822.276	369.38
822.713	383.38
823.15	398.38
823.587	393.38
824.023	536.38
824.46	1143.38
824.897	2258.38
825.333	2404.38
825.77	1370.38
826.206	770.38
826.643	444.38
827.08	318.38
827.516	270.38
827.953	282.38
828.389	262.38
828.825	238.38
829.262	233.38
829.698	243.38
830.135	212.38
830.571	234.38
831.007	236.38
831.443	211.38
831.88	222.38
832.316	214.38
832.752	222.38
833.188	205.38
833.624	226.38
834.06	244.38
834.497	266.38
834.933	247.38
835.369	225.38
835.805	252.38
836.241	265.38
836.677	285.38
837.112	298.38
837.548	339.38
837.984	444.38
838.42	751.38
838.856	1857.38
839.292	4054.38
839.727	4433.38
840.163	2804.38
840.599	3364.38
841.034	5104.38
841.47	3875.38
841.906	2124.38
842.341	1143.38
842.777	688.38
843.212	609.38
843.648	489.38
844.083	359.38
844.519	322.38
844.954	255.38
845.39	231.38
845.825	219.38
846.261	223.38
846.696	218.38
847.131	195.38
847.566	192.38
848.002	188.38
848.437	211.38
848.872	206.38
849.307	256.38
849.742	343.38
850.177	708.38
850.613	1540.38
851.048	1609.38
851.483	876.38
851.918	573.38
852.353	326.38
852.788	228.38
853.223	206.38
853.657	187.38
854.092	182.38
854.527	171.38
854.962	190.38
855.397	192.38
855.832	183.38
856.266	164.38
856.701	168.38
857.136	181.38
857.57	188.38
858.005	208.38
858.44	204.38
858.874	201.38
859.309	201.38
859.743	200.38
860.178	201.38
860.612	206.38
861.047	223.38
861.481	262.38
861.915	248.38
862.35	198.38
862.784	182.38
863.218	167.38
863.653	166.38
864.087	189.38
864.521	218.38
864.955	261.38
865.39	470.38
865.824	438.38
866.258	414.38
866.692	611.38
867.126	537.38
867.56	376.38
867.994	247.38
868.428	212.38
868.862	218.38
869.296	236.38
869.73	230.38
870.164	198.38
870.598	237.38
871.031	194.38
871.465	170.38
871.899	150.38
872.333	140.38
872.766	141.38
873.2	109.38
873.634	141.38
874.067	145.38
874.501	152.38
874.935	153.38
875.368	145.38
875.802	137.38
876.235	153.38
876.669	124.38
877.102	122.38
877.535	133.38
877.969	124.38
878.402	143.38
878.836	138.38
879.269	138.38
879.702	126.38
880.135	124.38
880.569	137.38
881.002	140.38
881.435	135.38
881.868	121.38
882.301	138.38
882.734	127.38
883.167	121.38
883.601	120.38
884.034	108.38
884.467	122.38
884.899	120.38
885.332	136.38
885.765	129.38
886.198	130.38
886.631	126.38
887.064	118.38
887.497	102.38
887.929	117.38
888.362	121.38
888.795	119.38
889.228	130.38
889.66	131.38
890.093	120.38
890.526	120.38
890.958	124.38
891.391	124.38
891.823	117.38
892.256	103.38
892.688	106.38
893.121	106.38
893.553	119.38
893.985	116.38
894.418	120.38
894.85	106.38
895.282	138.38
895.715	114.38
896.147	108.38
896.579	115.38
897.011	115.38
897.444	113.38
897.876	111.38
898.308	116.38
898.74	97.38
899.172	118.38
899.604	121.38
900.036	124.38
900.468	102.38
900.9	97.38
901.332	115.38
901.764	120.38
902.196	130.38
902.628	126.38
903.06	150.38
903.491	151.38
903.923	149.38
904.355	159.38
904.787	140.38
905.218	136.38
905.65	137.38
906.082	133.38
906.513	134.38
906.945	124.38
907.376	121.38
907.808	122.38
908.239	142.38
908.671	127.38
909.102	135.38
909.534	148.38
909.965	203.38
910.397	346.38
910.828	920.38
911.259	997.38
911.691	629.38
912.122	420.38
912.553	244.38
912.984	184.38
913.415	136.38
913.847	128.38
914.278	130.38
914.709	113.38
915.14	111.38
915.571	121.38
916.002	140.38
916.433	118.38
916.864	120.38
917.295	121.38
917.726	113.38
918.157	147.38
918.587	130.38
919.018	140.38
919.449	141.38
919.88	131.38
920.311	147.38
920.741	230.38
921.172	472.38
921.603	359.38
922.033	297.38
922.464	206.38
922.895	158.38
923.325	121.38
923.756	127.38
924.186	128.38
924.617	126.38
925.047	139.38
925.478	160.38
925.908	157.38
926.338	128.38
926.769	116.38
927.199	122.38
927.629	103.38
928.06	112.38
928.49	118.38
928.92	114.38
929.35	94.38
929.78	105.38
930.21	110.38
930.641	99.38
931.071	112.38
931.501	114.38
931.931	94.38
932.361	89.38
932.791	88.38
933.221	91.38
933.651	97.38
934.08	132.38
934.51	115.38
934.94	108.38
935.37	105.38
935.8	92.38
936.229	79.38
936.659	96.38
937.089	118.38
937.519	138.38
937.948	130.38
938.378	109.38
938.807	117.38
939.237	116.38
939.666	86.38
940.096	108.38
940.525	96.38
940.955	106.38
941.384	92.38
941.814	99.38
942.243	96.38
942.672	104.38
943.102	98.38
943.531	94.38
943.96	100.38
944.39	90.38
944.819	99.38
945.248	96.38
945.677	108.38
946.106	95.38
946.535	84.38
946.964	87.38
947.393	99.38
947.822	111.38
948.251	87.38
948.68	99.38
949.109	96.38
949.538	85.38
949.967	78.38
950.396	81.38
950.825	92.38
951.254	95.38
951.682	76.38
952.111	91.38
952.54	101.38
952.969	88.38
953.397	86.38
953.826	94.38
954.254	93.38
954.683	72.38
955.112	82.38
955.54	93.38
955.969	92.38
956.397	93.38
956.826	90.38
957.254	97.38
957.682	87.38
958.111	84.38
958.539	114.38
958.967	102.38
959.396	95.38
959.824	84.38
960.252	74.38
960.68	103.38
961.109	82.38
961.537	82.38
961.965	81.38
962.393	96.38
962.821	98.38
963.249	71.38
963.677	96.38
964.105	118.38
964.533	208.38
964.961	166.38
965.389	162.38
965.817	125.38
966.245	112.38
966.672	89.38
967.1	102.38
967.528	95.38
967.956	110.38
968.383	92.38
968.811	87.38
969.239	88.38
969.666	76.38
970.094	80.38
970.522	92.38
970.949	78.38
971.377	96.38
971.804	81.38
972.232	86.38
972.659	75.38
973.087	88.38
973.514	88.38
973.941	62.38
974.369	76.38
974.796	83.38
975.223	74.38
975.651	95.38
976.078	89.38
976.505	87.38
976.932	100.38
977.359	129.38
977.786	88.38
978.214	99.38
978.641	99.38
979.068	97.38
979.495	82.38
979.922	93.38
980.349	84.38
980.776	83.38
981.202	96.38
981.629	83.38
982.056	66.38
982.483	81.38
982.91	89.38
983.337	84.38
983.763	86.38
984.19	98.38
984.617	102.38
985.043	93.38
985.47	99.38
985.897	94.38
986.323	94.38
986.75	93.38
987.176	108.38
987.603	85.38
988.029	91.38
988.456	70.38
988.882	88.38
989.308	73.38
989.735	90.38
990.161	74.38
990.587	93.38
991.014	75.38
991.44	74.38
991.866	82.38
992.292	73.38
992.719	90.38
993.145	97.38
993.571	92.38
993.997	84.38
994.423	82.38
994.849	79.38
995.275	68.38
995.701	95.38
996.127	72.38
996.553	81.38
996.979	67.38
997.405	91.38
997.83	81.38
998.256	84.38
998.682	92.38
999.108	83.38
999.534	82.38
999.959	79.38
1000.385	86.38
1000.811	85.38
1001.236	84.38
1001.662	84.38
1002.087	92.38
1002.513	81.38
1002.938	91.38
1003.364	99.38
1003.789	95.38
1004.215	89.38
1004.64	96.38
1005.066	82.38
1005.491	64.38
1005.916	87.38
1006.342	85.38
1006.767	75.38
1007.192	84.38
1007.617	72.38
1008.042	85.38
1008.468	83.38
1008.893	76.38
1009.318	89.38
1009.743	84.38
1010.168	94.38
1010.593	87.38
1011.018	96.38
1011.443	93.38
1011.868	86.38
1012.293	94.38
1012.718	88.38
1013.143	73.38
1013.567	79.38
1013.992	101.38
1014.417	82.38
1014.842	87.38
1015.267	86.38
1015.691	95.38
1016.116	93.38
1016.541	77.38
1016.965	95.38
1017.39	89.38
1017.814	79.38
1018.239	100.38
1018.663	78.38
1019.088	97.38
1019.512	86.38
1019.937	79.38
1020.361	67.38
1020.785	72.38
1021.21	87.38
1021.634	78.38
1022.058	80.38
1022.483	65.38
1022.907	89.38
1023.331	78.38
1023.755	77.38
1024.179	88.38
1024.604	70.38
1025.028	70.38
1025.452	86.38
1025.876	72.38
1026.3	75.38
1026.724	75.38
1027.148	77.38
1027.572	94.38
1027.996	87.38
1028.42	100.38
1028.843	92.38
1029.267	80.38
1029.691	86.38
1030.115	77.38
1030.539	92.38
1030.962	74.38
1031.386	85.38
1031.81	83.38
1032.233	91.38
1032.657	75.38
1033.08	93.38
1033.504	91.38
1033.927	77.38
1034.351	94.38
1034.774	92.38
1035.198	94.38
1035.621	88.38
1036.045	78.38
1036.468	97.38
1036.891	84.38
1037.315	67.38
1037.738	100.38
1038.161	94.38
1038.584	85.38
1039.008	66.38
1039.431	100.38
1039.854	71.38
1040.277	80.38
1040.7	67.38
1041.123	75.38
1041.546	84.38
1041.969	72.38
1042.392	88.38
1042.815	84.38
1043.238	90.38
1043.661	73.38
1044.084	66.38
1044.507	83.38
1044.93	91.38
1045.352	78.38
1045.775	93.38
1046.198	89.38
1046.621	77.38
1047.043	83.38
1047.466	90.38
1047.889	76.38
1048.311	98.38
1048.734	91.38
1049.156	76.38
1049.579	86.38
1050.001	94.38
1050.424	79.38
1050.846	90.38
1051.269	84.38
1051.691	79.38
1052.113	84.38
1052.536	81.38
1052.958	92.38
1053.38	78.38
1053.802	76.38
1054.225	95.38
1054.647	58.38
1055.069	98.38
1055.491	74.38
1055.913	84.38
1056.335	84.38
1056.757	80.38
1057.179	72.38
1057.601	80.38
1058.023	79.38
1058.445	86.38
1058.867	94.38
1059.289	96.38
1059.711	90.38
1060.133	88.38
1060.555	84.38
1060.976	90.38
1061.398	86.38
1061.82	70.38
1062.241	91.38
1062.663	89.38
1063.085	84.38
1063.506	92.38
1063.928	81.38
1064.35	92.38
1064.771	79.38
1065.193	92.38
1065.614	81.38
1066.035	78.38
1066.457	89.38
1066.878	93.38
1067.3	86.38
1067.721	92.38
1068.142	80.38
1068.564	72.38
1068.985	76.38
1069.406	78.38
1069.827	75.38
1070.248	78.38
1070.67	78.38
1071.091	75.38
1071.512	83.38
1071.933	77.38
1072.354	84.38
1072.775	80.38
1073.196	79.38
1073.617	95.38
1074.038	88.38
1074.459	70.38
1074.88	92.38
1075.3	64.38
1075.721	71.38
1076.142	68.38
1076.563	83.38
1076.983	74.38
1077.404	86.38
1077.825	86.38
1078.246	93.38
1078.666	78.38
1079.087	73.38
1079.507	79.38
1079.928	78.38
1080.348	85.38
1080.769	72.38
1081.189	71.38
1081.61	76.38
1082.03	91.38
1082.451	65.38
1082.871	80.38
1083.291	86.38
1083.711	78.38
1084.132	84.38
1084.552	75.38
1084.972	88.38
1085.392	80.38
1085.813	74.38
1086.233	89.38
1086.653	68.38
1087.073	76.38
1087.493	87.38
1087.913	92.38
1088.333	85.38
1088.753	93.38
1089.173	88.38
1089.593	93.38
1090.013	81.38
1090.433	77.38
1090.852	72.38
1091.272	78.38
1091.692	74.38
1092.112	94.38
1092.531	78.38
1092.951	64.38
1093.371	83.38
1093.79	70.38
1094.21	91.38
1094.63	76.38
1095.049	77.38
1095.469	72.38
1095.888	95.38
1096.308	78.38
1096.727	75.38
1097.146	83.38
1097.566	74.38
1097.985	72.38
1098.405	77.38
1098.824	73.38
1099.243	84.38
1099.662	66.38
1100.082	88.38
1100.501	80.38
1100.92	82.38
1101.339	86.38
1101.758	74.38
