Data from 20170802-ORNL-NYSim-Air_HRD10391_10-36-14-579.txt Node
Date: Wed Aug 02 10:36:14 EDT 2017
User: Ender
Spectrometer: HR+D1039
Trigger mode: 0
Integration Time (sec): 3.750000E-3
Scans to average: 1
Electric dark correction enabled: true
Nonlinearity correction enabled: false
Boxcar width: 0
XAxis mode: Wavelengths
Number of Pixels in Spectrum: 2048
>>>>>Begin Spectral Data<<<<<
187.836	-8.25
188.309	-8.25
188.782	-8.25
189.255	2.75
189.728	-16.25
190.201	-9.25
190.674	-12.25
191.147	8.75
191.619	-1.25
192.092	-0.25
192.565	-5.25
193.038	-9.25
193.511	-9.25
193.984	0.75
194.456	11.75
194.929	7.75
195.402	25.75
195.874	13.75
196.347	23.75
196.82	23.75
197.292	27.75
197.765	19.75
198.237	30.75
198.71	43.75
199.182	35.75
199.655	38.75
200.127	55.75
200.6	69.75
201.072	57.75
201.544	45.75
202.017	72.75
202.489	58.75
202.961	75.75
203.433	75.75
203.906	73.75
204.378	86.75
204.85	77.75
205.322	79.75
205.794	79.75
206.266	75.75
206.739	93.75
207.211	93.75
207.683	83.75
208.155	79.75
208.627	95.75
209.099	90.75
209.57	85.75
210.042	79.75
210.514	70.75
210.986	83.75
211.458	82.75
211.93	83.75
212.402	88.75
212.873	89.75
213.345	91.75
213.817	79.75
214.288	62.75
214.76	78.75
215.232	71.75
215.703	93.75
216.175	93.75
216.646	91.75
217.118	88.75
217.589	73.75
218.061	81.75
218.532	84.75
219.004	75.75
219.475	81.75
219.946	63.75
220.418	81.75
220.889	92.75
221.36	93.75
221.832	73.75
222.303	70.75
222.774	68.75
223.245	82.75
223.717	79.75
224.188	63.75
224.659	80.75
225.13	81.75
225.601	72.75
226.072	79.75
226.543	75.75
227.014	93.75
227.485	74.75
227.956	90.75
228.427	93.75
228.898	93.75
229.369	78.75
229.839	77.75
230.31	94.75
230.781	65.75
231.252	87.75
231.722	80.75
232.193	86.75
232.664	89.75
233.135	99.75
233.605	89.75
234.076	77.75
234.546	69.75
235.017	77.75
235.487	90.75
235.958	82.75
236.428	88.75
236.899	93.75
237.369	91.75
237.84	89.75
238.31	80.75
238.78	101.75
239.251	80.75
239.721	91.75
240.191	80.75
240.662	77.75
241.132	96.75
241.602	97.75
242.072	97.75
242.542	85.75
243.013	98.75
243.483	82.75
243.953	79.75
244.423	102.75
244.893	87.75
245.363	88.75
245.833	98.75
246.303	102.75
246.773	100.75
247.243	109.75
247.712	94.75
248.182	84.75
248.652	89.75
249.122	91.75
249.592	100.75
250.061	83.75
250.531	93.75
251.001	91.75
251.471	102.75
251.94	99.75
252.41	86.75
252.879	99.75
253.349	90.75
253.818	106.75
254.288	105.75
254.757	102.75
255.227	93.75
255.696	87.75
256.166	95.75
256.635	83.75
257.105	88.75
257.574	104.75
258.043	105.75
258.513	91.75
258.982	103.75
259.451	97.75
259.92	87.75
260.389	91.75
260.859	95.75
261.328	96.75
261.797	87.75
262.266	99.75
262.735	98.75
263.204	104.75
263.673	113.75
264.142	82.75
264.611	103.75
265.08	93.75
265.549	104.75
266.018	103.75
266.487	109.75
266.955	110.75
267.424	99.75
267.893	105.75
268.362	97.75
268.83	102.75
269.299	105.75
269.768	106.75
270.236	110.75
270.705	120.75
271.174	109.75
271.642	107.75
272.111	109.75
272.579	97.75
273.048	125.75
273.516	94.75
273.985	117.75
274.453	116.75
274.922	103.75
275.39	110.75
275.858	119.75
276.327	95.75
276.795	124.75
277.263	115.75
277.731	101.75
278.2	119.75
278.668	112.75
279.136	109.75
279.604	129.75
280.072	133.75
280.54	127.75
281.008	127.75
281.477	112.75
281.945	126.75
282.413	110.75
282.881	121.75
283.348	121.75
283.816	134.75
284.284	123.75
284.752	123.75
285.22	105.75
285.688	130.75
286.156	136.75
286.623	107.75
287.091	124.75
287.559	121.75
288.026	137.75
288.494	113.75
288.962	118.75
289.429	106.75
289.897	125.75
290.364	113.75
290.832	110.75
291.3	125.75
291.767	131.75
292.234	112.75
292.702	138.75
293.169	133.75
293.637	128.75
294.104	132.75
294.571	145.75
295.039	123.75
295.506	141.75
295.973	135.75
296.44	138.75
296.908	141.75
297.375	135.75
297.842	135.75
298.309	121.75
298.776	153.75
299.243	153.75
299.71	136.75
300.177	137.75
300.644	152.75
301.111	143.75
301.578	140.75
302.045	135.75
302.512	150.75
302.979	145.75
303.446	157.75
303.913	142.75
304.379	159.75
304.846	142.75
305.313	148.75
305.78	159.75
306.246	145.75
306.713	155.75
307.18	146.75
307.646	158.75
308.113	159.75
308.579	166.75
309.046	149.75
309.512	162.75
309.979	147.75
310.445	153.75
310.912	152.75
311.378	160.75
311.845	157.75
312.311	158.75
312.777	175.75
313.244	143.75
313.71	157.75
314.176	176.75
314.642	175.75
315.109	188.75
315.575	173.75
316.041	165.75
316.507	165.75
316.973	162.75
317.439	165.75
317.905	171.75
318.371	194.75
318.837	173.75
319.303	195.75
319.769	183.75
320.235	186.75
320.701	187.75
321.167	176.75
321.633	174.75
322.099	189.75
322.564	179.75
323.03	154.75
323.496	166.75
323.962	181.75
324.427	173.75
324.893	195.75
325.359	195.75
325.824	203.75
326.29	188.75
326.755	177.75
327.221	184.75
327.686	206.75
328.152	194.75
328.617	214.75
329.083	206.75
329.548	197.75
330.014	217.75
330.479	190.75
330.944	191.75
331.41	194.75
331.875	204.75
332.34	191.75
332.805	204.75
333.271	204.75
333.736	195.75
334.201	239.75
334.666	219.75
335.131	209.75
335.596	206.75
336.061	199.75
336.526	222.75
336.991	219.75
337.456	198.75
337.921	199.75
338.386	213.75
338.851	194.75
339.316	207.75
339.781	216.75
340.246	199.75
340.711	213.75
341.175	219.75
341.64	206.75
342.105	221.75
342.569	237.75
343.034	224.75
343.499	228.75
343.963	217.75
344.428	228.75
344.893	243.75
345.357	223.75
345.822	236.75
346.286	261.75
346.751	247.75
347.215	248.75
347.679	255.75
348.144	271.75
348.608	262.75
349.073	278.75
349.537	281.75
350.001	281.75
350.465	272.75
350.93	270.75
351.394	278.75
351.858	271.75
352.322	267.75
352.786	255.75
353.25	271.75
353.715	266.75
354.179	279.75
354.643	297.75
355.107	277.75
355.571	307.75
356.035	293.75
356.498	294.75
356.962	280.75
357.426	298.75
357.89	277.75
358.354	294.75
358.818	266.75
359.281	264.75
359.745	279.75
360.209	283.75
360.673	289.75
361.136	300.75
361.6	284.75
362.064	284.75
362.527	301.75
362.991	299.75
363.454	292.75
363.918	300.75
364.381	293.75
364.845	294.75
365.308	311.75
365.772	307.75
366.235	317.75
366.698	298.75
367.162	317.75
367.625	306.75
368.088	309.75
368.552	333.75
369.015	306.75
369.478	310.75
369.941	335.75
370.404	344.75
370.867	300.75
371.331	320.75
371.794	330.75
372.257	318.75
372.72	334.75
373.183	309.75
373.646	321.75
374.109	310.75
374.572	363.75
375.035	347.75
375.497	353.75
375.96	361.75
376.423	341.75
376.886	373.75
377.349	370.75
377.811	351.75
378.274	357.75
378.737	370.75
379.199	364.75
379.662	368.75
380.125	382.75
380.587	371.75
381.05	382.75
381.512	363.75
381.975	397.75
382.437	378.75
382.9	388.75
383.362	405.75
383.825	395.75
384.287	381.75
384.75	372.75
385.212	390.75
385.674	389.75
386.136	386.75
386.599	403.75
387.061	399.75
387.523	397.75
387.985	393.75
388.447	416.75
388.91	383.75
389.372	409.75
389.834	396.75
390.296	408.75
390.758	421.75
391.22	417.75
391.682	401.75
392.144	418.75
392.606	423.75
393.068	423.75
393.529	449.75
393.991	460.75
394.453	411.75
394.915	445.75
395.377	425.75
395.838	424.75
396.3	422.75
396.762	439.75
397.224	425.75
397.685	421.75
398.147	428.75
398.608	442.75
399.07	449.75
399.531	448.75
399.993	451.75
400.454	421.75
400.916	474.75
401.377	459.75
401.839	468.75
402.3	475.75
402.762	499.75
403.223	539.75
403.684	515.75
404.145	518.75
404.607	482.75
405.068	457.75
405.529	481.75
405.99	472.75
406.451	490.75
406.913	479.75
407.374	455.75
407.835	467.75
408.296	485.75
408.757	491.75
409.218	482.75
409.679	527.75
410.14	543.75
410.601	536.75
411.062	561.75
411.522	563.75
411.983	562.75
412.444	554.75
412.905	596.75
413.366	579.75
413.826	625.75
414.287	707.75
414.748	813.75
415.208	857.75
415.669	715.75
416.13	658.75
416.59	661.75
417.051	685.75
417.511	702.75
417.972	750.75
418.432	801.75
418.893	919.75
419.353	845.75
419.814	652.75
420.274	603.75
420.734	606.75
421.195	587.75
421.655	596.75
422.115	615.75
422.576	601.75
423.036	636.75
423.496	634.75
423.956	666.75
424.416	655.75
424.876	757.75
425.336	769.75
425.797	746.75
426.257	722.75
426.717	658.75
427.177	617.75
427.637	614.75
428.097	619.75
428.556	654.75
429.016	712.75
429.476	689.75
429.936	624.75
430.396	622.75
430.856	640.75
431.315	631.75
431.775	679.75
432.235	765.75
432.694	735.75
433.154	694.75
433.614	697.75
434.073	680.75
434.533	637.75
434.993	620.75
435.452	629.75
435.912	621.75
436.371	640.75
436.83	661.75
437.29	647.75
437.749	620.75
438.209	613.75
438.668	633.75
439.127	687.75
439.587	691.75
440.046	672.75
440.505	675.75
440.964	668.75
441.424	684.75
441.883	733.75
442.342	666.75
442.801	661.75
443.26	682.75
443.719	667.75
444.178	694.75
444.637	701.75
445.096	662.75
445.555	665.75
446.014	671.75
446.473	693.75
446.932	670.75
447.391	712.75
447.849	716.75
448.308	706.75
448.767	700.75
449.226	712.75
449.685	724.75
450.143	730.75
450.602	777.75
451.061	677.75
451.519	713.75
451.978	725.75
452.436	685.75
452.895	740.75
453.353	711.75
453.812	727.75
454.27	712.75
454.729	696.75
455.187	699.75
455.646	690.75
456.104	696.75
456.562	723.75
457.021	733.75
457.479	693.75
457.937	719.75
458.395	753.75
458.854	761.75
459.312	707.75
459.77	729.75
460.228	769.75
460.686	756.75
461.144	745.75
461.602	771.75
462.06	751.75
462.518	754.75
462.976	780.75
463.434	750.75
463.892	791.75
464.35	797.75
464.808	790.75
465.266	813.75
465.724	822.75
466.181	857.75
466.639	807.75
467.097	859.75
467.555	868.75
468.012	880.75
468.47	869.75
468.928	899.75
469.385	915.75
469.843	931.75
470.3	907.75
470.758	934.75
471.215	963.75
471.673	981.75
472.13	996.75
472.588	999.75
473.045	1007.75
473.503	1020.75
473.96	1053.75
474.417	1038.75
474.875	1074.75
475.332	1093.75
475.789	1072.75
476.246	1158.75
476.704	1147.75
477.161	1170.75
477.618	1178.75
478.075	1187.75
478.532	1267.75
478.989	1301.75
479.446	1296.75
479.903	1325.75
480.36	1311.75
480.817	1310.75
481.274	1345.75
481.731	1381.75
482.188	1384.75
482.645	1380.75
483.102	1413.75
483.558	1476.75
484.015	1523.75
484.472	1464.75
484.929	1520.75
485.385	1536.75
485.842	1522.75
486.299	1523.75
486.755	1535.75
487.212	1519.75
487.668	1473.75
488.125	1436.75
488.582	1399.75
489.038	1449.75
489.494	1459.75
489.951	1458.75
490.407	1495.75
490.864	1461.75
491.32	1460.75
491.776	1511.75
492.233	1528.75
492.689	1537.75
493.145	1523.75
493.602	1474.75
494.058	1518.75
494.514	1503.75
494.97	1496.75
495.426	1578.75
495.882	1544.75
496.338	1530.75
496.794	1576.75
497.251	1573.75
497.707	1597.75
498.163	1588.75
498.618	1588.75
499.074	1585.75
499.53	1621.75
499.986	1601.75
500.442	1629.75
500.898	1623.75
501.354	1637.75
501.809	1655.75
502.265	1623.75
502.721	1635.75
503.177	1643.75
503.632	1610.75
504.088	1685.75
504.543	1649.75
504.999	1699.75
505.455	1711.75
505.91	1703.75
506.366	1681.75
506.821	1695.75
507.277	1698.75
507.732	1702.75
508.187	1691.75
508.643	1705.75
509.098	1665.75
509.553	1686.75
510.009	1737.75
510.464	1785.75
510.919	1813.75
511.375	1824.75
511.83	1815.75
512.285	1896.75
512.74	1891.75
513.195	1949.75
513.65	1963.75
514.105	1986.75
514.56	1995.75
515.015	2021.75
515.47	2072.75
515.925	2109.75
516.38	2006.75
516.835	2049.75
517.29	1995.75
517.745	2064.75
518.2	1967.75
518.655	1950.75
519.109	1901.75
519.564	1926.75
520.019	1873.75
520.474	1850.75
520.928	1831.75
521.383	1853.75
521.838	1857.75
522.292	1770.75
522.747	1863.75
523.201	1834.75
523.656	1808.75
524.11	1789.75
524.565	1774.75
525.019	1776.75
525.474	1774.75
525.928	1788.75
526.382	1760.75
526.837	1751.75
527.291	1809.75
527.745	1749.75
528.2	1800.75
528.654	1754.75
529.108	1722.75
529.562	1762.75
530.016	1724.75
530.47	1735.75
530.925	1765.75
531.379	1789.75
531.833	1790.75
532.287	1780.75
532.741	1785.75
533.195	1731.75
533.649	1758.75
534.103	1769.75
534.556	1695.75
535.01	1761.75
535.464	1783.75
535.918	1717.75
536.372	1751.75
536.826	1746.75
537.279	1784.75
537.733	1766.75
538.187	1800.75
538.64	1802.75
539.094	1794.75
539.548	1789.75
540.001	1785.75
540.455	1808.75
540.908	1819.75
541.362	1818.75
541.815	1829.75
542.269	1900.75
542.722	1853.75
543.175	1903.75
543.629	1953.75
544.082	1909.75
544.536	1958.75
544.989	1978.75
545.442	1938.75
545.895	1975.75
546.349	1959.75
546.802	1974.75
547.255	2023.75
547.708	2018.75
548.161	2041.75
548.614	2060.75
549.067	2079.75
549.52	2069.75
549.973	2017.75
550.426	2029.75
550.879	2003.75
551.332	1983.75
551.785	2011.75
552.238	2070.75
552.691	2070.75
553.144	2064.75
553.596	2097.75
554.049	2136.75
554.502	2123.75
554.955	2234.75
555.407	2242.75
555.86	2193.75
556.313	2196.75
556.765	2172.75
557.218	2113.75
557.67	2100.75
558.123	2133.75
558.576	2085.75
559.028	2058.75
559.48	2093.75
559.933	2119.75
560.385	2027.75
560.838	2016.75
561.29	1935.75
561.742	1923.75
562.195	1838.75
562.647	1818.75
563.099	1842.75
563.551	1853.75
564.004	1861.75
564.456	1906.75
564.908	1821.75
565.36	1780.75
565.812	1731.75
566.264	1761.75
566.716	1720.75
567.168	1681.75
567.62	1647.75
568.072	1673.75
568.524	1658.75
568.976	1628.75
569.428	1625.75
569.88	1612.75
570.332	1611.75
570.784	1612.75
571.235	1627.75
571.687	1649.75
572.139	1682.75
572.59	1667.75
573.042	1674.75
573.494	1679.75
573.945	1638.75
574.397	1620.75
574.849	1629.75
575.3	1605.75
575.752	1597.75
576.203	1584.75
576.655	1577.75
577.106	1597.75
577.557	1569.75
578.009	1539.75
578.46	1537.75
578.912	1563.75
579.363	1563.75
579.814	1512.75
580.265	1513.75
580.717	1506.75
581.168	1565.75
581.619	1553.75
582.07	1561.75
582.521	1539.75
582.972	1541.75
583.423	1569.75
583.875	1545.75
584.326	1580.75
584.777	1608.75
585.227	1584.75
585.678	1657.75
586.129	1654.75
586.58	1669.75
587.031	1667.75
587.482	1739.75
587.933	1762.75
588.384	1771.75
588.834	1765.75
589.285	1736.75
589.736	1757.75
590.186	1744.75
590.637	1734.75
591.088	1688.75
591.538	1646.75
591.989	1650.75
592.439	1662.75
592.89	1589.75
593.34	1588.75
593.791	1602.75
594.241	1577.75
594.692	1557.75
595.142	1611.75
595.593	1542.75
596.043	1601.75
596.493	1569.75
596.943	1553.75
597.394	1627.75
597.844	1600.75
598.294	1653.75
598.744	1735.75
599.195	1851.75
599.645	1933.75
600.095	2048.75
600.545	2158.75
600.995	2232.75
601.445	2326.75
601.895	2470.75
602.345	2521.75
602.795	2500.75
603.245	2442.75
603.695	2278.75
604.145	2167.75
604.594	2010.75
605.044	1923.75
605.494	1799.75
605.944	1704.75
606.393	1644.75
606.843	1605.75
607.293	1623.75
607.743	1611.75
608.192	1621.75
608.642	1595.75
609.091	1625.75
609.541	1657.75
609.99	1608.75
610.44	1579.75
610.889	1568.75
611.339	1554.75
611.788	1542.75
612.238	1551.75
612.687	1537.75
613.136	1527.75
613.586	1565.75
614.035	1601.75
614.484	1565.75
614.933	1529.75
615.383	1543.75
615.832	1482.75
616.281	1477.75
616.73	1463.75
617.179	1445.75
617.628	1368.75
618.077	1369.75
618.526	1338.75
618.975	1362.75
619.424	1308.75
619.873	1327.75
620.322	1301.75
620.771	1290.75
621.22	1283.75
621.669	1263.75
622.118	1249.75
622.567	1271.75
623.015	1224.75
623.464	1200.75
623.913	1202.75
624.361	1193.75
624.81	1197.75
625.259	1158.75
625.707	1165.75
626.156	1245.75
626.604	1205.75
627.053	1253.75
627.501	1203.75
627.95	1261.75
628.398	1277.75
628.847	1234.75
629.295	1238.75
629.744	1202.75
630.192	1182.75
630.64	1179.75
631.089	1155.75
631.537	1097.75
631.985	1133.75
632.433	1115.75
632.881	1111.75
633.33	1076.75
633.778	1098.75
634.226	1105.75
634.674	1126.75
635.122	1125.75
635.57	1145.75
636.018	1146.75
636.466	1179.75
636.914	1165.75
637.362	1163.75
637.81	1186.75
638.258	1199.75
638.705	1228.75
639.153	1248.75
639.601	1318.75
640.049	1294.75
640.497	1324.75
640.944	1349.75
641.392	1298.75
641.84	1227.75
642.287	1151.75
642.735	1105.75
643.182	1102.75
643.63	1075.75
644.078	1062.75
644.525	1071.75
644.973	1051.75
645.42	1058.75
645.867	1074.75
646.315	1087.75
646.762	1087.75
647.21	1085.75
647.657	1104.75
648.104	1090.75
648.551	1081.75
648.999	1037.75
649.446	1027.75
649.893	1014.75
650.34	1044.75
650.787	1083.75
651.234	1106.75
651.682	1148.75
652.129	1287.75
652.576	1413.75
653.023	1626.75
653.47	1771.75
653.917	1887.75
654.363	1877.75
654.81	1986.75
655.257	2125.75
655.704	1757.75
656.151	1369.75
656.598	1147.75
657.044	1033.75
657.491	1069.75
657.938	1021.75
658.385	1034.75
658.831	1005.75
659.278	1025.75
659.724	1009.75
660.171	969.75
660.618	893.75
661.064	919.75
661.511	903.75
661.957	939.75
662.404	928.75
662.85	929.75
663.296	953.75
663.743	964.75
664.189	967.75
664.635	963.75
665.082	981.75
665.528	998.75
665.974	937.75
666.42	917.75
666.867	944.75
667.313	924.75
667.759	871.75
668.205	869.75
668.651	878.75
669.097	880.75
669.543	891.75
669.989	885.75
670.435	888.75
670.881	923.75
671.327	967.75
671.773	1005.75
672.219	1085.75
672.665	1203.75
673.11	1232.75
673.556	1211.75
674.002	1268.75
674.448	1345.75
674.893	1163.75
675.339	1026.75
675.785	943.75
676.23	869.75
676.676	841.75
677.122	821.75
677.567	773.75
678.013	769.75
678.458	766.75
678.904	772.75
679.349	752.75
679.794	764.75
680.24	742.75
680.685	767.75
681.131	751.75
681.576	770.75
682.021	776.75
682.466	773.75
682.912	767.75
683.357	781.75
683.802	846.75
684.247	959.75
684.692	986.75
685.137	1066.75
685.583	1099.75
686.028	1142.75
686.473	1125.75
686.918	984.75
687.363	884.75
687.807	825.75
688.252	807.75
688.697	775.75
689.142	723.75
689.587	729.75
690.032	743.75
690.477	763.75
690.921	794.75
691.366	861.75
691.811	883.75
692.255	926.75
692.7	1083.75
693.145	1419.75
693.589	2189.75
694.034	2896.75
694.478	3298.75
694.923	3011.75
695.367	3744.75
695.812	3385.75
696.256	1356.75
696.701	885.75
697.145	779.75
697.59	719.75
698.034	731.75
698.478	722.75
698.922	724.75
699.367	703.75
699.811	755.75
700.255	813.75
700.699	859.75
701.143	975.75
701.588	1033.75
702.032	1095.75
702.476	1117.75
702.92	1148.75
703.364	1295.75
703.808	1957.75
704.252	2695.75
704.696	3160.75
705.14	2920.75
705.584	3715.75
706.027	2926.75
706.471	1352.75
706.915	931.75
707.359	793.75
707.803	726.75
708.246	685.75
708.69	691.75
709.134	701.75
709.577	664.75
710.021	705.75
710.465	681.75
710.908	676.75
711.352	684.75
711.795	755.75
712.239	820.75
712.682	872.75
713.126	818.75
713.569	935.75
714.012	864.75
714.456	697.75
714.899	670.75
715.342	613.75
715.786	557.75
716.229	582.75
716.672	553.75
717.115	561.75
717.558	562.75
718.002	590.75
718.445	617.75
718.888	640.75
719.331	646.75
719.774	689.75
720.217	686.75
720.66	631.75
721.103	645.75
721.546	568.75
721.989	556.75
722.432	547.75
722.874	536.75
723.317	583.75
723.76	563.75
724.203	635.75
724.645	843.75
725.088	1091.75
725.531	1133.75
725.974	1131.75
726.416	1211.75
726.859	765.75
727.301	604.75
727.744	544.75
728.187	543.75
728.629	554.75
729.071	577.75
729.514	592.75
729.956	619.75
730.399	642.75
730.841	631.75
731.283	635.75
731.726	628.75
732.168	630.75
732.61	649.75
733.053	663.75
733.495	738.75
733.937	805.75
734.379	924.75
734.821	1119.75
735.263	1535.75
735.705	2719.75
736.148	4576.75
736.59	5248.75
737.032	4861.75
737.474	5340.75
737.916	2425.75
738.357	1135.75
738.799	782.75
739.241	686.75
739.683	674.75
740.125	689.75
740.567	710.75
741.008	727.75
741.45	770.75
741.892	814.75
742.334	830.75
742.775	813.75
743.217	787.75
743.658	701.75
744.1	663.75
744.542	731.75
744.983	792.75
745.425	779.75
745.866	836.75
746.307	755.75
746.749	709.75
747.19	895.75
747.632	1520.75
748.073	2970.75
748.514	4765.75
748.956	5877.75
749.397	7983.75
749.838	6307.75
750.279	5146.75
750.72	3783.75
751.162	1657.75
751.603	848.75
752.044	633.75
752.485	534.75
752.926	514.75
753.367	505.75
753.808	461.75
754.249	456.75
754.69	451.75
755.131	449.75
755.572	447.75
756.013	443.75
756.453	475.75
756.894	465.75
757.335	461.75
757.776	465.75
758.216	482.75
758.657	483.75
759.098	527.75
759.538	616.75
759.979	805.75
760.42	1268.75
760.86	2917.75
761.301	7081.75
761.741	10434.75
762.182	10683.75
762.622	9997.75
763.063	4401.75
763.503	1721.75
763.943	869.75
764.384	667.75
764.824	552.75
765.264	528.75
765.705	483.75
766.145	462.75
766.585	471.75
767.025	455.75
767.465	434.75
767.906	433.75
768.346	477.75
768.786	493.75
769.226	604.75
769.666	1057.75
770.106	2306.75
770.546	4244.75
770.986	4535.75
771.426	4486.75
771.866	2333.75
772.306	1009.75
772.745	573.75
773.185	436.75
773.625	429.75
774.065	396.75
774.505	506.75
774.944	766.75
775.384	1199.75
775.824	1349.75
776.263	1333.75
776.703	934.75
777.142	546.75
777.582	401.75
778.021	357.75
778.461	310.75
778.9	322.75
779.34	340.75
779.779	331.75
780.219	317.75
780.658	325.75
781.097	305.75
781.537	305.75
781.976	299.75
782.415	293.75
782.855	307.75
783.294	298.75
783.733	283.75
784.172	300.75
784.611	293.75
785.05	319.75
785.489	294.75
785.928	319.75
786.367	307.75
786.806	322.75
787.245	336.75
787.684	351.75
788.123	361.75
788.562	363.75
789.001	335.75
789.44	348.75
789.879	322.75
790.317	323.75
790.756	367.75
791.195	365.75
791.634	451.75
792.072	639.75
792.511	1353.75
792.95	3121.75
793.388	3981.75
793.827	3425.75
794.265	1923.75
794.704	919.75
795.142	529.75
795.581	397.75
796.019	358.75
796.458	350.75
796.896	366.75
797.334	391.75
797.773	438.75
798.211	721.75
798.649	1464.75
799.087	2540.75
799.526	3806.75
799.964	4307.75
800.402	3606.75
800.84	2031.75
801.278	1015.75
801.716	567.75
802.154	415.75
802.592	401.75
803.03	408.75
803.468	408.75
803.906	403.75
804.344	380.75
804.782	407.75
805.22	369.75
805.658	364.75
806.096	417.75
806.533	446.75
806.971	497.75
807.409	682.75
807.847	1071.75
808.284	2483.75
808.722	5131.75
809.16	7089.75
809.597	9851.75
810.035	12735.75
810.472	10813.75
810.91	5870.75
811.347	2688.75
811.785	1254.75
812.222	708.75
812.66	535.75
813.097	445.75
813.535	397.75
813.972	386.75
814.409	339.75
814.846	336.75
815.284	318.75
815.721	310.75
816.158	308.75
816.595	366.75
817.032	476.75
817.47	485.75
817.907	417.75
818.344	329.75
818.781	328.75
819.218	326.75
819.655	442.75
820.092	575.75
820.529	595.75
820.966	529.75
821.403	398.75
821.839	346.75
822.276	325.75
822.713	398.75
823.15	397.75
823.587	394.75
824.023	537.75
824.46	1157.75
824.897	2246.75
825.333	2371.75
825.77	1357.75
826.206	760.75
826.643	461.75
827.08	319.75
827.516	262.75
827.953	259.75
828.389	249.75
828.825	242.75
829.262	208.75
829.698	221.75
830.135	206.75
830.571	218.75
831.007	228.75
831.443	217.75
831.88	215.75
832.316	238.75
832.752	231.75
833.188	224.75
833.624	214.75
834.06	219.75
834.497	206.75
834.933	227.75
835.369	245.75
835.805	236.75
836.241	249.75
836.677	276.75
837.112	311.75
837.548	363.75
837.984	435.75
838.42	706.75
838.856	1862.75
839.292	3986.75
839.727	4360.75
840.163	2789.75
840.599	3307.75
841.034	4988.75
841.47	3777.75
841.906	2082.75
842.341	1140.75
842.777	686.75
843.212	599.75
843.648	494.75
844.083	366.75
844.519	280.75
844.954	252.75
845.39	220.75
845.825	238.75
846.261	223.75
846.696	225.75
847.131	185.75
847.566	210.75
848.002	202.75
848.437	211.75
848.872	208.75
849.307	235.75
849.742	325.75
850.177	686.75
850.613	1469.75
851.048	1628.75
851.483	889.75
851.918	566.75
852.353	313.75
852.788	236.75
853.223	203.75
853.657	201.75
854.092	181.75
854.527	191.75
854.962	197.75
855.397	194.75
855.832	198.75
856.266	180.75
856.701	170.75
857.136	173.75
857.57	176.75
858.005	210.75
858.44	219.75
858.874	221.75
859.309	181.75
859.743	193.75
860.178	194.75
860.612	203.75
861.047	231.75
861.481	246.75
861.915	270.75
862.35	191.75
862.784	188.75
863.218	158.75
863.653	178.75
864.087	197.75
864.521	224.75
864.955	281.75
865.39	438.75
865.824	435.75
866.258	409.75
866.692	567.75
867.126	520.75
867.56	393.75
867.994	281.75
868.428	222.75
868.862	210.75
869.296	205.75
869.73	243.75
870.164	211.75
870.598	217.75
871.031	186.75
871.465	146.75
871.899	151.75
872.333	137.75
872.766	141.75
873.2	149.75
873.634	140.75
874.067	136.75
874.501	161.75
874.935	150.75
875.368	163.75
875.802	176.75
876.235	140.75
876.669	139.75
877.102	147.75
877.535	142.75
877.969	131.75
878.402	143.75
878.836	127.75
879.269	126.75
879.702	133.75
880.135	127.75
880.569	140.75
881.002	120.75
881.435	133.75
881.868	127.75
882.301	146.75
882.734	121.75
883.167	139.75
883.601	126.75
884.034	111.75
884.467	123.75
884.899	120.75
885.332	141.75
885.765	128.75
886.198	117.75
886.631	125.75
887.064	122.75
887.497	111.75
887.929	125.75
888.362	104.75
888.795	120.75
889.228	107.75
889.66	122.75
890.093	103.75
890.526	113.75
890.958	117.75
891.391	121.75
891.823	117.75
892.256	122.75
892.688	113.75
893.121	121.75
893.553	103.75
893.985	133.75
894.418	133.75
894.85	128.75
895.282	135.75
895.715	123.75
896.147	127.75
896.579	126.75
897.011	110.75
897.444	125.75
897.876	126.75
898.308	137.75
898.74	117.75
899.172	132.75
899.604	127.75
900.036	117.75
900.468	118.75
900.9	106.75
901.332	130.75
901.764	125.75
902.196	120.75
902.628	123.75
903.06	144.75
903.491	151.75
903.923	145.75
904.355	162.75
904.787	137.75
905.218	149.75
905.65	126.75
906.082	133.75
906.513	117.75
906.945	120.75
907.376	122.75
907.808	136.75
908.239	146.75
908.671	137.75
909.102	129.75
909.534	158.75
909.965	213.75
910.397	351.75
910.828	942.75
911.259	1011.75
911.691	614.75
912.122	410.75
912.553	261.75
912.984	167.75
913.415	137.75
913.847	134.75
914.278	143.75
914.709	119.75
915.14	132.75
915.571	126.75
916.002	127.75
916.433	114.75
916.864	122.75
917.295	125.75
917.726	131.75
918.157	141.75
918.587	148.75
919.018	138.75
919.449	136.75
919.88	124.75
920.311	172.75
920.741	249.75
921.172	473.75
921.603	354.75
922.033	296.75
922.464	233.75
922.895	149.75
923.325	129.75
923.756	133.75
924.186	145.75
924.617	151.75
925.047	158.75
925.478	151.75
925.908	159.75
926.338	144.75
926.769	141.75
927.199	128.75
927.629	108.75
928.06	110.75
928.49	117.75
928.92	117.75
929.35	111.75
929.78	111.75
930.21	114.75
930.641	101.75
931.071	114.75
931.501	101.75
931.931	105.75
932.361	78.75
932.791	101.75
933.221	109.75
933.651	108.75
934.08	154.75
934.51	130.75
934.94	125.75
935.37	111.75
935.8	106.75
936.229	97.75
936.659	92.75
937.089	111.75
937.519	110.75
937.948	125.75
938.378	114.75
938.807	127.75
939.237	81.75
939.666	105.75
940.096	89.75
940.525	88.75
940.955	102.75
941.384	73.75
941.814	96.75
942.243	98.75
942.672	92.75
943.102	96.75
943.531	89.75
943.96	73.75
944.39	101.75
944.819	94.75
945.248	94.75
945.677	101.75
946.106	89.75
946.535	84.75
946.964	80.75
947.393	83.75
947.822	98.75
948.251	107.75
948.68	109.75
949.109	97.75
949.538	78.75
949.967	71.75
950.396	98.75
950.825	96.75
951.254	90.75
951.682	104.75
952.111	79.75
952.54	97.75
952.969	92.75
953.397	73.75
953.826	113.75
954.254	106.75
954.683	104.75
955.112	93.75
955.54	101.75
955.969	92.75
956.397	104.75
956.826	86.75
957.254	90.75
957.682	96.75
958.111	83.75
958.539	78.75
958.967	98.75
959.396	98.75
959.824	80.75
960.252	87.75
960.68	99.75
961.109	90.75
961.537	93.75
961.965	106.75
962.393	98.75
962.821	95.75
963.249	87.75
963.677	103.75
964.105	108.75
964.533	194.75
964.961	165.75
965.389	145.75
965.817	125.75
966.245	116.75
966.672	93.75
967.1	99.75
967.528	104.75
967.956	96.75
968.383	84.75
968.811	87.75
969.239	95.75
969.666	98.75
970.094	92.75
970.522	95.75
970.949	91.75
971.377	91.75
971.804	84.75
972.232	114.75
972.659	89.75
973.087	89.75
973.514	81.75
973.941	96.75
974.369	105.75
974.796	89.75
975.223	87.75
975.651	84.75
976.078	97.75
976.505	75.75
976.932	101.75
977.359	120.75
977.786	122.75
978.214	111.75
978.641	104.75
979.068	87.75
979.495	101.75
979.922	96.75
980.349	96.75
980.776	64.75
981.202	84.75
981.629	95.75
982.056	97.75
982.483	86.75
982.91	101.75
983.337	104.75
983.763	82.75
984.19	87.75
984.617	88.75
985.043	118.75
985.47	98.75
985.897	109.75
986.323	96.75
986.75	92.75
987.176	86.75
987.603	97.75
988.029	90.75
988.456	88.75
988.882	84.75
989.308	88.75
989.735	100.75
990.161	93.75
990.587	96.75
991.014	74.75
991.44	101.75
991.866	87.75
992.292	97.75
992.719	89.75
993.145	100.75
993.571	95.75
993.997	88.75
994.423	104.75
994.849	100.75
995.275	77.75
995.701	88.75
996.127	99.75
996.553	90.75
996.979	101.75
997.405	81.75
997.83	91.75
998.256	91.75
998.682	92.75
999.108	90.75
999.534	106.75
999.959	81.75
1000.385	90.75
1000.811	101.75
1001.236	93.75
1001.662	104.75
1002.087	86.75
1002.513	90.75
1002.938	89.75
1003.364	95.75
1003.789	101.75
1004.215	90.75
1004.64	92.75
1005.066	103.75
1005.491	91.75
1005.916	94.75
1006.342	76.75
1006.767	59.75
1007.192	95.75
1007.617	93.75
1008.042	87.75
1008.468	89.75
1008.893	90.75
1009.318	97.75
1009.743	89.75
1010.168	75.75
1010.593	90.75
1011.018	100.75
1011.443	90.75
1011.868	98.75
1012.293	94.75
1012.718	79.75
1013.143	89.75
1013.567	88.75
1013.992	73.75
1014.417	90.75
1014.842	103.75
1015.267	89.75
1015.691	90.75
1016.116	89.75
1016.541	84.75
1016.965	89.75
1017.39	91.75
1017.814	76.75
1018.239	103.75
1018.663	100.75
1019.088	84.75
1019.512	90.75
1019.937	66.75
1020.361	88.75
1020.785	82.75
1021.21	99.75
1021.634	77.75
1022.058	88.75
1022.483	86.75
1022.907	69.75
1023.331	83.75
1023.755	84.75
1024.179	100.75
1024.604	78.75
1025.028	98.75
1025.452	76.75
1025.876	84.75
1026.3	82.75
1026.724	86.75
1027.148	91.75
1027.572	98.75
1027.996	97.75
1028.42	79.75
1028.843	85.75
1029.267	82.75
1029.691	89.75
1030.115	89.75
1030.539	81.75
1030.962	92.75
1031.386	69.75
1031.81	85.75
1032.233	80.75
1032.657	105.75
1033.08	74.75
1033.504	75.75
1033.927	73.75
1034.351	79.75
1034.774	95.75
1035.198	67.75
1035.621	69.75
1036.045	88.75
1036.468	87.75
1036.891	74.75
1037.315	75.75
1037.738	87.75
1038.161	90.75
1038.584	70.75
1039.008	85.75
1039.431	77.75
1039.854	69.75
1040.277	77.75
1040.7	85.75
1041.123	95.75
1041.546	83.75
1041.969	85.75
1042.392	85.75
1042.815	87.75
1043.238	96.75
1043.661	90.75
1044.084	81.75
1044.507	90.75
1044.93	89.75
1045.352	92.75
1045.775	97.75
1046.198	79.75
1046.621	83.75
1047.043	81.75
1047.466	85.75
1047.889	85.75
1048.311	91.75
1048.734	105.75
1049.156	84.75
1049.579	85.75
1050.001	83.75
1050.424	87.75
1050.846	98.75
1051.269	79.75
1051.691	95.75
1052.113	94.75
1052.536	81.75
1052.958	104.75
1053.38	95.75
1053.802	93.75
1054.225	82.75
1054.647	71.75
1055.069	81.75
1055.491	89.75
1055.913	77.75
1056.335	78.75
1056.757	84.75
1057.179	102.75
1057.601	61.75
1058.023	73.75
1058.445	80.75
1058.867	83.75
1059.289	89.75
1059.711	79.75
1060.133	74.75
1060.555	95.75
1060.976	86.75
1061.398	88.75
1061.82	89.75
1062.241	102.75
1062.663	88.75
1063.085	91.75
1063.506	100.75
1063.928	82.75
1064.35	80.75
1064.771	70.75
1065.193	70.75
1065.614	87.75
1066.035	82.75
1066.457	94.75
1066.878	87.75
1067.3	95.75
1067.721	96.75
1068.142	78.75
1068.564	89.75
1068.985	97.75
1069.406	92.75
1069.827	85.75
1070.248	95.75
1070.67	91.75
1071.091	93.75
1071.512	79.75
1071.933	82.75
1072.354	79.75
1072.775	83.75
1073.196	96.75
1073.617	92.75
1074.038	74.75
1074.459	75.75
1074.88	82.75
1075.3	89.75
1075.721	74.75
1076.142	87.75
1076.563	81.75
1076.983	76.75
1077.404	93.75
1077.825	74.75
1078.246	85.75
1078.666	85.75
1079.087	98.75
1079.507	76.75
1079.928	91.75
1080.348	87.75
1080.769	89.75
1081.189	98.75
1081.61	81.75
1082.03	77.75
1082.451	71.75
1082.871	83.75
1083.291	88.75
1083.711	78.75
1084.132	65.75
1084.552	87.75
1084.972	83.75
1085.392	72.75
1085.813	93.75
1086.233	87.75
1086.653	93.75
1087.073	77.75
1087.493	77.75
1087.913	72.75
1088.333	65.75
1088.753	86.75
1089.173	74.75
1089.593	87.75
1090.013	99.75
1090.433	73.75
1090.852	84.75
1091.272	90.75
1091.692	75.75
1092.112	99.75
1092.531	74.75
1092.951	79.75
1093.371	75.75
1093.79	76.75
1094.21	77.75
1094.63	87.75
1095.049	69.75
1095.469	81.75
1095.888	70.75
1096.308	82.75
1096.727	98.75
1097.146	87.75
1097.566	84.75
1097.985	76.75
1098.405	87.75
1098.824	72.75
1099.243	101.75
1099.662	80.75
1100.082	78.75
1100.501	72.75
1100.92	73.75
1101.339	78.75
1101.758	72.75
