Data from 20170802-ORNL-NYSim-Air_HRD10391_10-36-23-597.txt Node
Date: Wed Aug 02 10:36:23 EDT 2017
User: Ender
Spectrometer: HR+D1039
Trigger mode: 0
Integration Time (sec): 3.750000E-3
Scans to average: 1
Electric dark correction enabled: true
Nonlinearity correction enabled: false
Boxcar width: 0
XAxis mode: Wavelengths
Number of Pixels in Spectrum: 2048
>>>>>Begin Spectral Data<<<<<
187.836	-12.56
188.309	-12.56
188.782	-12.56
189.255	-0.56
189.728	-15.56
190.201	-0.56
190.674	-4.56
191.147	-6.56
191.619	-5.56
192.092	-11.56
192.565	6.44
193.038	-0.56
193.511	-6.56
193.984	5.44
194.456	10.44
194.929	12.44
195.402	10.44
195.874	19.44
196.347	14.44
196.82	28.44
197.292	30.44
197.765	38.44
198.237	31.44
198.71	39.44
199.182	44.44
199.655	39.44
200.127	59.44
200.6	45.44
201.072	47.44
201.544	53.44
202.017	66.44
202.489	51.44
202.961	54.44
203.433	75.44
203.906	56.44
204.378	81.44
204.85	87.44
205.322	83.44
205.794	80.44
206.266	79.44
206.739	89.44
207.211	84.44
207.683	85.44
208.155	76.44
208.627	71.44
209.099	82.44
209.57	92.44
210.042	94.44
210.514	96.44
210.986	98.44
211.458	92.44
211.93	86.44
212.402	77.44
212.873	87.44
213.345	72.44
213.817	80.44
214.288	83.44
214.76	85.44
215.232	85.44
215.703	93.44
216.175	81.44
216.646	89.44
217.118	87.44
217.589	86.44
218.061	90.44
218.532	73.44
219.004	69.44
219.475	69.44
219.946	83.44
220.418	73.44
220.889	79.44
221.36	80.44
221.832	75.44
222.303	67.44
222.774	76.44
223.245	78.44
223.717	75.44
224.188	84.44
224.659	72.44
225.13	82.44
225.601	69.44
226.072	82.44
226.543	91.44
227.014	96.44
227.485	83.44
227.956	76.44
228.427	69.44
228.898	81.44
229.369	82.44
229.839	86.44
230.31	88.44
230.781	79.44
231.252	79.44
231.722	89.44
232.193	101.44
232.664	86.44
233.135	79.44
233.605	77.44
234.076	61.44
234.546	83.44
235.017	96.44
235.487	84.44
235.958	85.44
236.428	92.44
236.899	84.44
237.369	94.44
237.84	93.44
238.31	69.44
238.78	84.44
239.251	82.44
239.721	81.44
240.191	97.44
240.662	92.44
241.132	99.44
241.602	74.44
242.072	88.44
242.542	100.44
243.013	87.44
243.483	97.44
243.953	78.44
244.423	78.44
244.893	91.44
245.363	93.44
245.833	82.44
246.303	96.44
246.773	92.44
247.243	78.44
247.712	90.44
248.182	92.44
248.652	92.44
249.122	95.44
249.592	93.44
250.061	92.44
250.531	106.44
251.001	82.44
251.471	90.44
251.94	94.44
252.41	74.44
252.879	79.44
253.349	88.44
253.818	85.44
254.288	96.44
254.757	86.44
255.227	97.44
255.696	95.44
256.166	93.44
256.635	112.44
257.105	94.44
257.574	103.44
258.043	100.44
258.513	108.44
258.982	103.44
259.451	113.44
259.92	101.44
260.389	102.44
260.859	104.44
261.328	91.44
261.797	99.44
262.266	112.44
262.735	102.44
263.204	86.44
263.673	91.44
264.142	82.44
264.611	110.44
265.08	102.44
265.549	93.44
266.018	103.44
266.487	99.44
266.955	112.44
267.424	96.44
267.893	112.44
268.362	115.44
268.83	91.44
269.299	99.44
269.768	109.44
270.236	105.44
270.705	101.44
271.174	105.44
271.642	110.44
272.111	100.44
272.579	112.44
273.048	97.44
273.516	111.44
273.985	106.44
274.453	94.44
274.922	116.44
275.39	126.44
275.858	124.44
276.327	112.44
276.795	118.44
277.263	106.44
277.731	121.44
278.2	127.44
278.668	129.44
279.136	114.44
279.604	105.44
280.072	113.44
280.54	118.44
281.008	118.44
281.477	125.44
281.945	118.44
282.413	113.44
282.881	130.44
283.348	106.44
283.816	124.44
284.284	116.44
284.752	117.44
285.22	113.44
285.688	112.44
286.156	116.44
286.623	107.44
287.091	105.44
287.559	111.44
288.026	122.44
288.494	126.44
288.962	119.44
289.429	120.44
289.897	128.44
290.364	131.44
290.832	130.44
291.3	138.44
291.767	125.44
292.234	130.44
292.702	128.44
293.169	116.44
293.637	137.44
294.104	126.44
294.571	122.44
295.039	128.44
295.506	134.44
295.973	152.44
296.44	122.44
296.908	136.44
297.375	128.44
297.842	144.44
298.309	137.44
298.776	128.44
299.243	126.44
299.71	131.44
300.177	138.44
300.644	142.44
301.111	135.44
301.578	133.44
302.045	144.44
302.512	139.44
302.979	157.44
303.446	146.44
303.913	148.44
304.379	157.44
304.846	146.44
305.313	127.44
305.78	154.44
306.246	135.44
306.713	154.44
307.18	146.44
307.646	160.44
308.113	170.44
308.579	148.44
309.046	140.44
309.512	157.44
309.979	165.44
310.445	163.44
310.912	160.44
311.378	139.44
311.845	145.44
312.311	155.44
312.777	160.44
313.244	150.44
313.71	166.44
314.176	169.44
314.642	175.44
315.109	166.44
315.575	173.44
316.041	156.44
316.507	157.44
316.973	174.44
317.439	185.44
317.905	158.44
318.371	188.44
318.837	173.44
319.303	171.44
319.769	170.44
320.235	176.44
320.701	179.44
321.167	166.44
321.633	178.44
322.099	176.44
322.564	181.44
323.03	170.44
323.496	183.44
323.962	162.44
324.427	182.44
324.893	169.44
325.359	204.44
325.824	180.44
326.29	183.44
326.755	183.44
327.221	181.44
327.686	199.44
328.152	206.44
328.617	212.44
329.083	189.44
329.548	186.44
330.014	180.44
330.479	198.44
330.944	207.44
331.41	201.44
331.875	217.44
332.34	222.44
332.805	202.44
333.271	213.44
333.736	207.44
334.201	191.44
334.666	195.44
335.131	202.44
335.596	198.44
336.061	199.44
336.526	208.44
336.991	182.44
337.456	205.44
337.921	201.44
338.386	223.44
338.851	206.44
339.316	197.44
339.781	210.44
340.246	202.44
340.711	221.44
341.175	203.44
341.64	210.44
342.105	208.44
342.569	216.44
343.034	226.44
343.499	216.44
343.963	223.44
344.428	222.44
344.893	238.44
345.357	231.44
345.822	261.44
346.286	226.44
346.751	238.44
347.215	248.44
347.679	229.44
348.144	246.44
348.608	255.44
349.073	264.44
349.537	268.44
350.001	266.44
350.465	272.44
350.93	283.44
351.394	264.44
351.858	255.44
352.322	280.44
352.786	269.44
353.25	252.44
353.715	263.44
354.179	278.44
354.643	298.44
355.107	280.44
355.571	314.44
356.035	296.44
356.498	275.44
356.962	277.44
357.426	276.44
357.89	294.44
358.354	267.44
358.818	280.44
359.281	290.44
359.745	292.44
360.209	287.44
360.673	274.44
361.136	276.44
361.6	278.44
362.064	294.44
362.527	304.44
362.991	300.44
363.454	272.44
363.918	298.44
364.381	312.44
364.845	330.44
365.308	286.44
365.772	289.44
366.235	292.44
366.698	305.44
367.162	313.44
367.625	315.44
368.088	297.44
368.552	319.44
369.015	315.44
369.478	296.44
369.941	313.44
370.404	324.44
370.867	310.44
371.331	305.44
371.794	325.44
372.257	324.44
372.72	315.44
373.183	333.44
373.646	320.44
374.109	335.44
374.572	338.44
375.035	327.44
375.497	335.44
375.96	329.44
376.423	325.44
376.886	350.44
377.349	346.44
377.811	346.44
378.274	363.44
378.737	362.44
379.199	341.44
379.662	330.44
380.125	354.44
380.587	372.44
381.05	358.44
381.512	366.44
381.975	364.44
382.437	363.44
382.9	394.44
383.362	390.44
383.825	391.44
384.287	373.44
384.75	398.44
385.212	409.44
385.674	382.44
386.136	402.44
386.599	386.44
387.061	414.44
387.523	422.44
387.985	388.44
388.447	422.44
388.91	398.44
389.372	401.44
389.834	407.44
390.296	400.44
390.758	419.44
391.22	410.44
391.682	403.44
392.144	400.44
392.606	386.44
393.068	412.44
393.529	442.44
393.991	443.44
394.453	439.44
394.915	397.44
395.377	399.44
395.838	408.44
396.3	430.44
396.762	408.44
397.224	432.44
397.685	420.44
398.147	412.44
398.608	419.44
399.07	425.44
399.531	435.44
399.993	452.44
400.454	471.44
400.916	479.44
401.377	482.44
401.839	454.44
402.3	465.44
402.762	468.44
403.223	502.44
403.684	538.44
404.145	501.44
404.607	482.44
405.068	480.44
405.529	464.44
405.99	448.44
406.451	457.44
406.913	462.44
407.374	458.44
407.835	454.44
408.296	488.44
408.757	506.44
409.218	500.44
409.679	497.44
410.14	502.44
410.601	521.44
411.062	543.44
411.522	574.44
411.983	546.44
412.444	569.44
412.905	560.44
413.366	587.44
413.826	640.44
414.287	686.44
414.748	832.44
415.208	851.44
415.669	707.44
416.13	648.44
416.59	653.44
417.051	678.44
417.511	688.44
417.972	742.44
418.432	780.44
418.893	880.44
419.353	855.44
419.814	649.44
420.274	590.44
420.734	567.44
421.195	605.44
421.655	602.44
422.115	590.44
422.576	589.44
423.036	614.44
423.496	605.44
423.956	626.44
424.416	678.44
424.876	750.44
425.336	733.44
425.797	728.44
426.257	709.44
426.717	696.44
427.177	613.44
427.637	614.44
428.097	600.44
428.556	625.44
429.016	678.44
429.476	667.44
429.936	629.44
430.396	640.44
430.856	656.44
431.315	660.44
431.775	702.44
432.235	740.44
432.694	754.44
433.154	706.44
433.614	695.44
434.073	701.44
434.533	645.44
434.993	624.44
435.452	619.44
435.912	615.44
436.371	630.44
436.83	625.44
437.29	641.44
437.749	630.44
438.209	628.44
438.668	602.44
439.127	692.44
439.587	668.44
440.046	645.44
440.505	656.44
440.964	690.44
441.424	692.44
441.883	702.44
442.342	687.44
442.801	637.44
443.26	699.44
443.719	657.44
444.178	662.44
444.637	680.44
445.096	681.44
445.555	701.44
446.014	664.44
446.473	702.44
446.932	687.44
447.391	682.44
447.849	690.44
448.308	677.44
448.767	702.44
449.226	724.44
449.685	722.44
450.143	755.44
450.602	736.44
451.061	711.44
451.519	692.44
451.978	694.44
452.436	717.44
452.895	709.44
453.353	663.44
453.812	716.44
454.27	701.44
454.729	706.44
455.187	692.44
455.646	728.44
456.104	718.44
456.562	702.44
457.021	711.44
457.479	708.44
457.937	733.44
458.395	751.44
458.854	738.44
459.312	746.44
459.77	752.44
460.228	728.44
460.686	730.44
461.144	761.44
461.602	739.44
462.06	734.44
462.518	743.44
462.976	746.44
463.434	768.44
463.892	786.44
464.35	790.44
464.808	798.44
465.266	821.44
465.724	780.44
466.181	831.44
466.639	842.44
467.097	828.44
467.555	857.44
468.012	857.44
468.47	856.44
468.928	898.44
469.385	904.44
469.843	882.44
470.3	904.44
470.758	912.44
471.215	945.44
471.673	967.44
472.13	989.44
472.588	1028.44
473.045	979.44
473.503	990.44
473.96	1034.44
474.417	1044.44
474.875	1082.44
475.332	1081.44
475.789	1118.44
476.246	1122.44
476.704	1116.44
477.161	1142.44
477.618	1166.44
478.075	1193.44
478.532	1201.44
478.989	1245.44
479.446	1280.44
479.903	1274.44
480.36	1320.44
480.817	1303.44
481.274	1348.44
481.731	1344.44
482.188	1375.44
482.645	1397.44
483.102	1415.44
483.558	1442.44
484.015	1482.44
484.472	1499.44
484.929	1519.44
485.385	1493.44
485.842	1507.44
486.299	1518.44
486.755	1521.44
487.212	1514.44
487.668	1436.44
488.125	1497.44
488.582	1406.44
489.038	1448.44
489.494	1448.44
489.951	1465.44
490.407	1453.44
490.864	1465.44
491.32	1430.44
491.776	1485.44
492.233	1481.44
492.689	1532.44
493.145	1430.44
493.602	1442.44
494.058	1515.44
494.514	1476.44
494.97	1521.44
495.426	1552.44
495.882	1568.44
496.338	1558.44
496.794	1530.44
497.251	1568.44
497.707	1601.44
498.163	1591.44
498.618	1572.44
499.074	1583.44
499.53	1628.44
499.986	1616.44
500.442	1629.44
500.898	1604.44
501.354	1618.44
501.809	1570.44
502.265	1609.44
502.721	1644.44
503.177	1650.44
503.632	1635.44
504.088	1616.44
504.543	1695.44
504.999	1710.44
505.455	1641.44
505.91	1670.44
506.366	1703.44
506.821	1631.44
507.277	1654.44
507.732	1682.44
508.187	1670.44
508.643	1676.44
509.098	1700.44
509.553	1717.44
510.009	1714.44
510.464	1792.44
510.919	1772.44
511.375	1832.44
511.83	1838.44
512.285	1827.44
512.74	1881.44
513.195	1936.44
513.65	1904.44
514.105	1962.44
514.56	1968.44
515.015	1997.44
515.47	2037.44
515.925	2029.44
516.38	2026.44
516.835	2012.44
517.29	2018.44
517.745	2043.44
518.2	1984.44
518.655	1923.44
519.109	1926.44
519.564	1899.44
520.019	1866.44
520.474	1859.44
520.928	1895.44
521.383	1818.44
521.838	1786.44
522.292	1853.44
522.747	1772.44
523.201	1771.44
523.656	1768.44
524.11	1818.44
524.565	1764.44
525.019	1758.44
525.474	1768.44
525.928	1724.44
526.382	1732.44
526.837	1760.44
527.291	1766.44
527.745	1726.44
528.2	1752.44
528.654	1762.44
529.108	1771.44
529.562	1740.44
530.016	1733.44
530.47	1721.44
530.925	1746.44
531.379	1736.44
531.833	1796.44
532.287	1727.44
532.741	1666.44
533.195	1725.44
533.649	1726.44
534.103	1727.44
534.556	1703.44
535.01	1749.44
535.464	1694.44
535.918	1737.44
536.372	1785.44
536.826	1778.44
537.279	1739.44
537.733	1788.44
538.187	1742.44
538.64	1754.44
539.094	1769.44
539.548	1784.44
540.001	1821.44
540.455	1791.44
540.908	1809.44
541.362	1797.44
541.815	1854.44
542.269	1886.44
542.722	1907.44
543.175	1897.44
543.629	1900.44
544.082	1904.44
544.536	1920.44
544.989	1956.44
545.442	1934.44
545.895	1931.44
546.349	1949.44
546.802	1969.44
547.255	1992.44
547.708	1962.44
548.161	2050.44
548.614	2038.44
549.067	1984.44
549.52	1979.44
549.973	1988.44
550.426	1982.44
550.879	1955.44
551.332	1932.44
551.785	1926.44
552.238	1978.44
552.691	2008.44
553.144	2052.44
553.596	2020.44
554.049	2119.44
554.502	2133.44
554.955	2172.44
555.407	2238.44
555.86	2196.44
556.313	2154.44
556.765	2158.44
557.218	2098.44
557.67	2080.44
558.123	2117.44
558.576	2084.44
559.028	2099.44
559.48	2078.44
559.933	2113.44
560.385	2004.44
560.838	1923.44
561.29	1869.44
561.742	1901.44
562.195	1800.44
562.647	1866.44
563.099	1796.44
563.551	1841.44
564.004	1843.44
564.456	1838.44
564.908	1775.44
565.36	1784.44
565.812	1724.44
566.264	1732.44
566.716	1680.44
567.168	1641.44
567.62	1629.44
568.072	1632.44
568.524	1651.44
568.976	1622.44
569.428	1597.44
569.88	1615.44
570.332	1620.44
570.784	1604.44
571.235	1616.44
571.687	1641.44
572.139	1619.44
572.59	1637.44
573.042	1674.44
573.494	1694.44
573.945	1643.44
574.397	1592.44
574.849	1627.44
575.3	1591.44
575.752	1574.44
576.203	1578.44
576.655	1545.44
577.106	1544.44
577.557	1540.44
578.009	1543.44
578.46	1561.44
578.912	1497.44
579.363	1527.44
579.814	1491.44
580.265	1515.44
580.717	1537.44
581.168	1494.44
581.619	1516.44
582.07	1514.44
582.521	1521.44
582.972	1519.44
583.423	1531.44
583.875	1540.44
584.326	1579.44
584.777	1563.44
585.227	1619.44
585.678	1624.44
586.129	1633.44
586.58	1650.44
587.031	1716.44
587.482	1727.44
587.933	1726.44
588.384	1780.44
588.834	1726.44
589.285	1722.44
589.736	1724.44
590.186	1727.44
590.637	1716.44
591.088	1686.44
591.538	1677.44
591.989	1633.44
592.439	1613.44
592.89	1579.44
593.34	1562.44
593.791	1634.44
594.241	1575.44
594.692	1574.44
595.142	1564.44
595.593	1490.44
596.043	1551.44
596.493	1551.44
596.943	1553.44
597.394	1609.44
597.844	1589.44
598.294	1680.44
598.744	1708.44
599.195	1795.44
599.645	1902.44
600.095	2012.44
600.545	2170.44
600.995	2222.44
601.445	2275.44
601.895	2428.44
602.345	2501.44
602.795	2491.44
603.245	2393.44
603.695	2248.44
604.145	2143.44
604.594	2031.44
605.044	1938.44
605.494	1763.44
605.944	1704.44
606.393	1574.44
606.843	1598.44
607.293	1637.44
607.743	1590.44
608.192	1605.44
608.642	1638.44
609.091	1602.44
609.541	1622.44
609.99	1574.44
610.44	1564.44
610.889	1588.44
611.339	1520.44
611.788	1514.44
612.238	1472.44
612.687	1507.44
613.136	1567.44
613.586	1588.44
614.035	1557.44
614.484	1549.44
614.933	1546.44
615.383	1475.44
615.832	1488.44
616.281	1476.44
616.73	1452.44
617.179	1392.44
617.628	1391.44
618.077	1398.44
618.526	1350.44
618.975	1317.44
619.424	1304.44
619.873	1326.44
620.322	1297.44
620.771	1288.44
621.22	1278.44
621.669	1258.44
622.118	1235.44
622.567	1232.44
623.015	1208.44
623.464	1199.44
623.913	1189.44
624.361	1186.44
624.81	1162.44
625.259	1174.44
625.707	1164.44
626.156	1182.44
626.604	1211.44
627.053	1212.44
627.501	1174.44
627.95	1234.44
628.398	1262.44
628.847	1209.44
629.295	1221.44
629.744	1228.44
630.192	1214.44
630.64	1198.44
631.089	1167.44
631.537	1124.44
631.985	1090.44
632.433	1126.44
632.881	1099.44
633.33	1108.44
633.778	1073.44
634.226	1101.44
634.674	1119.44
635.122	1132.44
635.57	1177.44
636.018	1146.44
636.466	1135.44
636.914	1184.44
637.362	1124.44
637.81	1164.44
638.258	1186.44
638.705	1201.44
639.153	1286.44
639.601	1238.44
640.049	1262.44
640.497	1302.44
640.944	1373.44
641.392	1310.44
641.84	1190.44
642.287	1148.44
642.735	1091.44
643.182	1075.44
643.63	1032.44
644.078	1007.44
644.525	1064.44
644.973	1048.44
645.42	1033.44
645.867	1041.44
646.315	1078.44
646.762	1086.44
647.21	1048.44
647.657	1090.44
648.104	1059.44
648.551	1020.44
648.999	1026.44
649.446	1015.44
649.893	1012.44
650.34	1017.44
650.787	1048.44
651.234	1051.44
651.682	1134.44
652.129	1276.44
652.576	1400.44
653.023	1628.44
653.47	1751.44
653.917	1884.44
654.363	1862.44
654.81	1960.44
655.257	2107.44
655.704	1709.44
656.151	1346.44
656.598	1166.44
657.044	1049.44
657.491	1055.44
657.938	1034.44
658.385	1002.44
658.831	974.44
659.278	998.44
659.724	988.44
660.171	965.44
660.618	946.44
661.064	887.44
661.511	941.44
661.957	929.44
662.404	960.44
662.85	932.44
663.296	981.44
663.743	960.44
664.189	957.44
664.635	960.44
665.082	926.44
665.528	963.44
665.974	946.44
666.42	920.44
666.867	936.44
667.313	878.44
667.759	881.44
668.205	888.44
668.651	887.44
669.097	906.44
669.543	896.44
669.989	898.44
670.435	900.44
670.881	912.44
671.327	939.44
671.773	974.44
672.219	1050.44
672.665	1155.44
673.11	1219.44
673.556	1268.44
674.002	1272.44
674.448	1343.44
674.893	1140.44
675.339	967.44
675.785	917.44
676.23	864.44
676.676	833.44
677.122	805.44
677.567	795.44
678.013	784.44
678.458	776.44
678.904	748.44
679.349	757.44
679.794	736.44
680.24	764.44
680.685	772.44
681.131	738.44
681.576	720.44
682.021	750.44
682.466	719.44
682.912	748.44
683.357	772.44
683.802	838.44
684.247	950.44
684.692	998.44
685.137	1026.44
685.583	1080.44
686.028	1109.44
686.473	1111.44
686.918	956.44
687.363	857.44
687.807	816.44
688.252	798.44
688.697	740.44
689.142	737.44
689.587	759.44
690.032	747.44
690.477	770.44
690.921	790.44
691.366	841.44
691.811	862.44
692.255	902.44
692.7	1076.44
693.145	1418.44
693.589	2196.44
694.034	2920.44
694.478	3232.44
694.923	2987.44
695.367	3762.44
695.812	3324.44
696.256	1329.44
696.701	872.44
697.145	763.44
697.59	736.44
698.034	706.44
698.478	694.44
698.922	726.44
699.367	688.44
699.811	750.44
700.255	829.44
700.699	904.44
701.143	970.44
701.588	1030.44
702.032	1077.44
702.476	1079.44
702.92	1134.44
703.364	1300.44
703.808	1905.44
704.252	2790.44
704.696	3088.44
705.14	2866.44
705.584	3682.44
706.027	2932.44
706.471	1298.44
706.915	907.44
707.359	776.44
707.803	731.44
708.246	684.44
708.69	694.44
709.134	682.44
709.577	662.44
710.021	683.44
710.465	694.44
710.908	670.44
711.352	674.44
711.795	752.44
712.239	815.44
712.682	867.44
713.126	838.44
713.569	905.44
714.012	821.44
714.456	731.44
714.899	622.44
715.342	610.44
715.786	594.44
716.229	581.44
716.672	542.44
717.115	534.44
717.558	583.44
718.002	589.44
718.445	602.44
718.888	638.44
719.331	649.44
719.774	686.44
720.217	646.44
720.66	611.44
721.103	612.44
721.546	578.44
721.989	558.44
722.432	556.44
722.874	560.44
723.317	528.44
723.76	560.44
724.203	613.44
724.645	864.44
725.088	1074.44
725.531	1120.44
725.974	1124.44
726.416	1161.44
726.859	765.44
727.301	570.44
727.744	534.44
728.187	551.44
728.629	524.44
729.071	548.44
729.514	613.44
729.956	646.44
730.399	638.44
730.841	645.44
731.283	630.44
731.726	587.44
732.168	606.44
732.61	616.44
733.053	678.44
733.495	722.44
733.937	802.44
734.379	907.44
734.821	1081.44
735.263	1558.44
735.705	2628.44
736.148	4450.44
736.59	5188.44
737.032	4849.44
737.474	5241.44
737.916	2408.44
738.357	1142.44
738.799	780.44
739.241	711.44
739.683	682.44
740.125	689.44
740.567	683.44
741.008	714.44
741.45	766.44
741.892	763.44
742.334	805.44
742.775	775.44
743.217	804.44
743.658	714.44
744.1	657.44
744.542	712.44
744.983	783.44
745.425	792.44
745.866	834.44
746.307	725.44
746.749	719.44
747.19	881.44
747.632	1526.44
748.073	2970.44
748.514	4681.44
748.956	5809.44
749.397	7888.44
749.838	6310.44
750.279	5125.44
750.72	3795.44
751.162	1602.44
751.603	811.44
752.044	635.44
752.485	516.44
752.926	499.44
753.367	490.44
753.808	473.44
754.249	482.44
754.69	446.44
755.131	419.44
755.572	466.44
756.013	444.44
756.453	475.44
756.894	461.44
757.335	450.44
757.776	454.44
758.216	461.44
758.657	491.44
759.098	534.44
759.538	582.44
759.979	750.44
760.42	1249.44
760.86	2859.44
761.301	6986.44
761.741	10348.44
762.182	10591.44
762.622	9904.44
763.063	4317.44
763.503	1677.44
763.943	844.44
764.384	652.44
764.824	578.44
765.264	509.44
765.705	497.44
766.145	459.44
766.585	440.44
767.025	450.44
767.465	413.44
767.906	447.44
768.346	444.44
768.786	480.44
769.226	602.44
769.666	1042.44
770.106	2312.44
770.546	4174.44
770.986	4505.44
771.426	4386.44
771.866	2306.44
772.306	999.44
772.745	557.44
773.185	449.44
773.625	405.44
774.065	414.44
774.505	489.44
774.944	734.44
775.384	1166.44
775.824	1344.44
776.263	1312.44
776.703	910.44
777.142	540.44
777.582	378.44
778.021	355.44
778.461	339.44
778.9	335.44
779.34	342.44
779.779	317.44
780.219	340.44
780.658	314.44
781.097	322.44
781.537	288.44
781.976	294.44
782.415	302.44
782.855	296.44
783.294	290.44
783.733	288.44
784.172	303.44
784.611	284.44
785.05	286.44
785.489	317.44
785.928	321.44
786.367	314.44
786.806	326.44
787.245	368.44
787.684	353.44
788.123	382.44
788.562	342.44
789.001	351.44
789.44	335.44
789.879	341.44
790.317	334.44
790.756	352.44
791.195	364.44
791.634	430.44
792.072	653.44
792.511	1361.44
792.95	3119.44
793.388	3823.44
793.827	3456.44
794.265	1871.44
794.704	900.44
795.142	515.44
795.581	382.44
796.019	358.44
796.458	340.44
796.896	351.44
797.334	370.44
797.773	449.44
798.211	702.44
798.649	1493.44
799.087	2491.44
799.526	3864.44
799.964	4293.44
800.402	3537.44
800.84	1938.44
801.278	1000.44
801.716	529.44
802.154	447.44
802.592	386.44
803.03	370.44
803.468	379.44
803.906	398.44
804.344	382.44
804.782	388.44
805.22	378.44
805.658	348.44
806.096	401.44
806.533	426.44
806.971	489.44
807.409	655.44
807.847	1057.44
808.284	2465.44
808.722	5112.44
809.16	7067.44
809.597	9822.44
810.035	12514.44
810.472	10752.44
810.91	5711.44
811.347	2720.44
811.785	1200.44
812.222	717.44
812.66	512.44
813.097	448.44
813.535	384.44
813.972	380.44
814.409	325.44
814.846	329.44
815.284	317.44
815.721	327.44
816.158	309.44
816.595	361.44
817.032	443.44
817.47	465.44
817.907	391.44
818.344	354.44
818.781	314.44
819.218	332.44
819.655	427.44
820.092	558.44
820.529	591.44
820.966	530.44
821.403	402.44
821.839	342.44
822.276	342.44
822.713	351.44
823.15	387.44
823.587	367.44
824.023	522.44
824.46	1122.44
824.897	2268.44
825.333	2326.44
825.77	1360.44
826.206	770.44
826.643	462.44
827.08	318.44
827.516	294.44
827.953	252.44
828.389	240.44
828.825	230.44
829.262	232.44
829.698	219.44
830.135	235.44
830.571	212.44
831.007	230.44
831.443	190.44
831.88	223.44
832.316	216.44
832.752	228.44
833.188	209.44
833.624	257.44
834.06	236.44
834.497	220.44
834.933	238.44
835.369	238.44
835.805	257.44
836.241	250.44
836.677	260.44
837.112	292.44
837.548	326.44
837.984	417.44
838.42	712.44
838.856	1819.44
839.292	3915.44
839.727	4291.44
840.163	2781.44
840.599	3290.44
841.034	4982.44
841.47	3810.44
841.906	2096.44
842.341	1126.44
842.777	659.44
843.212	578.44
843.648	468.44
844.083	374.44
844.519	294.44
844.954	247.44
845.39	212.44
845.825	204.44
846.261	189.44
846.696	195.44
847.131	190.44
847.566	199.44
848.002	200.44
848.437	203.44
848.872	213.44
849.307	207.44
849.742	332.44
850.177	677.44
850.613	1414.44
851.048	1600.44
851.483	869.44
851.918	548.44
852.353	331.44
852.788	244.44
853.223	206.44
853.657	178.44
854.092	193.44
854.527	186.44
854.962	178.44
855.397	177.44
855.832	197.44
856.266	168.44
856.701	174.44
857.136	156.44
857.57	175.44
858.005	208.44
858.44	200.44
858.874	202.44
859.309	172.44
859.743	176.44
860.178	163.44
860.612	183.44
861.047	213.44
861.481	252.44
861.915	220.44
862.35	186.44
862.784	172.44
863.218	174.44
863.653	159.44
864.087	190.44
864.521	198.44
864.955	282.44
865.39	434.44
865.824	441.44
866.258	422.44
866.692	571.44
867.126	545.44
867.56	365.44
867.994	258.44
868.428	214.44
868.862	214.44
869.296	212.44
869.73	232.44
870.164	237.44
870.598	218.44
871.031	182.44
871.465	178.44
871.899	166.44
872.333	143.44
872.766	144.44
873.2	138.44
873.634	154.44
874.067	136.44
874.501	140.44
874.935	158.44
875.368	146.44
875.802	144.44
876.235	125.44
876.669	148.44
877.102	144.44
877.535	127.44
877.969	126.44
878.402	132.44
878.836	142.44
879.269	135.44
879.702	148.44
880.135	130.44
880.569	123.44
881.002	127.44
881.435	127.44
881.868	141.44
882.301	118.44
882.734	132.44
883.167	130.44
883.601	132.44
884.034	131.44
884.467	132.44
884.899	126.44
885.332	123.44
885.765	118.44
886.198	133.44
886.631	124.44
887.064	111.44
887.497	113.44
887.929	117.44
888.362	124.44
888.795	126.44
889.228	112.44
889.66	109.44
890.093	112.44
890.526	110.44
890.958	120.44
891.391	124.44
891.823	118.44
892.256	112.44
892.688	113.44
893.121	120.44
893.553	126.44
893.985	124.44
894.418	125.44
894.85	117.44
895.282	126.44
895.715	110.44
896.147	106.44
896.579	130.44
897.011	111.44
897.444	118.44
897.876	104.44
898.308	100.44
898.74	140.44
899.172	122.44
899.604	107.44
900.036	124.44
900.468	118.44
900.9	117.44
901.332	124.44
901.764	125.44
902.196	128.44
902.628	122.44
903.06	126.44
903.491	147.44
903.923	143.44
904.355	158.44
904.787	150.44
905.218	136.44
905.65	142.44
906.082	124.44
906.513	135.44
906.945	118.44
907.376	127.44
907.808	126.44
908.239	113.44
908.671	124.44
909.102	113.44
909.534	145.44
909.965	212.44
910.397	358.44
910.828	919.44
911.259	983.44
911.691	595.44
912.122	451.44
912.553	252.44
912.984	178.44
913.415	146.44
913.847	138.44
914.278	135.44
914.709	108.44
915.14	114.44
915.571	125.44
916.002	125.44
916.433	116.44
916.864	106.44
917.295	134.44
917.726	103.44
918.157	136.44
918.587	137.44
919.018	128.44
919.449	124.44
919.88	119.44
920.311	166.44
920.741	230.44
921.172	464.44
921.603	376.44
922.033	295.44
922.464	218.44
922.895	147.44
923.325	124.44
923.756	119.44
924.186	125.44
924.617	138.44
925.047	169.44
925.478	180.44
925.908	154.44
926.338	117.44
926.769	104.44
927.199	116.44
927.629	99.44
928.06	124.44
928.49	124.44
928.92	117.44
929.35	119.44
929.78	105.44
930.21	110.44
930.641	104.44
931.071	118.44
931.501	106.44
931.931	98.44
932.361	99.44
932.791	98.44
933.221	115.44
933.651	124.44
934.08	135.44
934.51	114.44
934.94	100.44
935.37	121.44
935.8	97.44
936.229	103.44
936.659	86.44
937.089	106.44
937.519	123.44
937.948	126.44
938.378	139.44
938.807	116.44
939.237	100.44
939.666	95.44
940.096	111.44
940.525	88.44
940.955	96.44
941.384	88.44
941.814	85.44
942.243	95.44
942.672	94.44
943.102	94.44
943.531	73.44
943.96	96.44
944.39	89.44
944.819	96.44
945.248	82.44
945.677	84.44
946.106	102.44
946.535	99.44
946.964	100.44
947.393	93.44
947.822	98.44
948.251	106.44
948.68	94.44
949.109	81.44
949.538	77.44
949.967	95.44
950.396	97.44
950.825	115.44
951.254	90.44
951.682	107.44
952.111	83.44
952.54	87.44
952.969	69.44
953.397	83.44
953.826	96.44
954.254	60.44
954.683	98.44
955.112	95.44
955.54	111.44
955.969	96.44
956.397	93.44
956.826	86.44
957.254	76.44
957.682	99.44
958.111	92.44
958.539	82.44
958.967	88.44
959.396	84.44
959.824	96.44
960.252	85.44
960.68	76.44
961.109	98.44
961.537	111.44
961.965	90.44
962.393	81.44
962.821	85.44
963.249	92.44
963.677	93.44
964.105	105.44
964.533	198.44
964.961	175.44
965.389	141.44
965.817	99.44
966.245	101.44
966.672	88.44
967.1	96.44
967.528	75.44
967.956	92.44
968.383	80.44
968.811	100.44
969.239	88.44
969.666	88.44
970.094	93.44
970.522	82.44
970.949	78.44
971.377	81.44
971.804	67.44
972.232	101.44
972.659	80.44
973.087	91.44
973.514	93.44
973.941	92.44
974.369	113.44
974.796	93.44
975.223	78.44
975.651	79.44
976.078	90.44
976.505	90.44
976.932	94.44
977.359	111.44
977.786	102.44
978.214	112.44
978.641	101.44
979.068	88.44
979.495	101.44
979.922	98.44
980.349	89.44
980.776	81.44
981.202	75.44
981.629	92.44
982.056	95.44
982.483	72.44
982.91	89.44
983.337	68.44
983.763	91.44
984.19	90.44
984.617	68.44
985.043	76.44
985.47	80.44
985.897	75.44
986.323	76.44
986.75	78.44
987.176	88.44
987.603	83.44
988.029	74.44
988.456	96.44
988.882	78.44
989.308	75.44
989.735	89.44
990.161	89.44
990.587	84.44
991.014	83.44
991.44	88.44
991.866	94.44
992.292	80.44
992.719	86.44
993.145	71.44
993.571	79.44
993.997	76.44
994.423	74.44
994.849	64.44
995.275	90.44
995.701	83.44
996.127	90.44
996.553	74.44
996.979	88.44
997.405	84.44
997.83	110.44
998.256	84.44
998.682	84.44
999.108	90.44
999.534	82.44
999.959	76.44
1000.385	66.44
1000.811	88.44
1001.236	82.44
1001.662	72.44
1002.087	77.44
1002.513	85.44
1002.938	93.44
1003.364	87.44
1003.789	83.44
1004.215	85.44
1004.64	86.44
1005.066	76.44
1005.491	88.44
1005.916	76.44
1006.342	94.44
1006.767	92.44
1007.192	68.44
1007.617	82.44
1008.042	84.44
1008.468	92.44
1008.893	78.44
1009.318	86.44
1009.743	104.44
1010.168	89.44
1010.593	104.44
1011.018	109.44
1011.443	99.44
1011.868	80.44
1012.293	88.44
1012.718	89.44
1013.143	93.44
1013.567	85.44
1013.992	90.44
1014.417	92.44
1014.842	75.44
1015.267	85.44
1015.691	90.44
1016.116	75.44
1016.541	86.44
1016.965	76.44
1017.39	83.44
1017.814	82.44
1018.239	82.44
1018.663	72.44
1019.088	80.44
1019.512	85.44
1019.937	96.44
1020.361	95.44
1020.785	72.44
1021.21	68.44
1021.634	82.44
1022.058	77.44
1022.483	82.44
1022.907	84.44
1023.331	95.44
1023.755	70.44
1024.179	92.44
1024.604	75.44
1025.028	62.44
1025.452	75.44
1025.876	68.44
1026.3	75.44
1026.724	88.44
1027.148	109.44
1027.572	84.44
1027.996	76.44
1028.42	92.44
1028.843	84.44
1029.267	97.44
1029.691	85.44
1030.115	99.44
1030.539	88.44
1030.962	75.44
1031.386	55.44
1031.81	82.44
1032.233	76.44
1032.657	92.44
1033.08	83.44
1033.504	79.44
1033.927	81.44
1034.351	97.44
1034.774	77.44
1035.198	81.44
1035.621	97.44
1036.045	71.44
1036.468	62.44
1036.891	75.44
1037.315	62.44
1037.738	84.44
1038.161	81.44
1038.584	64.44
1039.008	82.44
1039.431	88.44
1039.854	70.44
1040.277	75.44
1040.7	88.44
1041.123	76.44
1041.546	76.44
1041.969	95.44
1042.392	86.44
1042.815	75.44
1043.238	71.44
1043.661	88.44
1044.084	94.44
1044.507	82.44
1044.93	83.44
1045.352	72.44
1045.775	83.44
1046.198	82.44
1046.621	97.44
1047.043	74.44
1047.466	79.44
1047.889	78.44
1048.311	87.44
1048.734	77.44
1049.156	65.44
1049.579	62.44
1050.001	86.44
1050.424	84.44
1050.846	69.44
1051.269	63.44
1051.691	80.44
1052.113	91.44
1052.536	82.44
1052.958	81.44
1053.38	104.44
1053.802	84.44
1054.225	88.44
1054.647	74.44
1055.069	82.44
1055.491	74.44
1055.913	80.44
1056.335	86.44
1056.757	87.44
1057.179	91.44
1057.601	88.44
1058.023	91.44
1058.445	92.44
1058.867	92.44
1059.289	95.44
1059.711	100.44
1060.133	84.44
1060.555	86.44
1060.976	93.44
1061.398	81.44
1061.82	82.44
1062.241	72.44
1062.663	78.44
1063.085	83.44
1063.506	76.44
1063.928	83.44
1064.35	70.44
1064.771	78.44
1065.193	84.44
1065.614	86.44
1066.035	81.44
1066.457	90.44
1066.878	85.44
1067.3	77.44
1067.721	76.44
1068.142	72.44
1068.564	76.44
1068.985	94.44
1069.406	77.44
1069.827	76.44
1070.248	73.44
1070.67	90.44
1071.091	70.44
1071.512	95.44
1071.933	77.44
1072.354	73.44
1072.775	79.44
1073.196	74.44
1073.617	92.44
1074.038	92.44
1074.459	96.44
1074.88	91.44
1075.3	94.44
1075.721	77.44
1076.142	91.44
1076.563	88.44
1076.983	91.44
1077.404	93.44
1077.825	89.44
1078.246	70.44
1078.666	76.44
1079.087	72.44
1079.507	77.44
1079.928	80.44
1080.348	86.44
1080.769	78.44
1081.189	90.44
1081.61	62.44
1082.03	89.44
1082.451	81.44
1082.871	54.44
1083.291	74.44
1083.711	78.44
1084.132	89.44
1084.552	72.44
1084.972	84.44
1085.392	83.44
1085.813	82.44
1086.233	65.44
1086.653	62.44
1087.073	76.44
1087.493	76.44
1087.913	84.44
1088.333	74.44
1088.753	90.44
1089.173	62.44
1089.593	72.44
1090.013	90.44
1090.433	77.44
1090.852	78.44
1091.272	72.44
1091.692	75.44
1092.112	62.44
1092.531	59.44
1092.951	93.44
1093.371	79.44
1093.79	94.44
1094.21	83.44
1094.63	86.44
1095.049	76.44
1095.469	81.44
1095.888	86.44
1096.308	82.44
1096.727	102.44
1097.146	83.44
1097.566	102.44
1097.985	83.44
1098.405	62.44
1098.824	70.44
1099.243	86.44
1099.662	84.44
1100.082	76.44
1100.501	61.44
1100.92	81.44
1101.339	98.44
1101.758	80.44
