Data from 20170802-ORNL-NYSim-Air_HRD10391_10-36-07-570.txt Node
Date: Wed Aug 02 10:36:07 EDT 2017
User: Ender
Spectrometer: HR+D1039
Trigger mode: 0
Integration Time (sec): 3.750000E-3
Scans to average: 1
Electric dark correction enabled: true
Nonlinearity correction enabled: false
Boxcar width: 0
XAxis mode: Wavelengths
Number of Pixels in Spectrum: 2048
>>>>>Begin Spectral Data<<<<<
187.836	13.31
188.309	13.31
188.782	13.31
189.255	2.31
189.728	-4.69
190.201	-13.69
190.674	-4.69
191.147	-2.69
191.619	-4.69
192.092	-5.69
192.565	-4.69
193.038	-15.69
193.511	-4.69
193.984	-2.69
194.456	9.31
194.929	9.31
195.402	12.31
195.874	17.31
196.347	27.31
196.82	27.31
197.292	29.31
197.765	48.31
198.237	27.31
198.71	41.31
199.182	23.31
199.655	37.31
200.127	37.31
200.6	56.31
201.072	60.31
201.544	51.31
202.017	50.31
202.489	51.31
202.961	62.31
203.433	73.31
203.906	69.31
204.378	87.31
204.85	91.31
205.322	71.31
205.794	72.31
206.266	78.31
206.739	71.31
207.211	83.31
207.683	72.31
208.155	85.31
208.627	71.31
209.099	87.31
209.57	93.31
210.042	88.31
210.514	81.31
210.986	91.31
211.458	92.31
211.93	84.31
212.402	79.31
212.873	97.31
213.345	87.31
213.817	88.31
214.288	80.31
214.76	79.31
215.232	84.31
215.703	83.31
216.175	103.31
216.646	87.31
217.118	89.31
217.589	83.31
218.061	77.31
218.532	79.31
219.004	78.31
219.475	66.31
219.946	73.31
220.418	75.31
220.889	68.31
221.36	85.31
221.832	57.31
222.303	78.31
222.774	87.31
223.245	71.31
223.717	79.31
224.188	83.31
224.659	79.31
225.13	80.31
225.601	89.31
226.072	84.31
226.543	81.31
227.014	83.31
227.485	75.31
227.956	63.31
228.427	74.31
228.898	84.31
229.369	69.31
229.839	79.31
230.31	71.31
230.781	81.31
231.252	79.31
231.722	75.31
232.193	82.31
232.664	72.31
233.135	68.31
233.605	73.31
234.076	72.31
234.546	81.31
235.017	75.31
235.487	86.31
235.958	76.31
236.428	75.31
236.899	87.31
237.369	75.31
237.84	68.31
238.31	89.31
238.78	104.31
239.251	93.31
239.721	89.31
240.191	99.31
240.662	88.31
241.132	96.31
241.602	97.31
242.072	85.31
242.542	87.31
243.013	91.31
243.483	84.31
243.953	65.31
244.423	92.31
244.893	86.31
245.363	83.31
245.833	98.31
246.303	87.31
246.773	90.31
247.243	89.31
247.712	94.31
248.182	89.31
248.652	69.31
249.122	89.31
249.592	108.31
250.061	86.31
250.531	85.31
251.001	93.31
251.471	89.31
251.94	79.31
252.41	104.31
252.879	88.31
253.349	101.31
253.818	93.31
254.288	79.31
254.757	108.31
255.227	97.31
255.696	95.31
256.166	101.31
256.635	108.31
257.105	90.31
257.574	102.31
258.043	95.31
258.513	107.31
258.982	92.31
259.451	88.31
259.92	95.31
260.389	99.31
260.859	97.31
261.328	110.31
261.797	97.31
262.266	108.31
262.735	96.31
263.204	110.31
263.673	102.31
264.142	104.31
264.611	123.31
265.08	107.31
265.549	111.31
266.018	114.31
266.487	99.31
266.955	112.31
267.424	105.31
267.893	101.31
268.362	95.31
268.83	105.31
269.299	101.31
269.768	111.31
270.236	98.31
270.705	88.31
271.174	101.31
271.642	103.31
272.111	101.31
272.579	83.31
273.048	103.31
273.516	99.31
273.985	127.31
274.453	120.31
274.922	92.31
275.39	108.31
275.858	106.31
276.327	105.31
276.795	104.31
277.263	114.31
277.731	105.31
278.2	117.31
278.668	95.31
279.136	113.31
279.604	114.31
280.072	117.31
280.54	116.31
281.008	118.31
281.477	101.31
281.945	110.31
282.413	126.31
282.881	118.31
283.348	131.31
283.816	124.31
284.284	103.31
284.752	115.31
285.22	121.31
285.688	123.31
286.156	131.31
286.623	123.31
287.091	120.31
287.559	106.31
288.026	123.31
288.494	119.31
288.962	124.31
289.429	117.31
289.897	130.31
290.364	119.31
290.832	110.31
291.3	130.31
291.767	123.31
292.234	135.31
292.702	129.31
293.169	126.31
293.637	137.31
294.104	126.31
294.571	139.31
295.039	128.31
295.506	124.31
295.973	143.31
296.44	127.31
296.908	148.31
297.375	133.31
297.842	143.31
298.309	138.31
298.776	144.31
299.243	120.31
299.71	143.31
300.177	136.31
300.644	144.31
301.111	138.31
301.578	138.31
302.045	145.31
302.512	129.31
302.979	160.31
303.446	147.31
303.913	145.31
304.379	133.31
304.846	161.31
305.313	140.31
305.78	147.31
306.246	142.31
306.713	133.31
307.18	159.31
307.646	158.31
308.113	162.31
308.579	164.31
309.046	155.31
309.512	178.31
309.979	162.31
310.445	177.31
310.912	166.31
311.378	161.31
311.845	161.31
312.311	168.31
312.777	135.31
313.244	155.31
313.71	172.31
314.176	173.31
314.642	177.31
315.109	176.31
315.575	165.31
316.041	169.31
316.507	169.31
316.973	167.31
317.439	167.31
317.905	185.31
318.371	183.31
318.837	164.31
319.303	160.31
319.769	171.31
320.235	158.31
320.701	161.31
321.167	171.31
321.633	180.31
322.099	175.31
322.564	186.31
323.03	182.31
323.496	169.31
323.962	196.31
324.427	179.31
324.893	170.31
325.359	176.31
325.824	196.31
326.29	177.31
326.755	198.31
327.221	174.31
327.686	193.31
328.152	197.31
328.617	191.31
329.083	191.31
329.548	193.31
330.014	190.31
330.479	198.31
330.944	210.31
331.41	217.31
331.875	197.31
332.34	191.31
332.805	194.31
333.271	196.31
333.736	229.31
334.201	198.31
334.666	214.31
335.131	224.31
335.596	221.31
336.061	196.31
336.526	197.31
336.991	203.31
337.456	197.31
337.921	202.31
338.386	219.31
338.851	216.31
339.316	195.31
339.781	192.31
340.246	212.31
340.711	210.31
341.175	239.31
341.64	241.31
342.105	221.31
342.569	233.31
343.034	235.31
343.499	226.31
343.963	224.31
344.428	205.31
344.893	227.31
345.357	215.31
345.822	232.31
346.286	211.31
346.751	234.31
347.215	242.31
347.679	260.31
348.144	265.31
348.608	263.31
349.073	250.31
349.537	267.31
350.001	260.31
350.465	256.31
350.93	262.31
351.394	264.31
351.858	261.31
352.322	255.31
352.786	274.31
353.25	263.31
353.715	268.31
354.179	280.31
354.643	295.31
355.107	301.31
355.571	289.31
356.035	274.31
356.498	285.31
356.962	269.31
357.426	263.31
357.89	273.31
358.354	302.31
358.818	276.31
359.281	267.31
359.745	281.31
360.209	266.31
360.673	275.31
361.136	273.31
361.6	275.31
362.064	289.31
362.527	286.31
362.991	291.31
363.454	285.31
363.918	295.31
364.381	287.31
364.845	297.31
365.308	290.31
365.772	299.31
366.235	309.31
366.698	297.31
367.162	289.31
367.625	320.31
368.088	309.31
368.552	300.31
369.015	310.31
369.478	320.31
369.941	295.31
370.404	300.31
370.867	298.31
371.331	326.31
371.794	309.31
372.257	320.31
372.72	319.31
373.183	320.31
373.646	325.31
374.109	324.31
374.572	333.31
375.035	309.31
375.497	332.31
375.96	316.31
376.423	337.31
376.886	359.31
377.349	329.31
377.811	346.31
378.274	328.31
378.737	344.31
379.199	367.31
379.662	366.31
380.125	357.31
380.587	347.31
381.05	364.31
381.512	357.31
381.975	384.31
382.437	381.31
382.9	368.31
383.362	385.31
383.825	383.31
384.287	398.31
384.75	375.31
385.212	387.31
385.674	359.31
386.136	402.31
386.599	379.31
387.061	383.31
387.523	397.31
387.985	375.31
388.447	391.31
388.91	397.31
389.372	385.31
389.834	430.31
390.296	414.31
390.758	419.31
391.22	407.31
391.682	416.31
392.144	405.31
392.606	415.31
393.068	413.31
393.529	452.31
393.991	437.31
394.453	438.31
394.915	396.31
395.377	409.31
395.838	417.31
396.3	404.31
396.762	420.31
397.224	411.31
397.685	408.31
398.147	401.31
398.608	427.31
399.07	469.31
399.531	430.31
399.993	435.31
400.454	448.31
400.916	432.31
401.377	443.31
401.839	453.31
402.3	458.31
402.762	476.31
403.223	484.31
403.684	477.31
404.145	468.31
404.607	457.31
405.068	465.31
405.529	440.31
405.99	492.31
406.451	475.31
406.913	480.31
407.374	445.31
407.835	467.31
408.296	468.31
408.757	489.31
409.218	502.31
409.679	533.31
410.14	524.31
410.601	524.31
411.062	530.31
411.522	562.31
411.983	541.31
412.444	557.31
412.905	542.31
413.366	558.31
413.826	603.31
414.287	665.31
414.748	817.31
415.208	838.31
415.669	719.31
416.13	658.31
416.59	647.31
417.051	664.31
417.511	714.31
417.972	753.31
418.432	759.31
418.893	869.31
419.353	837.31
419.814	624.31
420.274	589.31
420.734	544.31
421.195	575.31
421.655	583.31
422.115	574.31
422.576	597.31
423.036	600.31
423.496	611.31
423.956	651.31
424.416	650.31
424.876	739.31
425.336	727.31
425.797	729.31
426.257	711.31
426.717	680.31
427.177	599.31
427.637	599.31
428.097	629.31
428.556	631.31
429.016	678.31
429.476	657.31
429.936	630.31
430.396	623.31
430.856	629.31
431.315	649.31
431.775	664.31
432.235	737.31
432.694	728.31
433.154	686.31
433.614	699.31
434.073	673.31
434.533	597.31
434.993	599.31
435.452	655.31
435.912	630.31
436.371	616.31
436.83	622.31
437.29	623.31
437.749	637.31
438.209	645.31
438.668	643.31
439.127	653.31
439.587	656.31
440.046	629.31
440.505	631.31
440.964	662.31
441.424	685.31
441.883	700.31
442.342	661.31
442.801	649.31
443.26	659.31
443.719	641.31
444.178	643.31
444.637	653.31
445.096	685.31
445.555	669.31
446.014	649.31
446.473	659.31
446.932	664.31
447.391	671.31
447.849	701.31
448.308	671.31
448.767	692.31
449.226	695.31
449.685	724.31
450.143	732.31
450.602	760.31
451.061	717.31
451.519	662.31
451.978	684.31
452.436	687.31
452.895	685.31
453.353	693.31
453.812	663.31
454.27	695.31
454.729	699.31
455.187	718.31
455.646	698.31
456.104	703.31
456.562	716.31
457.021	711.31
457.479	656.31
457.937	727.31
458.395	720.31
458.854	746.31
459.312	727.31
459.77	691.31
460.228	732.31
460.686	762.31
461.144	752.31
461.602	757.31
462.06	708.31
462.518	731.31
462.976	763.31
463.434	750.31
463.892	754.31
464.35	807.31
464.808	799.31
465.266	812.31
465.724	763.31
466.181	799.31
466.639	817.31
467.097	826.31
467.555	870.31
468.012	873.31
468.47	890.31
468.928	863.31
469.385	921.31
469.843	946.31
470.3	905.31
470.758	906.31
471.215	947.31
471.673	938.31
472.13	954.31
472.588	1023.31
473.045	963.31
473.503	989.31
473.96	1043.31
474.417	1018.31
474.875	1043.31
475.332	1087.31
475.789	1083.31
476.246	1108.31
476.704	1113.31
477.161	1139.31
477.618	1150.31
478.075	1174.31
478.532	1225.31
478.989	1228.31
479.446	1277.31
479.903	1309.31
480.36	1294.31
480.817	1277.31
481.274	1296.31
481.731	1341.31
482.188	1375.31
482.645	1405.31
483.102	1411.31
483.558	1450.31
484.015	1519.31
484.472	1475.31
484.929	1489.31
485.385	1448.31
485.842	1491.31
486.299	1496.31
486.755	1516.31
487.212	1486.31
487.668	1456.31
488.125	1434.31
488.582	1416.31
489.038	1450.31
489.494	1430.31
489.951	1447.31
490.407	1461.31
490.864	1399.31
491.32	1443.31
491.776	1439.31
492.233	1458.31
492.689	1459.31
493.145	1475.31
493.602	1430.31
494.058	1463.31
494.514	1495.31
494.97	1502.31
495.426	1523.31
495.882	1515.31
496.338	1544.31
496.794	1545.31
497.251	1526.31
497.707	1586.31
498.163	1574.31
498.618	1605.31
499.074	1529.31
499.53	1611.31
499.986	1621.31
500.442	1568.31
500.898	1603.31
501.354	1590.31
501.809	1634.31
502.265	1583.31
502.721	1648.31
503.177	1636.31
503.632	1665.31
504.088	1659.31
504.543	1678.31
504.999	1685.31
505.455	1687.31
505.91	1675.31
506.366	1647.31
506.821	1678.31
507.277	1646.31
507.732	1663.31
508.187	1685.31
508.643	1675.31
509.098	1719.31
509.553	1696.31
510.009	1719.31
510.464	1751.31
510.919	1781.31
511.375	1748.31
511.83	1821.31
512.285	1824.31
512.74	1878.31
513.195	1901.31
513.65	1953.31
514.105	1957.31
514.56	1996.31
515.015	1993.31
515.47	2055.31
515.925	1991.31
516.38	1959.31
516.835	1991.31
517.29	1979.31
517.745	1986.31
518.2	1952.31
518.655	1907.31
519.109	1895.31
519.564	1862.31
520.019	1843.31
520.474	1831.31
520.928	1825.31
521.383	1870.31
521.838	1810.31
522.292	1819.31
522.747	1784.31
523.201	1751.31
523.656	1748.31
524.11	1750.31
524.565	1727.31
525.019	1803.31
525.474	1737.31
525.928	1745.31
526.382	1760.31
526.837	1771.31
527.291	1775.31
527.745	1767.31
528.2	1716.31
528.654	1727.31
529.108	1731.31
529.562	1740.31
530.016	1750.31
530.47	1699.31
530.925	1747.31
531.379	1711.31
531.833	1727.31
532.287	1788.31
532.741	1752.31
533.195	1768.31
533.649	1780.31
534.103	1772.31
534.556	1757.31
535.01	1740.31
535.464	1757.31
535.918	1769.31
536.372	1728.31
536.826	1747.31
537.279	1746.31
537.733	1733.31
538.187	1722.31
538.64	1772.31
539.094	1747.31
539.548	1793.31
540.001	1763.31
540.455	1813.31
540.908	1767.31
541.362	1827.31
541.815	1873.31
542.269	1888.31
542.722	1861.31
543.175	1891.31
543.629	1913.31
544.082	1917.31
544.536	1956.31
544.989	1953.31
545.442	1971.31
545.895	1986.31
546.349	2002.31
546.802	1931.31
547.255	1998.31
547.708	1966.31
548.161	1998.31
548.614	2047.31
549.067	2016.31
549.52	1962.31
549.973	1975.31
550.426	2033.31
550.879	1972.31
551.332	1952.31
551.785	1965.31
552.238	1972.31
552.691	1994.31
553.144	2064.31
553.596	2062.31
554.049	2054.31
554.502	2140.31
554.955	2210.31
555.407	2224.31
555.86	2191.31
556.313	2173.31
556.765	2134.31
557.218	2124.31
557.67	2113.31
558.123	2099.31
558.576	2103.31
559.028	2139.31
559.48	2099.31
559.933	2111.31
560.385	2040.31
560.838	1995.31
561.29	1927.31
561.742	1861.31
562.195	1836.31
562.647	1797.31
563.099	1836.31
563.551	1812.31
564.004	1811.31
564.456	1825.31
564.908	1749.31
565.36	1755.31
565.812	1697.31
566.264	1691.31
566.716	1667.31
567.168	1623.31
567.62	1635.31
568.072	1644.31
568.524	1604.31
568.976	1615.31
569.428	1616.31
569.88	1596.31
570.332	1578.31
570.784	1612.31
571.235	1638.31
571.687	1588.31
572.139	1624.31
572.59	1649.31
573.042	1687.31
573.494	1628.31
573.945	1611.31
574.397	1613.31
574.849	1609.31
575.3	1583.31
575.752	1540.31
576.203	1543.31
576.655	1592.31
577.106	1512.31
577.557	1567.31
578.009	1568.31
578.46	1542.31
578.912	1545.31
579.363	1539.31
579.814	1543.31
580.265	1569.31
580.717	1513.31
581.168	1517.31
581.619	1577.31
582.07	1547.31
582.521	1577.31
582.972	1546.31
583.423	1526.31
583.875	1612.31
584.326	1534.31
584.777	1579.31
585.227	1596.31
585.678	1664.31
586.129	1603.31
586.58	1659.31
587.031	1691.31
587.482	1709.31
587.933	1754.31
588.384	1750.31
588.834	1727.31
589.285	1762.31
589.736	1771.31
590.186	1746.31
590.637	1703.31
591.088	1619.31
591.538	1638.31
591.989	1629.31
592.439	1635.31
592.89	1600.31
593.34	1567.31
593.791	1552.31
594.241	1597.31
594.692	1582.31
595.142	1590.31
595.593	1527.31
596.043	1557.31
596.493	1552.31
596.943	1586.31
597.394	1587.31
597.844	1623.31
598.294	1657.31
598.744	1766.31
599.195	1790.31
599.645	1908.31
600.095	2012.31
600.545	2102.31
600.995	2246.31
601.445	2293.31
601.895	2389.31
602.345	2477.31
602.795	2539.31
603.245	2386.31
603.695	2218.31
604.145	2103.31
604.594	1985.31
605.044	1884.31
605.494	1775.31
605.944	1679.31
606.393	1660.31
606.843	1599.31
607.293	1613.31
607.743	1616.31
608.192	1614.31
608.642	1554.31
609.091	1610.31
609.541	1590.31
609.99	1612.31
610.44	1588.31
610.889	1536.31
611.339	1526.31
611.788	1496.31
612.238	1486.31
612.687	1495.31
613.136	1534.31
613.586	1551.31
614.035	1527.31
614.484	1549.31
614.933	1557.31
615.383	1514.31
615.832	1480.31
616.281	1456.31
616.73	1454.31
617.179	1386.31
617.628	1411.31
618.077	1358.31
618.526	1339.31
618.975	1340.31
619.424	1292.31
619.873	1309.31
620.322	1321.31
620.771	1274.31
621.22	1269.31
621.669	1274.31
622.118	1227.31
622.567	1211.31
623.015	1196.31
623.464	1216.31
623.913	1178.31
624.361	1175.31
624.81	1186.31
625.259	1190.31
625.707	1157.31
626.156	1188.31
626.604	1210.31
627.053	1240.31
627.501	1216.31
627.95	1219.31
628.398	1245.31
628.847	1260.31
629.295	1191.31
629.744	1211.31
630.192	1208.31
630.64	1201.31
631.089	1152.31
631.537	1121.31
631.985	1117.31
632.433	1118.31
632.881	1081.31
633.33	1057.31
633.778	1079.31
634.226	1100.31
634.674	1067.31
635.122	1136.31
635.57	1112.31
636.018	1160.31
636.466	1133.31
636.914	1136.31
637.362	1144.31
637.81	1157.31
638.258	1229.31
638.705	1190.31
639.153	1281.31
639.601	1285.31
640.049	1275.31
640.497	1353.31
640.944	1360.31
641.392	1328.31
641.84	1243.31
642.287	1137.31
642.735	1076.31
643.182	1059.31
643.63	1071.31
644.078	1066.31
644.525	1077.31
644.973	1038.31
645.42	1037.31
645.867	1062.31
646.315	1068.31
646.762	1092.31
647.21	1064.31
647.657	1090.31
648.104	1058.31
648.551	1030.31
648.999	1071.31
649.446	1020.31
649.893	988.31
650.34	1008.31
650.787	1055.31
651.234	1069.31
651.682	1191.31
652.129	1256.31
652.576	1394.31
653.023	1648.31
653.47	1805.31
653.917	1881.31
654.363	1907.31
654.81	2021.31
655.257	2082.31
655.704	1754.31
656.151	1354.31
656.598	1179.31
657.044	1080.31
657.491	1037.31
657.938	1037.31
658.385	1012.31
658.831	982.31
659.278	996.31
659.724	989.31
660.171	989.31
660.618	956.31
661.064	940.31
661.511	931.31
661.957	934.31
662.404	931.31
662.85	951.31
663.296	973.31
663.743	958.31
664.189	944.31
664.635	973.31
665.082	950.31
665.528	935.31
665.974	929.31
666.42	895.31
666.867	919.31
667.313	875.31
667.759	858.31
668.205	857.31
668.651	875.31
669.097	862.31
669.543	902.31
669.989	881.31
670.435	901.31
670.881	913.31
671.327	951.31
671.773	978.31
672.219	1075.31
672.665	1159.31
673.11	1175.31
673.556	1216.31
674.002	1297.31
674.448	1325.31
674.893	1164.31
675.339	1002.31
675.785	901.31
676.23	845.31
676.676	830.31
677.122	823.31
677.567	789.31
678.013	778.31
678.458	775.31
678.904	748.31
679.349	761.31
679.794	747.31
680.24	735.31
680.685	737.31
681.131	744.31
681.576	769.31
682.021	767.31
682.466	761.31
682.912	761.31
683.357	775.31
683.802	843.31
684.247	913.31
684.692	1000.31
685.137	1078.31
685.583	1085.31
686.028	1141.31
686.473	1107.31
686.918	1002.31
687.363	893.31
687.807	848.31
688.252	806.31
688.697	753.31
689.142	764.31
689.587	727.31
690.032	730.31
690.477	769.31
690.921	813.31
691.366	862.31
691.811	883.31
692.255	945.31
692.7	1057.31
693.145	1400.31
693.589	2204.31
694.034	2915.31
694.478	3208.31
694.923	3049.31
695.367	3735.31
695.812	3346.31
696.256	1312.31
696.701	829.31
697.145	789.31
697.59	713.31
698.034	707.31
698.478	711.31
698.922	712.31
699.367	732.31
699.811	753.31
700.255	779.31
700.699	821.31
701.143	954.31
701.588	1017.31
702.032	1076.31
702.476	1105.31
702.92	1128.31
703.364	1271.31
703.808	1951.31
704.252	2782.31
704.696	3147.31
705.14	2895.31
705.584	3660.31
706.027	2915.31
706.471	1342.31
706.915	906.31
707.359	765.31
707.803	725.31
708.246	682.31
708.69	688.31
709.134	677.31
709.577	693.31
710.021	682.31
710.465	675.31
710.908	692.31
711.352	720.31
711.795	763.31
712.239	841.31
712.682	850.31
713.126	831.31
713.569	917.31
714.012	862.31
714.456	692.31
714.899	665.31
715.342	635.31
715.786	608.31
716.229	578.31
716.672	578.31
717.115	561.31
717.558	555.31
718.002	611.31
718.445	584.31
718.888	657.31
719.331	641.31
719.774	653.31
720.217	663.31
720.66	631.31
721.103	596.31
721.546	565.31
721.989	549.31
722.432	550.31
722.874	544.31
723.317	538.31
723.76	566.31
724.203	643.31
724.645	843.31
725.088	1079.31
725.531	1115.31
725.974	1129.31
726.416	1206.31
726.859	775.31
727.301	589.31
727.744	539.31
728.187	541.31
728.629	559.31
729.071	565.31
729.514	601.31
729.956	611.31
730.399	644.31
730.841	622.31
731.283	624.31
731.726	587.31
732.168	579.31
732.61	617.31
733.053	677.31
733.495	732.31
733.937	818.31
734.379	895.31
734.821	1133.31
735.263	1533.31
735.705	2631.31
736.148	4469.31
736.59	5232.31
737.032	4848.31
737.474	5257.31
737.916	2433.31
738.357	1124.31
738.799	787.31
739.241	695.31
739.683	687.31
740.125	713.31
740.567	695.31
741.008	715.31
741.45	761.31
741.892	777.31
742.334	821.31
742.775	795.31
743.217	821.31
743.658	698.31
744.1	660.31
744.542	741.31
744.983	771.31
745.425	783.31
745.866	829.31
746.307	734.31
746.749	687.31
747.19	896.31
747.632	1530.31
748.073	2977.31
748.514	4696.31
748.956	5794.31
749.397	7858.31
749.838	6324.31
750.279	5118.31
750.72	3758.31
751.162	1641.31
751.603	835.31
752.044	624.31
752.485	541.31
752.926	521.31
753.367	461.31
753.808	447.31
754.249	462.31
754.69	465.31
755.131	457.31
755.572	476.31
756.013	455.31
756.453	465.31
756.894	444.31
757.335	469.31
757.776	463.31
758.216	451.31
758.657	510.31
759.098	544.31
759.538	611.31
759.979	739.31
760.42	1218.31
760.86	2839.31
761.301	6976.31
761.741	10371.31
762.182	10687.31
762.622	9963.31
763.063	4334.31
763.503	1697.31
763.943	871.31
764.384	661.31
764.824	577.31
765.264	518.31
765.705	509.31
766.145	493.31
766.585	432.31
767.025	420.31
767.465	407.31
767.906	436.31
768.346	461.31
768.786	485.31
769.226	607.31
769.666	1034.31
770.106	2318.31
770.546	4189.31
770.986	4524.31
771.426	4375.31
771.866	2333.31
772.306	1057.31
772.745	580.31
773.185	435.31
773.625	422.31
774.065	444.31
774.505	500.31
774.944	708.31
775.384	1143.31
775.824	1329.31
776.263	1245.31
776.703	891.31
777.142	542.31
777.582	391.31
778.021	331.31
778.461	323.31
778.9	325.31
779.34	343.31
779.779	325.31
780.219	325.31
780.658	318.31
781.097	279.31
781.537	296.31
781.976	289.31
782.415	298.31
782.855	295.31
783.294	286.31
783.733	287.31
784.172	278.31
784.611	287.31
785.05	306.31
785.489	288.31
785.928	303.31
786.367	323.31
786.806	351.31
787.245	332.31
787.684	359.31
788.123	373.31
788.562	352.31
789.001	342.31
789.44	341.31
789.879	333.31
790.317	328.31
790.756	334.31
791.195	362.31
791.634	417.31
792.072	636.31
792.511	1370.31
792.95	3087.31
793.388	3893.31
793.827	3438.31
794.265	1879.31
794.704	928.31
795.142	535.31
795.581	406.31
796.019	361.31
796.458	350.31
796.896	351.31
797.334	361.31
797.773	441.31
798.211	700.31
798.649	1485.31
799.087	2459.31
799.526	3829.31
799.964	4363.31
800.402	3586.31
800.84	1991.31
801.278	991.31
801.716	576.31
802.154	435.31
802.592	399.31
803.03	371.31
803.468	389.31
803.906	385.31
804.344	391.31
804.782	368.31
805.22	365.31
805.658	392.31
806.096	391.31
806.533	435.31
806.971	500.31
807.409	623.31
807.847	1067.31
808.284	2533.31
808.722	5086.31
809.16	7135.31
809.597	9760.31
810.035	12650.31
810.472	10664.31
810.91	5756.31
811.347	2691.31
811.785	1223.31
812.222	709.31
812.66	524.31
813.097	469.31
813.535	415.31
813.972	359.31
814.409	322.31
814.846	310.31
815.284	317.31
815.721	321.31
816.158	296.31
816.595	378.31
817.032	439.31
817.47	465.31
817.907	396.31
818.344	352.31
818.781	328.31
819.218	346.31
819.655	426.31
820.092	553.31
820.529	588.31
820.966	516.31
821.403	412.31
821.839	331.31
822.276	322.31
822.713	373.31
823.15	407.31
823.587	387.31
824.023	526.31
824.46	1122.31
824.897	2219.31
825.333	2286.31
825.77	1311.31
826.206	772.31
826.643	461.31
827.08	319.31
827.516	302.31
827.953	271.31
828.389	233.31
828.825	251.31
829.262	233.31
829.698	218.31
830.135	212.31
830.571	211.31
831.007	211.31
831.443	223.31
831.88	211.31
832.316	216.31
832.752	206.31
833.188	227.31
833.624	229.31
834.06	219.31
834.497	229.31
834.933	259.31
835.369	245.31
835.805	258.31
836.241	244.31
836.677	288.31
837.112	279.31
837.548	347.31
837.984	417.31
838.42	701.31
838.856	1832.31
839.292	3941.31
839.727	4304.31
840.163	2714.31
840.599	3307.31
841.034	4907.31
841.47	3776.31
841.906	2059.31
842.341	1097.31
842.777	664.31
843.212	613.31
843.648	503.31
844.083	353.31
844.519	271.31
844.954	219.31
845.39	247.31
845.825	234.31
846.261	205.31
846.696	186.31
847.131	222.31
847.566	178.31
848.002	193.31
848.437	205.31
848.872	203.31
849.307	239.31
849.742	316.31
850.177	680.31
850.613	1465.31
851.048	1621.31
851.483	874.31
851.918	541.31
852.353	303.31
852.788	205.31
853.223	193.31
853.657	179.31
854.092	167.31
854.527	174.31
854.962	183.31
855.397	195.31
855.832	196.31
856.266	167.31
856.701	167.31
857.136	161.31
857.57	192.31
858.005	219.31
858.44	231.31
858.874	188.31
859.309	195.31
859.743	180.31
860.178	178.31
860.612	201.31
861.047	197.31
861.481	255.31
861.915	260.31
862.35	211.31
862.784	190.31
863.218	171.31
863.653	175.31
864.087	173.31
864.521	200.31
864.955	257.31
865.39	450.31
865.824	405.31
866.258	419.31
866.692	527.31
867.126	519.31
867.56	392.31
867.994	274.31
868.428	215.31
868.862	220.31
869.296	218.31
869.73	222.31
870.164	221.31
870.598	204.31
871.031	183.31
871.465	172.31
871.899	141.31
872.333	159.31
872.766	131.31
873.2	129.31
873.634	139.31
874.067	143.31
874.501	154.31
874.935	127.31
875.368	163.31
875.802	142.31
876.235	157.31
876.669	130.31
877.102	147.31
877.535	148.31
877.969	126.31
878.402	136.31
878.836	138.31
879.269	124.31
879.702	131.31
880.135	120.31
880.569	137.31
881.002	115.31
881.435	127.31
881.868	145.31
882.301	130.31
882.734	125.31
883.167	118.31
883.601	126.31
884.034	118.31
884.467	143.31
884.899	119.31
885.332	116.31
885.765	110.31
886.198	134.31
886.631	124.31
887.064	118.31
887.497	132.31
887.929	123.31
888.362	124.31
888.795	114.31
889.228	119.31
889.66	111.31
890.093	116.31
890.526	131.31
890.958	126.31
891.391	116.31
891.823	119.31
892.256	104.31
892.688	120.31
893.121	110.31
893.553	119.31
893.985	109.31
894.418	116.31
894.85	121.31
895.282	129.31
895.715	119.31
896.147	125.31
896.579	128.31
897.011	128.31
897.444	122.31
897.876	112.31
898.308	104.31
898.74	120.31
899.172	123.31
899.604	107.31
900.036	114.31
900.468	108.31
900.9	127.31
901.332	130.31
901.764	138.31
902.196	141.31
902.628	115.31
903.06	149.31
903.491	170.31
903.923	151.31
904.355	160.31
904.787	141.31
905.218	125.31
905.65	134.31
906.082	127.31
906.513	132.31
906.945	127.31
907.376	139.31
907.808	128.31
908.239	119.31
908.671	137.31
909.102	128.31
909.534	137.31
909.965	189.31
910.397	362.31
910.828	872.31
911.259	965.31
911.691	621.31
912.122	427.31
912.553	262.31
912.984	162.31
913.415	132.31
913.847	145.31
914.278	152.31
914.709	133.31
915.14	125.31
915.571	126.31
916.002	133.31
916.433	133.31
916.864	119.31
917.295	128.31
917.726	104.31
918.157	139.31
918.587	136.31
919.018	144.31
919.449	134.31
919.88	143.31
920.311	154.31
920.741	250.31
921.172	506.31
921.603	364.31
922.033	284.31
922.464	211.31
922.895	143.31
923.325	133.31
923.756	132.31
924.186	133.31
924.617	145.31
925.047	153.31
925.478	175.31
925.908	153.31
926.338	143.31
926.769	127.31
927.199	123.31
927.629	111.31
928.06	119.31
928.49	101.31
928.92	111.31
929.35	109.31
929.78	94.31
930.21	99.31
930.641	108.31
931.071	107.31
931.501	105.31
931.931	110.31
932.361	103.31
932.791	98.31
933.221	120.31
933.651	103.31
934.08	148.31
934.51	119.31
934.94	111.31
935.37	101.31
935.8	110.31
936.229	98.31
936.659	103.31
937.089	111.31
937.519	131.31
937.948	119.31
938.378	125.31
938.807	108.31
939.237	97.31
939.666	107.31
940.096	102.31
940.525	103.31
940.955	96.31
941.384	76.31
941.814	92.31
942.243	91.31
942.672	107.31
943.102	81.31
943.531	93.31
943.96	87.31
944.39	112.31
944.819	116.31
945.248	85.31
945.677	99.31
946.106	89.31
946.535	100.31
946.964	98.31
947.393	93.31
947.822	87.31
948.251	103.31
948.68	95.31
949.109	85.31
949.538	90.31
949.967	88.31
950.396	99.31
950.825	87.31
951.254	98.31
951.682	80.31
952.111	95.31
952.54	91.31
952.969	93.31
953.397	84.31
953.826	103.31
954.254	92.31
954.683	99.31
955.112	79.31
955.54	111.31
955.969	85.31
956.397	100.31
956.826	96.31
957.254	111.31
957.682	112.31
958.111	75.31
958.539	86.31
958.967	85.31
959.396	91.31
959.824	86.31
960.252	78.31
960.68	73.31
961.109	89.31
961.537	93.31
961.965	87.31
962.393	93.31
962.821	87.31
963.249	78.31
963.677	92.31
964.105	115.31
964.533	200.31
964.961	156.31
965.389	146.31
965.817	122.31
966.245	118.31
966.672	94.31
967.1	90.31
967.528	99.31
967.956	80.31
968.383	96.31
968.811	95.31
969.239	78.31
969.666	97.31
970.094	95.31
970.522	87.31
970.949	88.31
971.377	96.31
971.804	94.31
972.232	73.31
972.659	83.31
973.087	84.31
973.514	95.31
973.941	96.31
974.369	89.31
974.796	74.31
975.223	83.31
975.651	82.31
976.078	89.31
976.505	93.31
976.932	95.31
977.359	124.31
977.786	105.31
978.214	99.31
978.641	100.31
979.068	82.31
979.495	92.31
979.922	87.31
980.349	70.31
980.776	85.31
981.202	81.31
981.629	91.31
982.056	78.31
982.483	84.31
982.91	87.31
983.337	93.31
983.763	86.31
984.19	87.31
984.617	87.31
985.043	85.31
985.47	85.31
985.897	97.31
986.323	92.31
986.75	83.31
987.176	85.31
987.603	88.31
988.029	83.31
988.456	97.31
988.882	101.31
989.308	82.31
989.735	85.31
990.161	103.31
990.587	104.31
991.014	84.31
991.44	100.31
991.866	94.31
992.292	93.31
992.719	79.31
993.145	84.31
993.571	99.31
993.997	95.31
994.423	90.31
994.849	79.31
995.275	78.31
995.701	87.31
996.127	99.31
996.553	90.31
996.979	75.31
997.405	85.31
997.83	83.31
998.256	80.31
998.682	73.31
999.108	86.31
999.534	89.31
999.959	89.31
1000.385	97.31
1000.811	76.31
1001.236	89.31
1001.662	92.31
1002.087	66.31
1002.513	77.31
1002.938	103.31
1003.364	86.31
1003.789	94.31
1004.215	84.31
1004.64	94.31
1005.066	91.31
1005.491	78.31
1005.916	74.31
1006.342	93.31
1006.767	91.31
1007.192	76.31
1007.617	92.31
1008.042	79.31
1008.468	85.31
1008.893	72.31
1009.318	94.31
1009.743	102.31
1010.168	104.31
1010.593	81.31
1011.018	100.31
1011.443	103.31
1011.868	87.31
1012.293	114.31
1012.718	82.31
1013.143	97.31
1013.567	97.31
1013.992	91.31
1014.417	75.31
1014.842	87.31
1015.267	83.31
1015.691	93.31
1016.116	76.31
1016.541	85.31
1016.965	77.31
1017.39	95.31
1017.814	73.31
1018.239	106.31
1018.663	84.31
1019.088	64.31
1019.512	95.31
1019.937	76.31
1020.361	77.31
1020.785	97.31
1021.21	92.31
1021.634	63.31
1022.058	74.31
1022.483	74.31
1022.907	77.31
1023.331	94.31
1023.755	80.31
1024.179	76.31
1024.604	79.31
1025.028	95.31
1025.452	83.31
1025.876	109.31
1026.3	94.31
1026.724	91.31
1027.148	88.31
1027.572	83.31
1027.996	82.31
1028.42	63.31
1028.843	92.31
1029.267	75.31
1029.691	89.31
1030.115	85.31
1030.539	79.31
1030.962	87.31
1031.386	71.31
1031.81	92.31
1032.233	98.31
1032.657	104.31
1033.08	87.31
1033.504	92.31
1033.927	80.31
1034.351	80.31
1034.774	95.31
1035.198	78.31
1035.621	79.31
1036.045	78.31
1036.468	103.31
1036.891	76.31
1037.315	75.31
1037.738	94.31
1038.161	89.31
1038.584	81.31
1039.008	72.31
1039.431	83.31
1039.854	90.31
1040.277	91.31
1040.7	91.31
1041.123	97.31
1041.546	64.31
1041.969	73.31
1042.392	78.31
1042.815	80.31
1043.238	70.31
1043.661	76.31
1044.084	79.31
1044.507	88.31
1044.93	93.31
1045.352	83.31
1045.775	66.31
1046.198	79.31
1046.621	79.31
1047.043	81.31
1047.466	92.31
1047.889	83.31
1048.311	79.31
1048.734	89.31
1049.156	88.31
1049.579	83.31
1050.001	89.31
1050.424	83.31
1050.846	84.31
1051.269	84.31
1051.691	83.31
1052.113	67.31
1052.536	81.31
1052.958	72.31
1053.38	75.31
1053.802	65.31
1054.225	80.31
1054.647	70.31
1055.069	75.31
1055.491	78.31
1055.913	96.31
1056.335	85.31
1056.757	80.31
1057.179	89.31
1057.601	76.31
1058.023	88.31
1058.445	61.31
1058.867	80.31
1059.289	74.31
1059.711	81.31
1060.133	84.31
1060.555	97.31
1060.976	73.31
1061.398	63.31
1061.82	98.31
1062.241	84.31
1062.663	88.31
1063.085	87.31
1063.506	64.31
1063.928	76.31
1064.35	90.31
1064.771	88.31
1065.193	77.31
1065.614	67.31
1066.035	69.31
1066.457	75.31
1066.878	85.31
1067.3	75.31
1067.721	91.31
1068.142	93.31
1068.564	91.31
1068.985	80.31
1069.406	99.31
1069.827	92.31
1070.248	102.31
1070.67	95.31
1071.091	94.31
1071.512	95.31
1071.933	65.31
1072.354	81.31
1072.775	68.31
1073.196	76.31
1073.617	96.31
1074.038	88.31
1074.459	65.31
1074.88	77.31
1075.3	79.31
1075.721	87.31
1076.142	84.31
1076.563	77.31
1076.983	81.31
1077.404	83.31
1077.825	88.31
1078.246	78.31
1078.666	76.31
1079.087	81.31
1079.507	93.31
1079.928	77.31
1080.348	67.31
1080.769	75.31
1081.189	79.31
1081.61	80.31
1082.03	90.31
1082.451	72.31
1082.871	88.31
1083.291	75.31
1083.711	83.31
1084.132	93.31
1084.552	81.31
1084.972	84.31
1085.392	80.31
1085.813	78.31
1086.233	84.31
1086.653	89.31
1087.073	76.31
1087.493	96.31
1087.913	92.31
1088.333	79.31
1088.753	71.31
1089.173	77.31
1089.593	78.31
1090.013	79.31
1090.433	83.31
1090.852	82.31
1091.272	88.31
1091.692	85.31
1092.112	68.31
1092.531	88.31
1092.951	93.31
1093.371	99.31
1093.79	82.31
1094.21	75.31
1094.63	91.31
1095.049	69.31
1095.469	78.31
1095.888	81.31
1096.308	89.31
1096.727	85.31
1097.146	76.31
1097.566	83.31
1097.985	91.31
1098.405	75.31
1098.824	82.31
1099.243	79.31
1099.662	74.31
1100.082	77.31
1100.501	89.31
1100.92	75.31
1101.339	73.31
1101.758	78.31
