Data from 20170802-ORNL-NYSim-Air_HRD10391_10-36-00-562.txt Node
Date: Wed Aug 02 10:36:00 EDT 2017
User: Ender
Spectrometer: HR+D1039
Trigger mode: 0
Integration Time (sec): 3.750000E-3
Scans to average: 1
Electric dark correction enabled: true
Nonlinearity correction enabled: false
Boxcar width: 0
XAxis mode: Wavelengths
Number of Pixels in Spectrum: 2048
>>>>>Begin Spectral Data<<<<<
187.836	6.19
188.309	6.19
188.782	6.19
189.255	0.19
189.728	-11.81
190.201	-4.81
190.674	-5.81
191.147	-1.81
191.619	2.19
192.092	-15.81
192.565	-1.81
193.038	-3.81
193.511	0.19
193.984	7.19
194.456	5.19
194.929	-1.81
195.402	25.19
195.874	1.19
196.347	30.19
196.82	35.19
197.292	17.19
197.765	18.19
198.237	30.19
198.71	36.19
199.182	36.19
199.655	45.19
200.127	58.19
200.6	57.19
201.072	58.19
201.544	68.19
202.017	66.19
202.489	63.19
202.961	73.19
203.433	68.19
203.906	69.19
204.378	64.19
204.85	74.19
205.322	76.19
205.794	86.19
206.266	81.19
206.739	81.19
207.211	76.19
207.683	85.19
208.155	79.19
208.627	84.19
209.099	89.19
209.57	71.19
210.042	68.19
210.514	79.19
210.986	60.19
211.458	76.19
211.93	73.19
212.402	88.19
212.873	91.19
213.345	76.19
213.817	85.19
214.288	86.19
214.76	89.19
215.232	62.19
215.703	97.19
216.175	80.19
216.646	74.19
217.118	88.19
217.589	80.19
218.061	82.19
218.532	88.19
219.004	101.19
219.475	86.19
219.946	78.19
220.418	88.19
220.889	76.19
221.36	75.19
221.832	60.19
222.303	87.19
222.774	83.19
223.245	77.19
223.717	71.19
224.188	64.19
224.659	65.19
225.13	63.19
225.601	70.19
226.072	68.19
226.543	80.19
227.014	79.19
227.485	80.19
227.956	79.19
228.427	58.19
228.898	72.19
229.369	85.19
229.839	97.19
230.31	95.19
230.781	89.19
231.252	80.19
231.722	92.19
232.193	70.19
232.664	84.19
233.135	87.19
233.605	66.19
234.076	78.19
234.546	80.19
235.017	88.19
235.487	79.19
235.958	80.19
236.428	87.19
236.899	86.19
237.369	96.19
237.84	91.19
238.31	82.19
238.78	72.19
239.251	70.19
239.721	93.19
240.191	73.19
240.662	102.19
241.132	98.19
241.602	77.19
242.072	97.19
242.542	89.19
243.013	91.19
243.483	90.19
243.953	86.19
244.423	78.19
244.893	96.19
245.363	94.19
245.833	96.19
246.303	76.19
246.773	92.19
247.243	103.19
247.712	98.19
248.182	86.19
248.652	79.19
249.122	96.19
249.592	72.19
250.061	76.19
250.531	92.19
251.001	93.19
251.471	85.19
251.94	80.19
252.41	77.19
252.879	78.19
253.349	116.19
253.818	94.19
254.288	100.19
254.757	96.19
255.227	97.19
255.696	84.19
256.166	83.19
256.635	93.19
257.105	94.19
257.574	90.19
258.043	102.19
258.513	87.19
258.982	103.19
259.451	102.19
259.92	85.19
260.389	94.19
260.859	94.19
261.328	80.19
261.797	104.19
262.266	102.19
262.735	88.19
263.204	88.19
263.673	97.19
264.142	106.19
264.611	105.19
265.08	99.19
265.549	113.19
266.018	89.19
266.487	100.19
266.955	98.19
267.424	101.19
267.893	116.19
268.362	119.19
268.83	112.19
269.299	97.19
269.768	99.19
270.236	110.19
270.705	100.19
271.174	103.19
271.642	109.19
272.111	106.19
272.579	105.19
273.048	107.19
273.516	100.19
273.985	103.19
274.453	110.19
274.922	120.19
275.39	98.19
275.858	104.19
276.327	107.19
276.795	118.19
277.263	104.19
277.731	111.19
278.2	118.19
278.668	109.19
279.136	106.19
279.604	108.19
280.072	114.19
280.54	110.19
281.008	109.19
281.477	117.19
281.945	101.19
282.413	127.19
282.881	120.19
283.348	130.19
283.816	124.19
284.284	126.19
284.752	127.19
285.22	114.19
285.688	120.19
286.156	132.19
286.623	136.19
287.091	133.19
287.559	116.19
288.026	124.19
288.494	102.19
288.962	112.19
289.429	114.19
289.897	128.19
290.364	126.19
290.832	131.19
291.3	122.19
291.767	128.19
292.234	127.19
292.702	130.19
293.169	126.19
293.637	138.19
294.104	131.19
294.571	130.19
295.039	119.19
295.506	143.19
295.973	113.19
296.44	135.19
296.908	124.19
297.375	141.19
297.842	149.19
298.309	134.19
298.776	131.19
299.243	133.19
299.71	135.19
300.177	130.19
300.644	137.19
301.111	144.19
301.578	139.19
302.045	135.19
302.512	136.19
302.979	155.19
303.446	146.19
303.913	154.19
304.379	160.19
304.846	143.19
305.313	161.19
305.78	142.19
306.246	152.19
306.713	162.19
307.18	147.19
307.646	147.19
308.113	159.19
308.579	152.19
309.046	148.19
309.512	144.19
309.979	145.19
310.445	143.19
310.912	155.19
311.378	160.19
311.845	187.19
312.311	149.19
312.777	135.19
313.244	171.19
313.71	167.19
314.176	159.19
314.642	150.19
315.109	173.19
315.575	172.19
316.041	165.19
316.507	175.19
316.973	174.19
317.439	150.19
317.905	155.19
318.371	167.19
318.837	172.19
319.303	181.19
319.769	175.19
320.235	166.19
320.701	171.19
321.167	166.19
321.633	179.19
322.099	178.19
322.564	194.19
323.03	187.19
323.496	195.19
323.962	197.19
324.427	193.19
324.893	182.19
325.359	182.19
325.824	191.19
326.29	180.19
326.755	199.19
327.221	189.19
327.686	185.19
328.152	194.19
328.617	195.19
329.083	189.19
329.548	189.19
330.014	189.19
330.479	200.19
330.944	201.19
331.41	219.19
331.875	205.19
332.34	194.19
332.805	214.19
333.271	214.19
333.736	202.19
334.201	202.19
334.666	208.19
335.131	206.19
335.596	207.19
336.061	204.19
336.526	189.19
336.991	201.19
337.456	193.19
337.921	216.19
338.386	216.19
338.851	219.19
339.316	202.19
339.781	204.19
340.246	205.19
340.711	230.19
341.175	213.19
341.64	215.19
342.105	219.19
342.569	236.19
343.034	207.19
343.499	220.19
343.963	222.19
344.428	256.19
344.893	219.19
345.357	227.19
345.822	237.19
346.286	224.19
346.751	254.19
347.215	244.19
347.679	257.19
348.144	246.19
348.608	263.19
349.073	264.19
349.537	252.19
350.001	250.19
350.465	276.19
350.93	234.19
351.394	275.19
351.858	288.19
352.322	282.19
352.786	262.19
353.25	250.19
353.715	271.19
354.179	285.19
354.643	290.19
355.107	306.19
355.571	301.19
356.035	282.19
356.498	272.19
356.962	306.19
357.426	294.19
357.89	276.19
358.354	266.19
358.818	270.19
359.281	280.19
359.745	278.19
360.209	306.19
360.673	293.19
361.136	264.19
361.6	295.19
362.064	287.19
362.527	295.19
362.991	279.19
363.454	314.19
363.918	282.19
364.381	302.19
364.845	296.19
365.308	297.19
365.772	313.19
366.235	292.19
366.698	316.19
367.162	282.19
367.625	299.19
368.088	295.19
368.552	297.19
369.015	316.19
369.478	325.19
369.941	321.19
370.404	321.19
370.867	315.19
371.331	327.19
371.794	317.19
372.257	351.19
372.72	310.19
373.183	330.19
373.646	336.19
374.109	320.19
374.572	352.19
375.035	320.19
375.497	344.19
375.96	354.19
376.423	338.19
376.886	358.19
377.349	341.19
377.811	340.19
378.274	356.19
378.737	358.19
379.199	349.19
379.662	344.19
380.125	349.19
380.587	383.19
381.05	376.19
381.512	382.19
381.975	382.19
382.437	387.19
382.9	416.19
383.362	392.19
383.825	378.19
384.287	397.19
384.75	398.19
385.212	380.19
385.674	383.19
386.136	399.19
386.599	418.19
387.061	402.19
387.523	379.19
387.985	389.19
388.447	406.19
388.91	422.19
389.372	400.19
389.834	415.19
390.296	389.19
390.758	408.19
391.22	411.19
391.682	401.19
392.144	414.19
392.606	410.19
393.068	404.19
393.529	437.19
393.991	458.19
394.453	436.19
394.915	448.19
395.377	417.19
395.838	414.19
396.3	412.19
396.762	409.19
397.224	414.19
397.685	441.19
398.147	449.19
398.608	451.19
399.07	430.19
399.531	464.19
399.993	455.19
400.454	481.19
400.916	491.19
401.377	463.19
401.839	450.19
402.3	466.19
402.762	484.19
403.223	510.19
403.684	512.19
404.145	505.19
404.607	487.19
405.068	462.19
405.529	457.19
405.99	465.19
406.451	489.19
406.913	486.19
407.374	487.19
407.835	448.19
408.296	480.19
408.757	487.19
409.218	514.19
409.679	535.19
410.14	519.19
410.601	526.19
411.062	548.19
411.522	533.19
411.983	537.19
412.444	572.19
412.905	585.19
413.366	612.19
413.826	614.19
414.287	674.19
414.748	853.19
415.208	850.19
415.669	754.19
416.13	650.19
416.59	656.19
417.051	662.19
417.511	715.19
417.972	731.19
418.432	786.19
418.893	886.19
419.353	850.19
419.814	671.19
420.274	585.19
420.734	608.19
421.195	576.19
421.655	599.19
422.115	625.19
422.576	586.19
423.036	596.19
423.496	605.19
423.956	638.19
424.416	701.19
424.876	766.19
425.336	776.19
425.797	712.19
426.257	717.19
426.717	671.19
427.177	612.19
427.637	606.19
428.097	638.19
428.556	641.19
429.016	672.19
429.476	664.19
429.936	649.19
430.396	639.19
430.856	636.19
431.315	661.19
431.775	707.19
432.235	753.19
432.694	742.19
433.154	698.19
433.614	680.19
434.073	689.19
434.533	620.19
434.993	630.19
435.452	650.19
435.912	634.19
436.371	643.19
436.83	638.19
437.29	633.19
437.749	636.19
438.209	640.19
438.668	637.19
439.127	676.19
439.587	681.19
440.046	652.19
440.505	672.19
440.964	669.19
441.424	665.19
441.883	748.19
442.342	696.19
442.801	685.19
443.26	644.19
443.719	647.19
444.178	648.19
444.637	655.19
445.096	684.19
445.555	680.19
446.014	693.19
446.473	680.19
446.932	687.19
447.391	692.19
447.849	724.19
448.308	712.19
448.767	702.19
449.226	725.19
449.685	723.19
450.143	750.19
450.602	758.19
451.061	727.19
451.519	678.19
451.978	729.19
452.436	713.19
452.895	719.19
453.353	717.19
453.812	679.19
454.27	725.19
454.729	723.19
455.187	694.19
455.646	684.19
456.104	707.19
456.562	745.19
457.021	722.19
457.479	715.19
457.937	713.19
458.395	746.19
458.854	733.19
459.312	743.19
459.77	709.19
460.228	727.19
460.686	756.19
461.144	746.19
461.602	770.19
462.06	735.19
462.518	774.19
462.976	745.19
463.434	740.19
463.892	800.19
464.35	799.19
464.808	798.19
465.266	798.19
465.724	799.19
466.181	826.19
466.639	812.19
467.097	855.19
467.555	899.19
468.012	868.19
468.47	867.19
468.928	897.19
469.385	894.19
469.843	933.19
470.3	928.19
470.758	928.19
471.215	950.19
471.673	1002.19
472.13	1005.19
472.588	992.19
473.045	1020.19
473.503	1024.19
473.96	1068.19
474.417	1067.19
474.875	1062.19
475.332	1111.19
475.789	1098.19
476.246	1143.19
476.704	1163.19
477.161	1165.19
477.618	1205.19
478.075	1181.19
478.532	1255.19
478.989	1251.19
479.446	1319.19
479.903	1272.19
480.36	1323.19
480.817	1329.19
481.274	1338.19
481.731	1378.19
482.188	1414.19
482.645	1411.19
483.102	1428.19
483.558	1478.19
484.015	1510.19
484.472	1478.19
484.929	1530.19
485.385	1532.19
485.842	1478.19
486.299	1525.19
486.755	1505.19
487.212	1498.19
487.668	1499.19
488.125	1494.19
488.582	1421.19
489.038	1464.19
489.494	1474.19
489.951	1485.19
490.407	1484.19
490.864	1471.19
491.32	1484.19
491.776	1468.19
492.233	1511.19
492.689	1526.19
493.145	1458.19
493.602	1494.19
494.058	1508.19
494.514	1520.19
494.97	1527.19
495.426	1538.19
495.882	1538.19
496.338	1598.19
496.794	1558.19
497.251	1602.19
497.707	1555.19
498.163	1613.19
498.618	1653.19
499.074	1575.19
499.53	1624.19
499.986	1640.19
500.442	1612.19
500.898	1617.19
501.354	1608.19
501.809	1640.19
502.265	1613.19
502.721	1626.19
503.177	1631.19
503.632	1643.19
504.088	1627.19
504.543	1676.19
504.999	1713.19
505.455	1726.19
505.91	1644.19
506.366	1649.19
506.821	1734.19
507.277	1708.19
507.732	1695.19
508.187	1693.19
508.643	1715.19
509.098	1674.19
509.553	1738.19
510.009	1738.19
510.464	1754.19
510.919	1812.19
511.375	1798.19
511.83	1829.19
512.285	1841.19
512.74	1905.19
513.195	1958.19
513.65	1961.19
514.105	1917.19
514.56	1989.19
515.015	2001.19
515.47	2045.19
515.925	2020.19
516.38	1997.19
516.835	2046.19
517.29	1980.19
517.745	2019.19
518.2	1981.19
518.655	1955.19
519.109	1942.19
519.564	1893.19
520.019	1937.19
520.474	1838.19
520.928	1851.19
521.383	1891.19
521.838	1830.19
522.292	1830.19
522.747	1813.19
523.201	1850.19
523.656	1772.19
524.11	1780.19
524.565	1750.19
525.019	1756.19
525.474	1790.19
525.928	1784.19
526.382	1757.19
526.837	1768.19
527.291	1793.19
527.745	1813.19
528.2	1778.19
528.654	1742.19
529.108	1734.19
529.562	1785.19
530.016	1756.19
530.47	1758.19
530.925	1776.19
531.379	1744.19
531.833	1768.19
532.287	1771.19
532.741	1752.19
533.195	1742.19
533.649	1754.19
534.103	1754.19
534.556	1770.19
535.01	1775.19
535.464	1753.19
535.918	1746.19
536.372	1777.19
536.826	1795.19
537.279	1794.19
537.733	1773.19
538.187	1794.19
538.64	1739.19
539.094	1796.19
539.548	1830.19
540.001	1805.19
540.455	1823.19
540.908	1841.19
541.362	1841.19
541.815	1835.19
542.269	1889.19
542.722	1926.19
543.175	1900.19
543.629	1890.19
544.082	1963.19
544.536	1938.19
544.989	1908.19
545.442	1965.19
545.895	1976.19
546.349	1932.19
546.802	1978.19
547.255	1998.19
547.708	1997.19
548.161	2022.19
548.614	2028.19
549.067	2052.19
549.52	2034.19
549.973	2009.19
550.426	2002.19
550.879	1967.19
551.332	1969.19
551.785	2006.19
552.238	2026.19
552.691	2055.19
553.144	2074.19
553.596	2094.19
554.049	2113.19
554.502	2181.19
554.955	2232.19
555.407	2220.19
555.86	2207.19
556.313	2180.19
556.765	2179.19
557.218	2143.19
557.67	2126.19
558.123	2127.19
558.576	2092.19
559.028	2150.19
559.48	2115.19
559.933	2123.19
560.385	2037.19
560.838	1988.19
561.29	1909.19
561.742	1891.19
562.195	1864.19
562.647	1877.19
563.099	1902.19
563.551	1831.19
564.004	1864.19
564.456	1885.19
564.908	1804.19
565.36	1785.19
565.812	1767.19
566.264	1724.19
566.716	1688.19
567.168	1643.19
567.62	1688.19
568.072	1632.19
568.524	1615.19
568.976	1623.19
569.428	1577.19
569.88	1588.19
570.332	1629.19
570.784	1624.19
571.235	1634.19
571.687	1662.19
572.139	1643.19
572.59	1676.19
573.042	1670.19
573.494	1685.19
573.945	1652.19
574.397	1664.19
574.849	1610.19
575.3	1634.19
575.752	1617.19
576.203	1594.19
576.655	1586.19
577.106	1566.19
577.557	1555.19
578.009	1571.19
578.46	1545.19
578.912	1508.19
579.363	1544.19
579.814	1582.19
580.265	1528.19
580.717	1536.19
581.168	1547.19
581.619	1556.19
582.07	1572.19
582.521	1571.19
582.972	1538.19
583.423	1530.19
583.875	1528.19
584.326	1561.19
584.777	1592.19
585.227	1564.19
585.678	1664.19
586.129	1658.19
586.58	1680.19
587.031	1728.19
587.482	1722.19
587.933	1803.19
588.384	1778.19
588.834	1751.19
589.285	1732.19
589.736	1739.19
590.186	1782.19
590.637	1770.19
591.088	1701.19
591.538	1635.19
591.989	1624.19
592.439	1616.19
592.89	1581.19
593.34	1582.19
593.791	1594.19
594.241	1599.19
594.692	1572.19
595.142	1574.19
595.593	1559.19
596.043	1582.19
596.493	1592.19
596.943	1557.19
597.394	1608.19
597.844	1621.19
598.294	1695.19
598.744	1734.19
599.195	1756.19
599.645	1878.19
600.095	2006.19
600.545	2155.19
600.995	2202.19
601.445	2318.19
601.895	2408.19
602.345	2536.19
602.795	2518.19
603.245	2412.19
603.695	2288.19
604.145	2127.19
604.594	2048.19
605.044	1894.19
605.494	1778.19
605.944	1674.19
606.393	1638.19
606.843	1572.19
607.293	1626.19
607.743	1590.19
608.192	1602.19
608.642	1631.19
609.091	1614.19
609.541	1619.19
609.99	1606.19
610.44	1559.19
610.889	1580.19
611.339	1572.19
611.788	1500.19
612.238	1524.19
612.687	1516.19
613.136	1550.19
613.586	1535.19
614.035	1559.19
614.484	1570.19
614.933	1556.19
615.383	1543.19
615.832	1524.19
616.281	1479.19
616.73	1456.19
617.179	1455.19
617.628	1374.19
618.077	1334.19
618.526	1352.19
618.975	1351.19
619.424	1341.19
619.873	1298.19
620.322	1320.19
620.771	1309.19
621.22	1284.19
621.669	1238.19
622.118	1256.19
622.567	1274.19
623.015	1219.19
623.464	1220.19
623.913	1210.19
624.361	1206.19
624.81	1201.19
625.259	1146.19
625.707	1174.19
626.156	1194.19
626.604	1204.19
627.053	1222.19
627.501	1222.19
627.95	1220.19
628.398	1257.19
628.847	1256.19
629.295	1272.19
629.744	1206.19
630.192	1224.19
630.64	1152.19
631.089	1173.19
631.537	1129.19
631.985	1120.19
632.433	1102.19
632.881	1089.19
633.33	1071.19
633.778	1094.19
634.226	1108.19
634.674	1124.19
635.122	1151.19
635.57	1100.19
636.018	1152.19
636.466	1142.19
636.914	1147.19
637.362	1165.19
637.81	1167.19
638.258	1222.19
638.705	1217.19
639.153	1260.19
639.601	1281.19
640.049	1298.19
640.497	1296.19
640.944	1392.19
641.392	1309.19
641.84	1166.19
642.287	1128.19
642.735	1062.19
643.182	1070.19
643.63	1042.19
644.078	1083.19
644.525	1054.19
644.973	1086.19
645.42	1073.19
645.867	1089.19
646.315	1079.19
646.762	1094.19
647.21	1078.19
647.657	1104.19
648.104	1066.19
648.551	1028.19
648.999	1049.19
649.446	1048.19
649.893	1004.19
650.34	1032.19
650.787	1072.19
651.234	1099.19
651.682	1157.19
652.129	1262.19
652.576	1396.19
653.023	1610.19
653.47	1826.19
653.917	1867.19
654.363	1930.19
654.81	1972.19
655.257	2113.19
655.704	1788.19
656.151	1374.19
656.598	1196.19
657.044	1090.19
657.491	1040.19
657.938	1009.19
658.385	1014.19
658.831	1037.19
659.278	956.19
659.724	1003.19
660.171	951.19
660.618	911.19
661.064	941.19
661.511	934.19
661.957	927.19
662.404	905.19
662.85	918.19
663.296	949.19
663.743	930.19
664.189	942.19
664.635	986.19
665.082	951.19
665.528	954.19
665.974	941.19
666.42	907.19
666.867	932.19
667.313	858.19
667.759	868.19
668.205	847.19
668.651	867.19
669.097	914.19
669.543	918.19
669.989	906.19
670.435	888.19
670.881	933.19
671.327	952.19
671.773	986.19
672.219	1083.19
672.665	1188.19
673.11	1226.19
673.556	1242.19
674.002	1255.19
674.448	1292.19
674.893	1189.19
675.339	990.19
675.785	923.19
676.23	880.19
676.676	818.19
677.122	808.19
677.567	809.19
678.013	781.19
678.458	758.19
678.904	784.19
679.349	772.19
679.794	754.19
680.24	764.19
680.685	746.19
681.131	771.19
681.576	738.19
682.021	793.19
682.466	719.19
682.912	766.19
683.357	791.19
683.802	810.19
684.247	948.19
684.692	1001.19
685.137	1068.19
685.583	1082.19
686.028	1144.19
686.473	1154.19
686.918	998.19
687.363	898.19
687.807	853.19
688.252	813.19
688.697	742.19
689.142	757.19
689.587	719.19
690.032	738.19
690.477	776.19
690.921	779.19
691.366	873.19
691.811	900.19
692.255	942.19
692.7	1087.19
693.145	1436.19
693.589	2189.19
694.034	2954.19
694.478	3275.19
694.923	3017.19
695.367	3760.19
695.812	3416.19
696.256	1312.19
696.701	862.19
697.145	732.19
697.59	744.19
698.034	699.19
698.478	722.19
698.922	684.19
699.367	715.19
699.811	775.19
700.255	824.19
700.699	896.19
701.143	937.19
701.588	1029.19
702.032	1059.19
702.476	1106.19
702.92	1140.19
703.364	1290.19
703.808	1900.19
704.252	2776.19
704.696	3092.19
705.14	2868.19
705.584	3677.19
706.027	2916.19
706.471	1346.19
706.915	896.19
707.359	783.19
707.803	748.19
708.246	675.19
708.69	677.19
709.134	675.19
709.577	695.19
710.021	693.19
710.465	690.19
710.908	658.19
711.352	705.19
711.795	746.19
712.239	799.19
712.682	839.19
713.126	832.19
713.569	906.19
714.012	832.19
714.456	718.19
714.899	648.19
715.342	615.19
715.786	604.19
716.229	548.19
716.672	532.19
717.115	564.19
717.558	555.19
718.002	578.19
718.445	618.19
718.888	631.19
719.331	676.19
719.774	664.19
720.217	684.19
720.66	641.19
721.103	564.19
721.546	570.19
721.989	571.19
722.432	536.19
722.874	557.19
723.317	534.19
723.76	580.19
724.203	636.19
724.645	862.19
725.088	1104.19
725.531	1106.19
725.974	1086.19
726.416	1191.19
726.859	760.19
727.301	590.19
727.744	530.19
728.187	525.19
728.629	518.19
729.071	592.19
729.514	606.19
729.956	642.19
730.399	630.19
730.841	616.19
731.283	616.19
731.726	631.19
732.168	585.19
732.61	603.19
733.053	680.19
733.495	729.19
733.937	835.19
734.379	904.19
734.821	1125.19
735.263	1576.19
735.705	2676.19
736.148	4571.19
736.59	5352.19
737.032	5018.19
737.474	5362.19
737.916	2446.19
738.357	1148.19
738.799	794.19
739.241	702.19
739.683	666.19
740.125	656.19
740.567	683.19
741.008	738.19
741.45	753.19
741.892	818.19
742.334	807.19
742.775	810.19
743.217	793.19
743.658	712.19
744.1	647.19
744.542	706.19
744.983	798.19
745.425	802.19
745.866	825.19
746.307	740.19
746.749	683.19
747.19	902.19
747.632	1532.19
748.073	2984.19
748.514	4694.19
748.956	5801.19
749.397	7975.19
749.838	6377.19
750.279	5174.19
750.72	3779.19
751.162	1642.19
751.603	852.19
752.044	628.19
752.485	548.19
752.926	508.19
753.367	494.19
753.808	457.19
754.249	466.19
754.69	465.19
755.131	438.19
755.572	457.19
756.013	461.19
756.453	474.19
756.894	484.19
757.335	462.19
757.776	473.19
758.216	488.19
758.657	510.19
759.098	540.19
759.538	617.19
759.979	772.19
760.42	1248.19
760.86	2965.19
761.301	7079.19
761.741	10541.19
762.182	10774.19
762.622	10034.19
763.063	4367.19
763.503	1685.19
763.943	869.19
764.384	642.19
764.824	548.19
765.264	508.19
765.705	494.19
766.145	463.19
766.585	456.19
767.025	444.19
767.465	431.19
767.906	448.19
768.346	466.19
768.786	484.19
769.226	642.19
769.666	1040.19
770.106	2311.19
770.546	4242.19
770.986	4516.19
771.426	4421.19
771.866	2370.19
772.306	1047.19
772.745	563.19
773.185	460.19
773.625	386.19
774.065	422.19
774.505	507.19
774.944	735.19
775.384	1168.19
775.824	1380.19
776.263	1315.19
776.703	884.19
777.142	542.19
777.582	384.19
778.021	332.19
778.461	346.19
778.9	349.19
779.34	350.19
779.779	308.19
780.219	329.19
780.658	300.19
781.097	303.19
781.537	302.19
781.976	307.19
782.415	303.19
782.855	294.19
783.294	289.19
783.733	311.19
784.172	292.19
784.611	284.19
785.05	310.19
785.489	306.19
785.928	305.19
786.367	313.19
786.806	310.19
787.245	352.19
787.684	358.19
788.123	375.19
788.562	353.19
789.001	347.19
789.44	322.19
789.879	323.19
790.317	318.19
790.756	351.19
791.195	364.19
791.634	436.19
792.072	654.19
792.511	1386.19
792.95	3088.19
793.388	4016.19
793.827	3428.19
794.265	1881.19
794.704	925.19
795.142	504.19
795.581	394.19
796.019	364.19
796.458	351.19
796.896	349.19
797.334	360.19
797.773	468.19
798.211	719.19
798.649	1512.19
799.087	2457.19
799.526	3894.19
799.964	4335.19
800.402	3591.19
800.84	2025.19
801.278	1016.19
801.716	562.19
802.154	412.19
802.592	385.19
803.03	384.19
803.468	382.19
803.906	375.19
804.344	413.19
804.782	390.19
805.22	394.19
805.658	399.19
806.096	405.19
806.533	414.19
806.971	490.19
807.409	654.19
807.847	1027.19
808.284	2542.19
808.722	5112.19
809.16	7185.19
809.597	9965.19
810.035	12598.19
810.472	10806.19
810.91	5836.19
811.347	2692.19
811.785	1276.19
812.222	729.19
812.66	534.19
813.097	432.19
813.535	392.19
813.972	352.19
814.409	328.19
814.846	319.19
815.284	285.19
815.721	319.19
816.158	326.19
816.595	363.19
817.032	447.19
817.47	451.19
817.907	385.19
818.344	353.19
818.781	294.19
819.218	352.19
819.655	428.19
820.092	549.19
820.529	600.19
820.966	507.19
821.403	399.19
821.839	323.19
822.276	328.19
822.713	372.19
823.15	383.19
823.587	376.19
824.023	536.19
824.46	1135.19
824.897	2206.19
825.333	2329.19
825.77	1327.19
826.206	764.19
826.643	431.19
827.08	321.19
827.516	281.19
827.953	270.19
828.389	246.19
828.825	235.19
829.262	217.19
829.698	238.19
830.135	208.19
830.571	215.19
831.007	218.19
831.443	208.19
831.88	225.19
832.316	219.19
832.752	215.19
833.188	205.19
833.624	208.19
834.06	255.19
834.497	233.19
834.933	245.19
835.369	236.19
835.805	246.19
836.241	244.19
836.677	279.19
837.112	294.19
837.548	343.19
837.984	424.19
838.42	715.19
838.856	1862.19
839.292	3976.19
839.727	4330.19
840.163	2806.19
840.599	3297.19
841.034	5039.19
841.47	3861.19
841.906	2071.19
842.341	1124.19
842.777	675.19
843.212	601.19
843.648	471.19
844.083	334.19
844.519	274.19
844.954	249.19
845.39	225.19
845.825	226.19
846.261	198.19
846.696	203.19
847.131	186.19
847.566	216.19
848.002	185.19
848.437	205.19
848.872	194.19
849.307	235.19
849.742	312.19
850.177	678.19
850.613	1494.19
851.048	1606.19
851.483	877.19
851.918	558.19
852.353	330.19
852.788	243.19
853.223	199.19
853.657	195.19
854.092	173.19
854.527	187.19
854.962	160.19
855.397	186.19
855.832	178.19
856.266	198.19
856.701	181.19
857.136	184.19
857.57	186.19
858.005	186.19
858.44	200.19
858.874	191.19
859.309	180.19
859.743	188.19
860.178	169.19
860.612	197.19
861.047	216.19
861.481	268.19
861.915	234.19
862.35	200.19
862.784	174.19
863.218	152.19
863.653	150.19
864.087	190.19
864.521	211.19
864.955	248.19
865.39	436.19
865.824	422.19
866.258	423.19
866.692	544.19
867.126	508.19
867.56	358.19
867.994	273.19
868.428	212.19
868.862	217.19
869.296	238.19
869.73	228.19
870.164	227.19
870.598	226.19
871.031	163.19
871.465	154.19
871.899	142.19
872.333	144.19
872.766	127.19
873.2	147.19
873.634	148.19
874.067	149.19
874.501	133.19
874.935	168.19
875.368	148.19
875.802	135.19
876.235	155.19
876.669	124.19
877.102	142.19
877.535	144.19
877.969	128.19
878.402	134.19
878.836	128.19
879.269	132.19
879.702	119.19
880.135	150.19
880.569	133.19
881.002	130.19
881.435	132.19
881.868	123.19
882.301	142.19
882.734	117.19
883.167	141.19
883.601	132.19
884.034	118.19
884.467	118.19
884.899	129.19
885.332	104.19
885.765	131.19
886.198	114.19
886.631	136.19
887.064	116.19
887.497	129.19
887.929	133.19
888.362	122.19
888.795	120.19
889.228	121.19
889.66	136.19
890.093	131.19
890.526	120.19
890.958	119.19
891.391	124.19
891.823	130.19
892.256	116.19
892.688	122.19
893.121	125.19
893.553	124.19
893.985	107.19
894.418	130.19
894.85	121.19
895.282	116.19
895.715	130.19
896.147	136.19
896.579	114.19
897.011	116.19
897.444	107.19
897.876	116.19
898.308	120.19
898.74	118.19
899.172	105.19
899.604	110.19
900.036	99.19
900.468	100.19
900.9	114.19
901.332	116.19
901.764	127.19
902.196	116.19
902.628	112.19
903.06	132.19
903.491	156.19
903.923	148.19
904.355	135.19
904.787	141.19
905.218	143.19
905.65	137.19
906.082	141.19
906.513	114.19
906.945	114.19
907.376	129.19
907.808	119.19
908.239	138.19
908.671	113.19
909.102	150.19
909.534	148.19
909.965	174.19
910.397	349.19
910.828	897.19
911.259	1016.19
911.691	612.19
912.122	416.19
912.553	236.19
912.984	165.19
913.415	137.19
913.847	136.19
914.278	120.19
914.709	124.19
915.14	129.19
915.571	117.19
916.002	130.19
916.433	123.19
916.864	112.19
917.295	120.19
917.726	123.19
918.157	131.19
918.587	137.19
919.018	134.19
919.449	138.19
919.88	141.19
920.311	161.19
920.741	236.19
921.172	449.19
921.603	370.19
922.033	294.19
922.464	218.19
922.895	162.19
923.325	121.19
923.756	110.19
924.186	140.19
924.617	130.19
925.047	152.19
925.478	156.19
925.908	143.19
926.338	136.19
926.769	136.19
927.199	115.19
927.629	117.19
928.06	120.19
928.49	121.19
928.92	106.19
929.35	118.19
929.78	99.19
930.21	95.19
930.641	101.19
931.071	95.19
931.501	97.19
931.931	100.19
932.361	107.19
932.791	111.19
933.221	103.19
933.651	120.19
934.08	148.19
934.51	121.19
934.94	136.19
935.37	108.19
935.8	110.19
936.229	93.19
936.659	109.19
937.089	99.19
937.519	123.19
937.948	155.19
938.378	120.19
938.807	130.19
939.237	91.19
939.666	99.19
940.096	100.19
940.525	101.19
940.955	84.19
941.384	114.19
941.814	84.19
942.243	82.19
942.672	72.19
943.102	85.19
943.531	87.19
943.96	98.19
944.39	112.19
944.819	94.19
945.248	118.19
945.677	103.19
946.106	106.19
946.535	92.19
946.964	99.19
947.393	92.19
947.822	96.19
948.251	92.19
948.68	98.19
949.109	84.19
949.538	99.19
949.967	88.19
950.396	94.19
950.825	84.19
951.254	80.19
951.682	90.19
952.111	96.19
952.54	81.19
952.969	90.19
953.397	88.19
953.826	93.19
954.254	100.19
954.683	103.19
955.112	107.19
955.54	85.19
955.969	90.19
956.397	99.19
956.826	77.19
957.254	89.19
957.682	100.19
958.111	80.19
958.539	94.19
958.967	91.19
959.396	85.19
959.824	98.19
960.252	87.19
960.68	93.19
961.109	99.19
961.537	98.19
961.965	104.19
962.393	105.19
962.821	102.19
963.249	94.19
963.677	100.19
964.105	114.19
964.533	172.19
964.961	148.19
965.389	139.19
965.817	112.19
966.245	116.19
966.672	79.19
967.1	91.19
967.528	76.19
967.956	84.19
968.383	96.19
968.811	82.19
969.239	82.19
969.666	88.19
970.094	89.19
970.522	85.19
970.949	86.19
971.377	84.19
971.804	92.19
972.232	76.19
972.659	94.19
973.087	102.19
973.514	76.19
973.941	78.19
974.369	89.19
974.796	91.19
975.223	72.19
975.651	83.19
976.078	98.19
976.505	85.19
976.932	109.19
977.359	138.19
977.786	107.19
978.214	90.19
978.641	100.19
979.068	90.19
979.495	84.19
979.922	94.19
980.349	82.19
980.776	87.19
981.202	86.19
981.629	84.19
982.056	82.19
982.483	86.19
982.91	69.19
983.337	77.19
983.763	90.19
984.19	93.19
984.617	76.19
985.043	83.19
985.47	79.19
985.897	82.19
986.323	82.19
986.75	91.19
987.176	73.19
987.603	90.19
988.029	93.19
988.456	78.19
988.882	86.19
989.308	80.19
989.735	84.19
990.161	87.19
990.587	89.19
991.014	90.19
991.44	96.19
991.866	102.19
992.292	94.19
992.719	84.19
993.145	95.19
993.571	104.19
993.997	96.19
994.423	83.19
994.849	92.19
995.275	89.19
995.701	98.19
996.127	92.19
996.553	84.19
996.979	95.19
997.405	108.19
997.83	79.19
998.256	88.19
998.682	84.19
999.108	89.19
999.534	99.19
999.959	98.19
1000.385	81.19
1000.811	91.19
1001.236	99.19
1001.662	82.19
1002.087	90.19
1002.513	99.19
1002.938	66.19
1003.364	87.19
1003.789	87.19
1004.215	94.19
1004.64	101.19
1005.066	99.19
1005.491	76.19
1005.916	92.19
1006.342	88.19
1006.767	81.19
1007.192	82.19
1007.617	94.19
1008.042	99.19
1008.468	86.19
1008.893	91.19
1009.318	106.19
1009.743	96.19
1010.168	100.19
1010.593	96.19
1011.018	94.19
1011.443	98.19
1011.868	91.19
1012.293	74.19
1012.718	87.19
1013.143	82.19
1013.567	84.19
1013.992	106.19
1014.417	90.19
1014.842	94.19
1015.267	92.19
1015.691	78.19
1016.116	88.19
1016.541	81.19
1016.965	92.19
1017.39	80.19
1017.814	88.19
1018.239	81.19
1018.663	90.19
1019.088	86.19
1019.512	70.19
1019.937	87.19
1020.361	75.19
1020.785	82.19
1021.21	88.19
1021.634	84.19
1022.058	86.19
1022.483	96.19
1022.907	85.19
1023.331	86.19
1023.755	77.19
1024.179	96.19
1024.604	88.19
1025.028	89.19
1025.452	80.19
1025.876	77.19
1026.3	76.19
1026.724	80.19
1027.148	75.19
1027.572	96.19
1027.996	78.19
1028.42	93.19
1028.843	86.19
1029.267	71.19
1029.691	82.19
1030.115	85.19
1030.539	98.19
1030.962	92.19
1031.386	90.19
1031.81	85.19
1032.233	81.19
1032.657	89.19
1033.08	88.19
1033.504	84.19
1033.927	86.19
1034.351	77.19
1034.774	78.19
1035.198	69.19
1035.621	92.19
1036.045	76.19
1036.468	56.19
1036.891	92.19
1037.315	82.19
1037.738	70.19
1038.161	82.19
1038.584	72.19
1039.008	86.19
1039.431	75.19
1039.854	86.19
1040.277	58.19
1040.7	64.19
1041.123	69.19
1041.546	86.19
1041.969	83.19
1042.392	85.19
1042.815	72.19
1043.238	95.19
1043.661	82.19
1044.084	80.19
1044.507	70.19
1044.93	100.19
1045.352	79.19
1045.775	72.19
1046.198	83.19
1046.621	88.19
1047.043	84.19
1047.466	78.19
1047.889	96.19
1048.311	84.19
1048.734	97.19
1049.156	83.19
1049.579	93.19
1050.001	79.19
1050.424	81.19
1050.846	89.19
1051.269	90.19
1051.691	66.19
1052.113	79.19
1052.536	93.19
1052.958	79.19
1053.38	77.19
1053.802	86.19
1054.225	80.19
1054.647	90.19
1055.069	102.19
1055.491	100.19
1055.913	90.19
1056.335	80.19
1056.757	86.19
1057.179	76.19
1057.601	94.19
1058.023	76.19
1058.445	80.19
1058.867	78.19
1059.289	59.19
1059.711	87.19
1060.133	78.19
1060.555	78.19
1060.976	76.19
1061.398	87.19
1061.82	69.19
1062.241	81.19
1062.663	80.19
1063.085	75.19
1063.506	84.19
1063.928	79.19
1064.35	92.19
1064.771	88.19
1065.193	88.19
1065.614	88.19
1066.035	77.19
1066.457	93.19
1066.878	84.19
1067.3	93.19
1067.721	85.19
1068.142	90.19
1068.564	78.19
1068.985	94.19
1069.406	79.19
1069.827	79.19
1070.248	84.19
1070.67	85.19
1071.091	73.19
1071.512	67.19
1071.933	94.19
1072.354	77.19
1072.775	89.19
1073.196	90.19
1073.617	86.19
1074.038	63.19
1074.459	76.19
1074.88	97.19
1075.3	83.19
1075.721	76.19
1076.142	81.19
1076.563	70.19
1076.983	73.19
1077.404	76.19
1077.825	99.19
1078.246	92.19
1078.666	87.19
1079.087	87.19
1079.507	89.19
1079.928	74.19
1080.348	86.19
1080.769	90.19
1081.189	88.19
1081.61	88.19
1082.03	72.19
1082.451	78.19
1082.871	83.19
1083.291	74.19
1083.711	82.19
1084.132	57.19
1084.552	82.19
1084.972	96.19
1085.392	79.19
1085.813	84.19
1086.233	80.19
1086.653	83.19
1087.073	61.19
1087.493	65.19
1087.913	71.19
1088.333	80.19
1088.753	90.19
1089.173	62.19
1089.593	90.19
1090.013	86.19
1090.433	67.19
1090.852	72.19
1091.272	66.19
1091.692	75.19
1092.112	88.19
1092.531	79.19
1092.951	74.19
1093.371	75.19
1093.79	86.19
1094.21	101.19
1094.63	91.19
1095.049	74.19
1095.469	95.19
1095.888	78.19
1096.308	68.19
1096.727	70.19
1097.146	92.19
1097.566	88.19
1097.985	74.19
1098.405	75.19
1098.824	67.19
1099.243	80.19
1099.662	79.19
1100.082	94.19
1100.501	82.19
1100.92	87.19
1101.339	76.19
1101.758	90.19
