Data from 20170802-ORNL-NYSim-Air_HRD10391_10-36-12-576.txt Node
Date: Wed Aug 02 10:36:12 EDT 2017
User: Ender
Spectrometer: HR+D1039
Trigger mode: 0
Integration Time (sec): 3.750000E-3
Scans to average: 1
Electric dark correction enabled: true
Nonlinearity correction enabled: false
Boxcar width: 0
XAxis mode: Wavelengths
Number of Pixels in Spectrum: 2048
>>>>>Begin Spectral Data<<<<<
187.836	14.31
188.309	14.31
188.782	14.31
189.255	-21.69
189.728	-6.69
190.201	-6.69
190.674	3.31
191.147	-17.69
191.619	-4.69
192.092	-13.69
192.565	-1.69
193.038	4.31
193.511	-21.69
193.984	19.31
194.456	13.31
194.929	10.31
195.402	10.31
195.874	19.31
196.347	28.31
196.82	13.31
197.292	17.31
197.765	25.31
198.237	48.31
198.71	35.31
199.182	32.31
199.655	39.31
200.127	45.31
200.6	52.31
201.072	39.31
201.544	63.31
202.017	66.31
202.489	34.31
202.961	61.31
203.433	58.31
203.906	72.31
204.378	86.31
204.85	72.31
205.322	58.31
205.794	75.31
206.266	83.31
206.739	83.31
207.211	85.31
207.683	58.31
208.155	75.31
208.627	73.31
209.099	91.31
209.57	66.31
210.042	90.31
210.514	80.31
210.986	86.31
211.458	80.31
211.93	74.31
212.402	98.31
212.873	73.31
213.345	79.31
213.817	74.31
214.288	74.31
214.76	87.31
215.232	61.31
215.703	80.31
216.175	86.31
216.646	73.31
217.118	75.31
217.589	85.31
218.061	90.31
218.532	78.31
219.004	75.31
219.475	78.31
219.946	86.31
220.418	72.31
220.889	80.31
221.36	75.31
221.832	74.31
222.303	76.31
222.774	80.31
223.245	64.31
223.717	77.31
224.188	74.31
224.659	65.31
225.13	76.31
225.601	80.31
226.072	74.31
226.543	80.31
227.014	69.31
227.485	65.31
227.956	83.31
228.427	80.31
228.898	79.31
229.369	76.31
229.839	79.31
230.31	90.31
230.781	86.31
231.252	81.31
231.722	79.31
232.193	74.31
232.664	74.31
233.135	72.31
233.605	87.31
234.076	79.31
234.546	68.31
235.017	76.31
235.487	77.31
235.958	85.31
236.428	81.31
236.899	82.31
237.369	83.31
237.84	63.31
238.31	95.31
238.78	74.31
239.251	88.31
239.721	82.31
240.191	91.31
240.662	84.31
241.132	80.31
241.602	77.31
242.072	72.31
242.542	80.31
243.013	60.31
243.483	79.31
243.953	91.31
244.423	79.31
244.893	93.31
245.363	93.31
245.833	91.31
246.303	93.31
246.773	90.31
247.243	90.31
247.712	86.31
248.182	86.31
248.652	68.31
249.122	82.31
249.592	93.31
250.061	91.31
250.531	88.31
251.001	102.31
251.471	93.31
251.94	86.31
252.41	112.31
252.879	95.31
253.349	100.31
253.818	94.31
254.288	91.31
254.757	89.31
255.227	95.31
255.696	100.31
256.166	90.31
256.635	117.31
257.105	100.31
257.574	94.31
258.043	99.31
258.513	97.31
258.982	87.31
259.451	102.31
259.92	112.31
260.389	90.31
260.859	93.31
261.328	86.31
261.797	98.31
262.266	92.31
262.735	101.31
263.204	94.31
263.673	86.31
264.142	101.31
264.611	102.31
265.08	112.31
265.549	97.31
266.018	84.31
266.487	94.31
266.955	101.31
267.424	95.31
267.893	101.31
268.362	103.31
268.83	117.31
269.299	106.31
269.768	95.31
270.236	101.31
270.705	104.31
271.174	129.31
271.642	106.31
272.111	111.31
272.579	111.31
273.048	97.31
273.516	103.31
273.985	117.31
274.453	85.31
274.922	105.31
275.39	101.31
275.858	123.31
276.327	111.31
276.795	132.31
277.263	102.31
277.731	111.31
278.2	117.31
278.668	110.31
279.136	122.31
279.604	101.31
280.072	111.31
280.54	106.31
281.008	104.31
281.477	105.31
281.945	114.31
282.413	106.31
282.881	110.31
283.348	121.31
283.816	129.31
284.284	107.31
284.752	110.31
285.22	126.31
285.688	121.31
286.156	109.31
286.623	117.31
287.091	120.31
287.559	130.31
288.026	118.31
288.494	119.31
288.962	124.31
289.429	133.31
289.897	126.31
290.364	122.31
290.832	133.31
291.3	127.31
291.767	126.31
292.234	132.31
292.702	122.31
293.169	132.31
293.637	121.31
294.104	129.31
294.571	128.31
295.039	116.31
295.506	103.31
295.973	121.31
296.44	140.31
296.908	136.31
297.375	154.31
297.842	124.31
298.309	144.31
298.776	135.31
299.243	158.31
299.71	130.31
300.177	134.31
300.644	137.31
301.111	123.31
301.578	142.31
302.045	151.31
302.512	136.31
302.979	146.31
303.446	128.31
303.913	128.31
304.379	143.31
304.846	159.31
305.313	139.31
305.78	142.31
306.246	125.31
306.713	150.31
307.18	151.31
307.646	145.31
308.113	158.31
308.579	151.31
309.046	137.31
309.512	165.31
309.979	155.31
310.445	161.31
310.912	140.31
311.378	157.31
311.845	175.31
312.311	156.31
312.777	140.31
313.244	159.31
313.71	158.31
314.176	154.31
314.642	151.31
315.109	146.31
315.575	189.31
316.041	150.31
316.507	152.31
316.973	180.31
317.439	160.31
317.905	168.31
318.371	165.31
318.837	171.31
319.303	172.31
319.769	172.31
320.235	182.31
320.701	168.31
321.167	182.31
321.633	160.31
322.099	158.31
322.564	160.31
323.03	206.31
323.496	166.31
323.962	191.31
324.427	186.31
324.893	187.31
325.359	195.31
325.824	183.31
326.29	171.31
326.755	174.31
327.221	178.31
327.686	189.31
328.152	195.31
328.617	194.31
329.083	201.31
329.548	212.31
330.014	191.31
330.479	196.31
330.944	193.31
331.41	191.31
331.875	204.31
332.34	210.31
332.805	191.31
333.271	194.31
333.736	190.31
334.201	188.31
334.666	215.31
335.131	206.31
335.596	230.31
336.061	201.31
336.526	212.31
336.991	198.31
337.456	184.31
337.921	184.31
338.386	214.31
338.851	196.31
339.316	183.31
339.781	202.31
340.246	213.31
340.711	171.31
341.175	203.31
341.64	212.31
342.105	213.31
342.569	236.31
343.034	186.31
343.499	220.31
343.963	218.31
344.428	236.31
344.893	227.31
345.357	223.31
345.822	216.31
346.286	215.31
346.751	245.31
347.215	254.31
347.679	250.31
348.144	239.31
348.608	262.31
349.073	257.31
349.537	255.31
350.001	256.31
350.465	252.31
350.93	258.31
351.394	271.31
351.858	256.31
352.322	279.31
352.786	272.31
353.25	279.31
353.715	281.31
354.179	286.31
354.643	275.31
355.107	298.31
355.571	301.31
356.035	308.31
356.498	263.31
356.962	276.31
357.426	270.31
357.89	280.31
358.354	270.31
358.818	260.31
359.281	282.31
359.745	310.31
360.209	277.31
360.673	284.31
361.136	266.31
361.6	258.31
362.064	279.31
362.527	291.31
362.991	284.31
363.454	310.31
363.918	308.31
364.381	317.31
364.845	300.31
365.308	295.31
365.772	298.31
366.235	280.31
366.698	318.31
367.162	291.31
367.625	280.31
368.088	301.31
368.552	326.31
369.015	340.31
369.478	312.31
369.941	302.31
370.404	296.31
370.867	317.31
371.331	327.31
371.794	314.31
372.257	306.31
372.72	344.31
373.183	323.31
373.646	328.31
374.109	344.31
374.572	336.31
375.035	336.31
375.497	348.31
375.96	356.31
376.423	336.31
376.886	325.31
377.349	356.31
377.811	342.31
378.274	354.31
378.737	331.31
379.199	358.31
379.662	369.31
380.125	348.31
380.587	346.31
381.05	356.31
381.512	380.31
381.975	382.31
382.437	371.31
382.9	371.31
383.362	376.31
383.825	395.31
384.287	394.31
384.75	354.31
385.212	397.31
385.674	412.31
386.136	404.31
386.599	397.31
387.061	406.31
387.523	379.31
387.985	413.31
388.447	387.31
388.91	402.31
389.372	384.31
389.834	411.31
390.296	400.31
390.758	385.31
391.22	409.31
391.682	406.31
392.144	412.31
392.606	396.31
393.068	410.31
393.529	441.31
393.991	443.31
394.453	419.31
394.915	411.31
395.377	433.31
395.838	444.31
396.3	408.31
396.762	417.31
397.224	400.31
397.685	421.31
398.147	445.31
398.608	428.31
399.07	434.31
399.531	460.31
399.993	436.31
400.454	460.31
400.916	452.31
401.377	458.31
401.839	488.31
402.3	445.31
402.762	493.31
403.223	498.31
403.684	536.31
404.145	495.31
404.607	454.31
405.068	460.31
405.529	470.31
405.99	484.31
406.451	464.31
406.913	480.31
407.374	458.31
407.835	466.31
408.296	479.31
408.757	474.31
409.218	502.31
409.679	518.31
410.14	521.31
410.601	528.31
411.062	519.31
411.522	532.31
411.983	538.31
412.444	542.31
412.905	544.31
413.366	593.31
413.826	620.31
414.287	707.31
414.748	804.31
415.208	837.31
415.669	671.31
416.13	658.31
416.59	630.31
417.051	664.31
417.511	700.31
417.972	725.31
418.432	790.31
418.893	864.31
419.353	845.31
419.814	630.31
420.274	587.31
420.734	562.31
421.195	579.31
421.655	583.31
422.115	594.31
422.576	586.31
423.036	602.31
423.496	612.31
423.956	651.31
424.416	658.31
424.876	762.31
425.336	754.31
425.797	723.31
426.257	697.31
426.717	665.31
427.177	607.31
427.637	594.31
428.097	616.31
428.556	641.31
429.016	678.31
429.476	652.31
429.936	612.31
430.396	625.31
430.856	637.31
431.315	649.31
431.775	634.31
432.235	754.31
432.694	732.31
433.154	700.31
433.614	696.31
434.073	675.31
434.533	607.31
434.993	608.31
435.452	611.31
435.912	627.31
436.371	646.31
436.83	654.31
437.29	665.31
437.749	620.31
438.209	614.31
438.668	648.31
439.127	667.31
439.587	666.31
440.046	669.31
440.505	640.31
440.964	651.31
441.424	683.31
441.883	705.31
442.342	641.31
442.801	658.31
443.26	662.31
443.719	644.31
444.178	649.31
444.637	687.31
445.096	667.31
445.555	674.31
446.014	671.31
446.473	678.31
446.932	683.31
447.391	670.31
447.849	678.31
448.308	705.31
448.767	709.31
449.226	678.31
449.685	687.31
450.143	740.31
450.602	723.31
451.061	738.31
451.519	696.31
451.978	676.31
452.436	708.31
452.895	709.31
453.353	681.31
453.812	686.31
454.27	696.31
454.729	704.31
455.187	692.31
455.646	715.31
456.104	696.31
456.562	695.31
457.021	745.31
457.479	709.31
457.937	695.31
458.395	710.31
458.854	740.31
459.312	702.31
459.77	688.31
460.228	738.31
460.686	738.31
461.144	749.31
461.602	742.31
462.06	722.31
462.518	733.31
462.976	752.31
463.434	746.31
463.892	785.31
464.35	808.31
464.808	813.31
465.266	831.31
465.724	796.31
466.181	822.31
466.639	797.31
467.097	830.31
467.555	848.31
468.012	846.31
468.47	853.31
468.928	894.31
469.385	915.31
469.843	911.31
470.3	910.31
470.758	939.31
471.215	960.31
471.673	972.31
472.13	942.31
472.588	1003.31
473.045	1012.31
473.503	992.31
473.96	994.31
474.417	1049.31
474.875	1071.31
475.332	1106.31
475.789	1090.31
476.246	1144.31
476.704	1108.31
477.161	1140.31
477.618	1186.31
478.075	1151.31
478.532	1208.31
478.989	1226.31
479.446	1328.31
479.903	1293.31
480.36	1317.31
480.817	1342.31
481.274	1298.31
481.731	1390.31
482.188	1370.31
482.645	1405.31
483.102	1417.31
483.558	1510.31
484.015	1528.31
484.472	1504.31
484.929	1512.31
485.385	1493.31
485.842	1516.31
486.299	1507.31
486.755	1503.31
487.212	1516.31
487.668	1458.31
488.125	1449.31
488.582	1426.31
489.038	1468.31
489.494	1444.31
489.951	1477.31
490.407	1484.31
490.864	1464.31
491.32	1484.31
491.776	1522.31
492.233	1498.31
492.689	1472.31
493.145	1487.31
493.602	1491.31
494.058	1536.31
494.514	1498.31
494.97	1530.31
495.426	1573.31
495.882	1532.31
496.338	1550.31
496.794	1579.31
497.251	1574.31
497.707	1581.31
498.163	1614.31
498.618	1606.31
499.074	1579.31
499.53	1632.31
499.986	1618.31
500.442	1612.31
500.898	1599.31
501.354	1670.31
501.809	1689.31
502.265	1623.31
502.721	1640.31
503.177	1620.31
503.632	1625.31
504.088	1658.31
504.543	1675.31
504.999	1717.31
505.455	1663.31
505.91	1705.31
506.366	1662.31
506.821	1705.31
507.277	1665.31
507.732	1655.31
508.187	1680.31
508.643	1764.31
509.098	1700.31
509.553	1728.31
510.009	1727.31
510.464	1740.31
510.919	1778.31
511.375	1792.31
511.83	1820.31
512.285	1913.31
512.74	1915.31
513.195	1924.31
513.65	1963.31
514.105	1965.31
514.56	1989.31
515.015	2045.31
515.47	2061.31
515.925	2021.31
516.38	2041.31
516.835	2023.31
517.29	2002.31
517.745	2064.31
518.2	1987.31
518.655	1942.31
519.109	1953.31
519.564	1914.31
520.019	1914.31
520.474	1870.31
520.928	1877.31
521.383	1869.31
521.838	1885.31
522.292	1842.31
522.747	1825.31
523.201	1769.31
523.656	1781.31
524.11	1762.31
524.565	1811.31
525.019	1782.31
525.474	1805.31
525.928	1768.31
526.382	1794.31
526.837	1748.31
527.291	1801.31
527.745	1774.31
528.2	1740.31
528.654	1736.31
529.108	1738.31
529.562	1797.31
530.016	1727.31
530.47	1786.31
530.925	1740.31
531.379	1776.31
531.833	1756.31
532.287	1743.31
532.741	1790.31
533.195	1747.31
533.649	1775.31
534.103	1787.31
534.556	1757.31
535.01	1762.31
535.464	1738.31
535.918	1727.31
536.372	1772.31
536.826	1778.31
537.279	1772.31
537.733	1752.31
538.187	1770.31
538.64	1749.31
539.094	1792.31
539.548	1796.31
540.001	1775.31
540.455	1808.31
540.908	1839.31
541.362	1863.31
541.815	1856.31
542.269	1909.31
542.722	1894.31
543.175	1891.31
543.629	1882.31
544.082	1949.31
544.536	1971.31
544.989	1960.31
545.442	1932.31
545.895	1978.31
546.349	1986.31
546.802	1988.31
547.255	1982.31
547.708	2013.31
548.161	1995.31
548.614	2031.31
549.067	2030.31
549.52	1977.31
549.973	1944.31
550.426	2002.31
550.879	2010.31
551.332	2008.31
551.785	1994.31
552.238	2012.31
552.691	2041.31
553.144	1999.31
553.596	2111.31
554.049	2072.31
554.502	2232.31
554.955	2226.31
555.407	2249.31
555.86	2225.31
556.313	2213.31
556.765	2160.31
557.218	2116.31
557.67	2169.31
558.123	2119.31
558.576	2058.31
559.028	2054.31
559.48	2133.31
559.933	2092.31
560.385	2043.31
560.838	1975.31
561.29	1910.31
561.742	1893.31
562.195	1864.31
562.647	1862.31
563.099	1866.31
563.551	1806.31
564.004	1852.31
564.456	1834.31
564.908	1827.31
565.36	1761.31
565.812	1708.31
566.264	1667.31
566.716	1701.31
567.168	1662.31
567.62	1684.31
568.072	1662.31
568.524	1672.31
568.976	1630.31
569.428	1638.31
569.88	1660.31
570.332	1604.31
570.784	1690.31
571.235	1620.31
571.687	1622.31
572.139	1637.31
572.59	1637.31
573.042	1645.31
573.494	1709.31
573.945	1650.31
574.397	1617.31
574.849	1604.31
575.3	1624.31
575.752	1552.31
576.203	1547.31
576.655	1564.31
577.106	1557.31
577.557	1552.31
578.009	1541.31
578.46	1527.31
578.912	1571.31
579.363	1546.31
579.814	1529.31
580.265	1500.31
580.717	1536.31
581.168	1564.31
581.619	1562.31
582.07	1564.31
582.521	1543.31
582.972	1521.31
583.423	1540.31
583.875	1590.31
584.326	1570.31
584.777	1621.31
585.227	1604.31
585.678	1632.31
586.129	1587.31
586.58	1697.31
587.031	1709.31
587.482	1766.31
587.933	1773.31
588.384	1766.31
588.834	1763.31
589.285	1738.31
589.736	1799.31
590.186	1760.31
590.637	1755.31
591.088	1716.31
591.538	1656.31
591.989	1637.31
592.439	1615.31
592.89	1600.31
593.34	1564.31
593.791	1586.31
594.241	1576.31
594.692	1553.31
595.142	1551.31
595.593	1552.31
596.043	1565.31
596.493	1588.31
596.943	1594.31
597.394	1613.31
597.844	1668.31
598.294	1682.31
598.744	1725.31
599.195	1801.31
599.645	1959.31
600.095	2054.31
600.545	2117.31
600.995	2186.31
601.445	2352.31
601.895	2471.31
602.345	2578.31
602.795	2578.31
603.245	2387.31
603.695	2270.31
604.145	2116.31
604.594	2007.31
605.044	1942.31
605.494	1805.31
605.944	1700.31
606.393	1615.31
606.843	1643.31
607.293	1606.31
607.743	1596.31
608.192	1624.31
608.642	1634.31
609.091	1615.31
609.541	1622.31
609.99	1592.31
610.44	1581.31
610.889	1564.31
611.339	1571.31
611.788	1524.31
612.238	1546.31
612.687	1541.31
613.136	1543.31
613.586	1527.31
614.035	1561.31
614.484	1571.31
614.933	1519.31
615.383	1541.31
615.832	1511.31
616.281	1499.31
616.73	1467.31
617.179	1445.31
617.628	1407.31
618.077	1367.31
618.526	1346.31
618.975	1336.31
619.424	1333.31
619.873	1358.31
620.322	1328.31
620.771	1346.31
621.22	1295.31
621.669	1254.31
622.118	1253.31
622.567	1215.31
623.015	1206.31
623.464	1234.31
623.913	1169.31
624.361	1194.31
624.81	1196.31
625.259	1222.31
625.707	1202.31
626.156	1206.31
626.604	1221.31
627.053	1229.31
627.501	1230.31
627.95	1235.31
628.398	1283.31
628.847	1234.31
629.295	1262.31
629.744	1243.31
630.192	1194.31
630.64	1144.31
631.089	1169.31
631.537	1127.31
631.985	1102.31
632.433	1096.31
632.881	1079.31
633.33	1101.31
633.778	1148.31
634.226	1126.31
634.674	1099.31
635.122	1143.31
635.57	1170.31
636.018	1133.31
636.466	1165.31
636.914	1148.31
637.362	1136.31
637.81	1175.31
638.258	1214.31
638.705	1205.31
639.153	1294.31
639.601	1288.31
640.049	1299.31
640.497	1338.31
640.944	1385.31
641.392	1308.31
641.84	1222.31
642.287	1174.31
642.735	1079.31
643.182	1079.31
643.63	1078.31
644.078	1056.31
644.525	1067.31
644.973	1069.31
645.42	1059.31
645.867	1076.31
646.315	1044.31
646.762	1049.31
647.21	1090.31
647.657	1106.31
648.104	1088.31
648.551	1038.31
648.999	1045.31
649.446	1019.31
649.893	1028.31
650.34	1019.31
650.787	1076.31
651.234	1092.31
651.682	1152.31
652.129	1252.31
652.576	1393.31
653.023	1620.31
653.47	1777.31
653.917	1877.31
654.363	1946.31
654.81	1972.31
655.257	2093.31
655.704	1770.31
656.151	1345.31
656.598	1180.31
657.044	1066.31
657.491	1039.31
657.938	1083.31
658.385	999.31
658.831	1008.31
659.278	1006.31
659.724	976.31
660.171	969.31
660.618	940.31
661.064	934.31
661.511	943.31
661.957	922.31
662.404	968.31
662.85	951.31
663.296	959.31
663.743	992.31
664.189	944.31
664.635	964.31
665.082	953.31
665.528	956.31
665.974	935.31
666.42	907.31
666.867	930.31
667.313	885.31
667.759	880.31
668.205	866.31
668.651	868.31
669.097	851.31
669.543	899.31
669.989	894.31
670.435	898.31
670.881	938.31
671.327	918.31
671.773	1006.31
672.219	1091.31
672.665	1181.31
673.11	1223.31
673.556	1235.31
674.002	1298.31
674.448	1316.31
674.893	1226.31
675.339	1004.31
675.785	916.31
676.23	873.31
676.676	854.31
677.122	852.31
677.567	834.31
678.013	754.31
678.458	794.31
678.904	758.31
679.349	736.31
679.794	748.31
680.24	756.31
680.685	762.31
681.131	722.31
681.576	760.31
682.021	758.31
682.466	736.31
682.912	780.31
683.357	802.31
683.802	855.31
684.247	946.31
684.692	998.31
685.137	1071.31
685.583	1071.31
686.028	1147.31
686.473	1127.31
686.918	972.31
687.363	881.31
687.807	836.31
688.252	850.31
688.697	736.31
689.142	750.31
689.587	712.31
690.032	722.31
690.477	767.31
690.921	802.31
691.366	875.31
691.811	876.31
692.255	927.31
692.7	1116.31
693.145	1408.31
693.589	2125.31
694.034	2957.31
694.478	3281.31
694.923	3009.31
695.367	3792.31
695.812	3438.31
696.256	1355.31
696.701	870.31
697.145	756.31
697.59	730.31
698.034	713.31
698.478	720.31
698.922	710.31
699.367	731.31
699.811	752.31
700.255	824.31
700.699	872.31
701.143	992.31
701.588	1037.31
702.032	1046.31
702.476	1115.31
702.92	1118.31
703.364	1292.31
703.808	1983.31
704.252	2743.31
704.696	3128.31
705.14	2914.31
705.584	3762.31
706.027	2971.31
706.471	1331.31
706.915	901.31
707.359	800.31
707.803	736.31
708.246	730.31
708.69	716.31
709.134	674.31
709.577	676.31
710.021	666.31
710.465	687.31
710.908	663.31
711.352	674.31
711.795	754.31
712.239	835.31
712.682	865.31
713.126	824.31
713.569	890.31
714.012	842.31
714.456	717.31
714.899	664.31
715.342	618.31
715.786	568.31
716.229	580.31
716.672	568.31
717.115	584.31
717.558	570.31
718.002	588.31
718.445	604.31
718.888	656.31
719.331	650.31
719.774	690.31
720.217	674.31
720.66	627.31
721.103	618.31
721.546	568.31
721.989	536.31
722.432	554.31
722.874	540.31
723.317	564.31
723.76	576.31
724.203	644.31
724.645	882.31
725.088	1084.31
725.531	1113.31
725.974	1141.31
726.416	1242.31
726.859	794.31
727.301	576.31
727.744	548.31
728.187	543.31
728.629	556.31
729.071	562.31
729.514	594.31
729.956	637.31
730.399	650.31
730.841	618.31
731.283	626.31
731.726	590.31
732.168	605.31
732.61	642.31
733.053	685.31
733.495	732.31
733.937	828.31
734.379	927.31
734.821	1102.31
735.263	1536.31
735.705	2743.31
736.148	4472.31
736.59	5308.31
737.032	4993.31
737.474	5340.31
737.916	2467.31
738.357	1166.31
738.799	799.31
739.241	713.31
739.683	681.31
740.125	702.31
740.567	709.31
741.008	724.31
741.45	779.31
741.892	809.31
742.334	830.31
742.775	807.31
743.217	818.31
743.658	698.31
744.1	684.31
744.542	718.31
744.983	780.31
745.425	794.31
745.866	847.31
746.307	722.31
746.749	707.31
747.19	891.31
747.632	1501.31
748.073	3021.31
748.514	4789.31
748.956	5968.31
749.397	8059.31
749.838	6341.31
750.279	5239.31
750.72	3828.31
751.162	1624.31
751.603	866.31
752.044	612.31
752.485	539.31
752.926	512.31
753.367	494.31
753.808	459.31
754.249	476.31
754.69	484.31
755.131	472.31
755.572	473.31
756.013	470.31
756.453	478.31
756.894	466.31
757.335	456.31
757.776	456.31
758.216	491.31
758.657	484.31
759.098	524.31
759.538	608.31
759.979	780.31
760.42	1280.31
760.86	2881.31
761.301	7066.31
761.741	10540.31
762.182	10805.31
762.622	10039.31
763.063	4386.31
763.503	1696.31
763.943	852.31
764.384	651.31
764.824	558.31
765.264	516.31
765.705	504.31
766.145	445.31
766.585	430.31
767.025	444.31
767.465	446.31
767.906	431.31
768.346	452.31
768.786	491.31
769.226	614.31
769.666	1078.31
770.106	2361.31
770.546	4223.31
770.986	4560.31
771.426	4430.31
771.866	2343.31
772.306	1051.31
772.745	565.31
773.185	440.31
773.625	400.31
774.065	427.31
774.505	496.31
774.944	745.31
775.384	1154.31
775.824	1358.31
776.263	1324.31
776.703	898.31
777.142	560.31
777.582	407.31
778.021	379.31
778.461	339.31
778.9	325.31
779.34	330.31
779.779	338.31
780.219	329.31
780.658	307.31
781.097	310.31
781.537	304.31
781.976	294.31
782.415	282.31
782.855	289.31
783.294	292.31
783.733	298.31
784.172	299.31
784.611	298.31
785.05	287.31
785.489	316.31
785.928	329.31
786.367	304.31
786.806	340.31
787.245	367.31
787.684	368.31
788.123	384.31
788.562	351.31
789.001	342.31
789.44	330.31
789.879	303.31
790.317	353.31
790.756	350.31
791.195	356.31
791.634	446.31
792.072	628.31
792.511	1390.31
792.95	3161.31
793.388	3954.31
793.827	3489.31
794.265	1885.31
794.704	920.31
795.142	514.31
795.581	406.31
796.019	345.31
796.458	376.31
796.896	325.31
797.334	384.31
797.773	438.31
798.211	664.31
798.649	1501.31
799.087	2497.31
799.526	3934.31
799.964	4330.31
800.402	3609.31
800.84	2024.31
801.278	1015.31
801.716	574.31
802.154	434.31
802.592	384.31
803.03	380.31
803.468	369.31
803.906	381.31
804.344	395.31
804.782	392.31
805.22	363.31
805.658	389.31
806.096	398.31
806.533	414.31
806.971	487.31
807.409	650.31
807.847	1082.31
808.284	2522.31
808.722	5240.31
809.16	7200.31
809.597	9950.31
810.035	12997.31
810.472	10853.31
810.91	5828.31
811.347	2757.31
811.785	1231.31
812.222	694.31
812.66	532.31
813.097	439.31
813.535	370.31
813.972	345.31
814.409	336.31
814.846	312.31
815.284	321.31
815.721	312.31
816.158	299.31
816.595	352.31
817.032	453.31
817.47	494.31
817.907	404.31
818.344	351.31
818.781	335.31
819.218	345.31
819.655	437.31
820.092	584.31
820.529	595.31
820.966	526.31
821.403	400.31
821.839	355.31
822.276	324.31
822.713	374.31
823.15	412.31
823.587	392.31
824.023	491.31
824.46	1151.31
824.897	2245.31
825.333	2352.31
825.77	1320.31
826.206	772.31
826.643	437.31
827.08	305.31
827.516	281.31
827.953	267.31
828.389	234.31
828.825	259.31
829.262	226.31
829.698	213.31
830.135	215.31
830.571	212.31
831.007	208.31
831.443	207.31
831.88	199.31
832.316	213.31
832.752	224.31
833.188	226.31
833.624	210.31
834.06	214.31
834.497	224.31
834.933	202.31
835.369	213.31
835.805	244.31
836.241	268.31
836.677	257.31
837.112	266.31
837.548	333.31
837.984	414.31
838.42	738.31
838.856	1846.31
839.292	3979.31
839.727	4352.31
840.163	2786.31
840.599	3334.31
841.034	5035.31
841.47	3935.31
841.906	2039.31
842.341	1133.31
842.777	692.31
843.212	598.31
843.648	458.31
844.083	365.31
844.519	296.31
844.954	235.31
845.39	229.31
845.825	212.31
846.261	206.31
846.696	222.31
847.131	205.31
847.566	173.31
848.002	220.31
848.437	217.31
848.872	217.31
849.307	221.31
849.742	301.31
850.177	646.31
850.613	1486.31
851.048	1581.31
851.483	889.31
851.918	524.31
852.353	306.31
852.788	231.31
853.223	193.31
853.657	192.31
854.092	187.31
854.527	189.31
854.962	170.31
855.397	183.31
855.832	167.31
856.266	175.31
856.701	178.31
857.136	174.31
857.57	174.31
858.005	201.31
858.44	192.31
858.874	203.31
859.309	199.31
859.743	193.31
860.178	185.31
860.612	172.31
861.047	204.31
861.481	262.31
861.915	254.31
862.35	215.31
862.784	205.31
863.218	158.31
863.653	154.31
864.087	182.31
864.521	209.31
864.955	274.31
865.39	429.31
865.824	408.31
866.258	439.31
866.692	575.31
867.126	527.31
867.56	374.31
867.994	267.31
868.428	196.31
868.862	199.31
869.296	220.31
869.73	230.31
870.164	228.31
870.598	209.31
871.031	161.31
871.465	169.31
871.899	154.31
872.333	138.31
872.766	126.31
873.2	154.31
873.634	143.31
874.067	129.31
874.501	136.31
874.935	145.31
875.368	157.31
875.802	146.31
876.235	116.31
876.669	121.31
877.102	140.31
877.535	146.31
877.969	146.31
878.402	134.31
878.836	141.31
879.269	128.31
879.702	118.31
880.135	144.31
880.569	128.31
881.002	132.31
881.435	143.31
881.868	126.31
882.301	121.31
882.734	123.31
883.167	121.31
883.601	124.31
884.034	123.31
884.467	105.31
884.899	109.31
885.332	121.31
885.765	121.31
886.198	115.31
886.631	119.31
887.064	130.31
887.497	128.31
887.929	111.31
888.362	114.31
888.795	120.31
889.228	118.31
889.66	124.31
890.093	114.31
890.526	108.31
890.958	119.31
891.391	109.31
891.823	116.31
892.256	132.31
892.688	114.31
893.121	123.31
893.553	118.31
893.985	124.31
894.418	137.31
894.85	117.31
895.282	131.31
895.715	119.31
896.147	127.31
896.579	113.31
897.011	138.31
897.444	116.31
897.876	127.31
898.308	125.31
898.74	116.31
899.172	124.31
899.604	116.31
900.036	127.31
900.468	119.31
900.9	118.31
901.332	126.31
901.764	134.31
902.196	131.31
902.628	125.31
903.06	165.31
903.491	156.31
903.923	152.31
904.355	144.31
904.787	129.31
905.218	137.31
905.65	123.31
906.082	150.31
906.513	118.31
906.945	141.31
907.376	128.31
907.808	120.31
908.239	118.31
908.671	121.31
909.102	141.31
909.534	146.31
909.965	190.31
910.397	344.31
910.828	924.31
911.259	980.31
911.691	609.31
912.122	452.31
912.553	253.31
912.984	173.31
913.415	124.31
913.847	139.31
914.278	109.31
914.709	120.31
915.14	122.31
915.571	127.31
916.002	140.31
916.433	118.31
916.864	125.31
917.295	116.31
917.726	120.31
918.157	133.31
918.587	136.31
919.018	148.31
919.449	117.31
919.88	154.31
920.311	160.31
920.741	248.31
921.172	461.31
921.603	390.31
922.033	284.31
922.464	210.31
922.895	162.31
923.325	110.31
923.756	125.31
924.186	116.31
924.617	144.31
925.047	165.31
925.478	157.31
925.908	153.31
926.338	132.31
926.769	124.31
927.199	117.31
927.629	130.31
928.06	119.31
928.49	119.31
928.92	100.31
929.35	100.31
929.78	91.31
930.21	103.31
930.641	104.31
931.071	103.31
931.501	98.31
931.931	100.31
932.361	104.31
932.791	95.31
933.221	98.31
933.651	104.31
934.08	129.31
934.51	126.31
934.94	116.31
935.37	102.31
935.8	107.31
936.229	90.31
936.659	76.31
937.089	94.31
937.519	125.31
937.948	130.31
938.378	133.31
938.807	105.31
939.237	122.31
939.666	93.31
940.096	97.31
940.525	104.31
940.955	102.31
941.384	86.31
941.814	100.31
942.243	101.31
942.672	97.31
943.102	96.31
943.531	91.31
943.96	90.31
944.39	81.31
944.819	96.31
945.248	93.31
945.677	100.31
946.106	86.31
946.535	87.31
946.964	71.31
947.393	76.31
947.822	83.31
948.251	94.31
948.68	88.31
949.109	92.31
949.538	84.31
949.967	87.31
950.396	90.31
950.825	76.31
951.254	80.31
951.682	80.31
952.111	91.31
952.54	94.31
952.969	92.31
953.397	99.31
953.826	105.31
954.254	95.31
954.683	84.31
955.112	85.31
955.54	98.31
955.969	99.31
956.397	95.31
956.826	89.31
957.254	78.31
957.682	98.31
958.111	97.31
958.539	75.31
958.967	90.31
959.396	84.31
959.824	94.31
960.252	87.31
960.68	79.31
961.109	86.31
961.537	99.31
961.965	97.31
962.393	88.31
962.821	94.31
963.249	96.31
963.677	93.31
964.105	114.31
964.533	205.31
964.961	164.31
965.389	132.31
965.817	101.31
966.245	96.31
966.672	82.31
967.1	92.31
967.528	80.31
967.956	74.31
968.383	89.31
968.811	72.31
969.239	94.31
969.666	94.31
970.094	88.31
970.522	63.31
970.949	72.31
971.377	71.31
971.804	85.31
972.232	82.31
972.659	81.31
973.087	88.31
973.514	74.31
973.941	87.31
974.369	82.31
974.796	78.31
975.223	75.31
975.651	70.31
976.078	77.31
976.505	92.31
976.932	93.31
977.359	110.31
977.786	116.31
978.214	99.31
978.641	100.31
979.068	84.31
979.495	93.31
979.922	96.31
980.349	65.31
980.776	71.31
981.202	75.31
981.629	96.31
982.056	69.31
982.483	90.31
982.91	88.31
983.337	79.31
983.763	76.31
984.19	84.31
984.617	72.31
985.043	83.31
985.47	79.31
985.897	90.31
986.323	93.31
986.75	88.31
987.176	93.31
987.603	91.31
988.029	65.31
988.456	80.31
988.882	87.31
989.308	74.31
989.735	89.31
990.161	89.31
990.587	76.31
991.014	70.31
991.44	77.31
991.866	85.31
992.292	81.31
992.719	87.31
993.145	78.31
993.571	90.31
993.997	78.31
994.423	104.31
994.849	82.31
995.275	65.31
995.701	92.31
996.127	85.31
996.553	96.31
996.979	78.31
997.405	101.31
997.83	88.31
998.256	86.31
998.682	88.31
999.108	81.31
999.534	73.31
999.959	81.31
1000.385	100.31
1000.811	78.31
1001.236	89.31
1001.662	90.31
1002.087	76.31
1002.513	82.31
1002.938	82.31
1003.364	76.31
1003.789	80.31
1004.215	91.31
1004.64	78.31
1005.066	94.31
1005.491	72.31
1005.916	66.31
1006.342	77.31
1006.767	75.31
1007.192	95.31
1007.617	64.31
1008.042	80.31
1008.468	65.31
1008.893	82.31
1009.318	84.31
1009.743	104.31
1010.168	99.31
1010.593	117.31
1011.018	94.31
1011.443	83.31
1011.868	85.31
1012.293	66.31
1012.718	93.31
1013.143	92.31
1013.567	76.31
1013.992	88.31
1014.417	85.31
1014.842	86.31
1015.267	95.31
1015.691	98.31
1016.116	98.31
1016.541	88.31
1016.965	94.31
1017.39	84.31
1017.814	90.31
1018.239	68.31
1018.663	77.31
1019.088	90.31
1019.512	80.31
1019.937	90.31
1020.361	76.31
1020.785	80.31
1021.21	86.31
1021.634	85.31
1022.058	72.31
1022.483	84.31
1022.907	78.31
1023.331	76.31
1023.755	68.31
1024.179	53.31
1024.604	76.31
1025.028	85.31
1025.452	74.31
1025.876	77.31
1026.3	79.31
1026.724	90.31
1027.148	84.31
1027.572	84.31
1027.996	84.31
1028.42	73.31
1028.843	79.31
1029.267	65.31
1029.691	74.31
1030.115	86.31
1030.539	77.31
1030.962	69.31
1031.386	74.31
1031.81	79.31
1032.233	94.31
1032.657	72.31
1033.08	83.31
1033.504	78.31
1033.927	73.31
1034.351	68.31
1034.774	79.31
1035.198	85.31
1035.621	74.31
1036.045	77.31
1036.468	82.31
1036.891	77.31
1037.315	81.31
1037.738	64.31
1038.161	86.31
1038.584	90.31
1039.008	80.31
1039.431	73.31
1039.854	81.31
1040.277	67.31
1040.7	80.31
1041.123	78.31
1041.546	78.31
1041.969	83.31
1042.392	80.31
1042.815	70.31
1043.238	80.31
1043.661	86.31
1044.084	96.31
1044.507	79.31
1044.93	86.31
1045.352	80.31
1045.775	78.31
1046.198	77.31
1046.621	77.31
1047.043	75.31
1047.466	79.31
1047.889	76.31
1048.311	65.31
1048.734	89.31
1049.156	76.31
1049.579	70.31
1050.001	83.31
1050.424	82.31
1050.846	82.31
1051.269	86.31
1051.691	81.31
1052.113	86.31
1052.536	81.31
1052.958	78.31
1053.38	89.31
1053.802	82.31
1054.225	73.31
1054.647	87.31
1055.069	82.31
1055.491	71.31
1055.913	71.31
1056.335	73.31
1056.757	73.31
1057.179	63.31
1057.601	59.31
1058.023	89.31
1058.445	78.31
1058.867	74.31
1059.289	90.31
1059.711	68.31
1060.133	65.31
1060.555	79.31
1060.976	83.31
1061.398	108.31
1061.82	79.31
1062.241	82.31
1062.663	82.31
1063.085	76.31
1063.506	77.31
1063.928	88.31
1064.35	64.31
1064.771	63.31
1065.193	90.31
1065.614	68.31
1066.035	68.31
1066.457	69.31
1066.878	74.31
1067.3	97.31
1067.721	76.31
1068.142	82.31
1068.564	82.31
1068.985	72.31
1069.406	72.31
1069.827	89.31
1070.248	63.31
1070.67	70.31
1071.091	80.31
1071.512	80.31
1071.933	78.31
1072.354	64.31
1072.775	76.31
1073.196	90.31
1073.617	60.31
1074.038	82.31
1074.459	89.31
1074.88	91.31
1075.3	77.31
1075.721	96.31
1076.142	92.31
1076.563	72.31
1076.983	88.31
1077.404	75.31
1077.825	101.31
1078.246	61.31
1078.666	69.31
1079.087	62.31
1079.507	72.31
1079.928	84.31
1080.348	65.31
1080.769	84.31
1081.189	73.31
1081.61	64.31
1082.03	71.31
1082.451	89.31
1082.871	78.31
1083.291	92.31
1083.711	77.31
1084.132	79.31
1084.552	82.31
1084.972	78.31
1085.392	99.31
1085.813	68.31
1086.233	72.31
1086.653	82.31
1087.073	77.31
1087.493	96.31
1087.913	76.31
1088.333	66.31
1088.753	58.31
1089.173	68.31
1089.593	85.31
1090.013	66.31
1090.433	85.31
1090.852	72.31
1091.272	86.31
1091.692	79.31
1092.112	78.31
1092.531	81.31
1092.951	73.31
1093.371	71.31
1093.79	64.31
1094.21	68.31
1094.63	78.31
1095.049	67.31
1095.469	87.31
1095.888	98.31
1096.308	73.31
1096.727	71.31
1097.146	77.31
1097.566	95.31
1097.985	77.31
1098.405	89.31
1098.824	76.31
1099.243	77.31
1099.662	98.31
1100.082	73.31
1100.501	75.31
1100.92	77.31
1101.339	70.31
1101.758	69.31
