Data from 20170809-ORNL-Trin_Subt14_13-11-06-730.txt Node
Date: Wed Aug 09 13:11:06 EDT 2017
User: Ender
Spectrometer: HR+D1039
Trigger mode: 0
Integration Time (sec): 3.170000E-3
Scans to average: 5
Electric dark correction enabled: true
Nonlinearity correction enabled: false
Boxcar width: 0
XAxis mode: Wavelengths
Number of Pixels in Spectrum: 2048
>>>>>Begin Spectral Data<<<<<
187.836	3.89
188.309	3.89
188.782	3.89
189.255	0.29
189.728	2.49
190.201	2.69
190.674	-2.91
191.147	-3.31
191.619	-1.11
192.092	6.09
192.565	4.09
193.038	-1.91
193.511	7.89
193.984	1.69
194.456	3.89
194.929	-1.71
195.402	-11.31
195.874	-10.71
196.347	-5.11
196.82	3.89
197.292	4.69
197.765	8.49
198.237	4.49
198.71	3.09
199.182	4.09
199.655	-3.91
200.127	-3.51
200.6	-6.91
201.072	-0.91
201.544	7.09
202.017	7.49
202.489	0.89
202.961	-7.71
203.433	-9.91
203.906	0.89
204.378	0.49
204.85	5.69
205.322	11.89
205.794	2.89
206.266	6.29
206.739	1.29
207.211	8.49
207.683	11.29
208.155	-11.11
208.627	0.89
209.099	-5.31
209.57	2.09
210.042	5.49
210.514	16.29
210.986	1.69
211.458	1.89
211.93	-0.91
212.402	5.49
212.873	10.09
213.345	1.29
213.817	1.89
214.288	2.09
214.76	0.89
215.232	6.89
215.703	3.49
216.175	0.69
216.646	0.89
217.118	-0.31
217.589	4.29
218.061	8.09
218.532	-10.91
219.004	-1.91
219.475	5.09
219.946	4.69
220.418	0.49
220.889	-0.11
221.36	3.29
221.832	0.69
222.303	-2.11
222.774	4.49
223.245	0.49
223.717	16.89
224.188	2.29
224.659	6.29
225.13	-4.51
225.601	-1.51
226.072	6.09
226.543	-1.91
227.014	-1.31
227.485	-5.71
227.956	4.89
228.427	-0.71
228.898	4.89
229.369	-2.51
229.839	5.09
230.31	16.29
230.781	-2.31
231.252	6.49
231.722	-1.71
232.193	8.09
232.664	12.69
233.135	3.69
233.605	10.69
234.076	7.49
234.546	4.89
235.017	5.49
235.487	7.49
235.958	16.49
236.428	3.49
236.899	2.09
237.369	8.69
237.84	1.09
238.31	9.09
238.78	13.69
239.251	8.69
239.721	7.29
240.191	1.29
240.662	20.89
241.132	2.09
241.602	19.69
242.072	20.09
242.542	2.49
243.013	1.09
243.483	7.49
243.953	17.49
244.423	5.09
244.893	11.29
245.363	-2.71
245.833	10.49
246.303	15.49
246.773	22.69
247.243	17.49
247.712	9.49
248.182	19.49
248.652	12.69
249.122	13.09
249.592	28.89
250.061	41.69
250.531	74.89
251.001	48.49
251.471	45.89
251.94	27.29
252.41	19.29
252.879	25.09
253.349	21.29
253.818	8.49
254.288	12.29
254.757	18.89
255.227	22.49
255.696	13.89
256.166	11.09
256.635	10.09
257.105	11.49
257.574	6.09
258.043	23.09
258.513	19.89
258.982	26.09
259.451	28.89
259.92	12.49
260.389	29.69
260.859	24.89
261.328	18.49
261.797	22.49
262.266	22.29
262.735	21.09
263.204	26.29
263.673	19.89
264.142	17.29
264.611	15.49
265.08	21.29
265.549	13.89
266.018	26.09
266.487	11.69
266.955	18.49
267.424	17.09
267.893	19.69
268.362	14.69
268.83	21.49
269.299	28.29
269.768	19.29
270.236	22.89
270.705	19.69
271.174	22.49
271.642	18.89
272.111	21.09
272.579	25.49
273.048	27.49
273.516	34.89
273.985	34.09
274.453	37.89
274.922	29.29
275.39	33.09
275.858	29.09
276.327	20.49
276.795	35.29
277.263	32.09
277.731	61.49
278.2	110.89
278.668	128.69
279.136	93.89
279.604	53.49
280.072	33.49
280.54	42.09
281.008	29.89
281.477	20.69
281.945	29.69
282.413	28.69
282.881	32.69
283.348	36.29
283.816	49.09
284.284	31.89
284.752	32.89
285.22	29.69
285.688	25.69
286.156	25.49
286.623	66.49
287.091	81.69
287.559	55.09
288.026	37.89
288.494	30.49
288.962	31.49
289.429	29.89
289.897	33.29
290.364	30.49
290.832	42.89
291.3	30.49
291.767	36.49
292.234	52.49
292.702	31.69
293.169	38.09
293.637	44.09
294.104	39.29
294.571	38.69
295.039	48.69
295.506	34.29
295.973	36.29
296.44	45.69
296.908	47.29
297.375	36.09
297.842	39.89
298.309	38.29
298.776	42.09
299.243	37.29
299.71	35.69
300.177	40.49
300.644	52.29
301.111	30.09
301.578	39.29
302.045	35.09
302.512	38.29
302.979	41.89
303.446	42.29
303.913	47.69
304.379	50.49
304.846	50.49
305.313	47.29
305.78	51.29
306.246	45.69
306.713	51.09
307.18	58.09
307.646	50.49
308.113	60.69
308.579	56.89
309.046	58.49
309.512	51.29
309.979	45.29
310.445	46.89
310.912	61.49
311.378	50.29
311.845	55.69
312.311	62.89
312.777	48.09
313.244	65.49
313.71	53.29
314.176	75.09
314.642	94.29
315.109	90.29
315.575	63.09
316.041	72.89
316.507	116.69
316.973	138.09
317.439	86.49
317.905	78.09
318.371	72.09
318.837	58.29
319.303	74.29
319.769	63.89
320.235	60.69
320.701	60.29
321.167	61.29
321.633	78.09
322.099	73.69
322.564	69.69
323.03	78.69
323.496	63.49
323.962	66.29
324.427	68.69
324.893	69.49
325.359	61.49
325.824	78.69
326.29	64.09
326.755	73.29
327.221	64.49
327.686	75.49
328.152	79.29
328.617	69.29
329.083	63.29
329.548	77.89
330.014	79.49
330.479	60.29
330.944	69.89
331.41	82.69
331.875	86.49
332.34	82.29
332.805	79.29
333.271	88.09
333.736	83.09
334.201	78.69
334.666	75.29
335.131	85.49
335.596	88.69
336.061	87.29
336.526	86.49
336.991	96.69
337.456	86.29
337.921	77.09
338.386	81.09
338.851	84.29
339.316	81.89
339.781	82.09
340.246	79.09
340.711	88.09
341.175	81.29
341.64	93.09
342.105	88.69
342.569	81.89
343.034	95.29
343.499	94.89
343.963	89.89
344.428	101.89
344.893	93.49
345.357	96.69
345.822	96.29
346.286	119.09
346.751	100.89
347.215	114.29
347.679	105.89
348.144	105.09
348.608	106.49
349.073	118.29
349.537	114.29
350.001	121.49
350.465	117.69
350.93	122.69
351.394	113.49
351.858	119.69
352.322	124.09
352.786	124.49
353.25	120.29
353.715	130.29
354.179	132.29
354.643	134.49
355.107	138.09
355.571	130.29
356.035	135.09
356.498	128.09
356.962	127.49
357.426	129.69
357.89	128.69
358.354	124.09
358.818	117.49
359.281	118.49
359.745	129.49
360.209	133.09
360.673	125.09
361.136	122.09
361.6	123.89
362.064	128.49
362.527	142.09
362.991	133.89
363.454	130.09
363.918	135.09
364.381	139.09
364.845	138.69
365.308	141.49
365.772	146.29
366.235	146.49
366.698	150.69
367.162	147.29
367.625	144.49
368.088	152.49
368.552	152.09
369.015	152.29
369.478	174.69
369.941	158.09
370.404	154.49
370.867	152.49
371.331	157.49
371.794	168.49
372.257	184.89
372.72	174.89
373.183	159.09
373.646	156.49
374.109	169.89
374.572	164.89
375.035	166.49
375.497	166.69
375.96	161.29
376.423	165.49
376.886	177.89
377.349	173.49
377.811	161.09
378.274	164.49
378.737	180.49
379.199	172.89
379.662	188.09
380.125	185.49
380.587	185.89
381.05	193.69
381.512	188.09
381.975	187.49
382.437	209.29
382.9	196.29
383.362	199.89
383.825	197.29
384.287	208.89
384.75	208.69
385.212	218.09
385.674	200.49
386.136	197.69
386.599	224.09
387.061	273.69
387.523	302.09
387.985	325.49
388.447	361.29
388.91	349.69
389.372	397.89
389.834	383.09
390.296	401.69
390.758	458.09
391.22	517.89
391.682	765.89
392.144	1396.49
392.606	1037.69
393.068	492.09
393.529	393.29
393.991	369.29
394.453	357.29
394.915	408.69
395.377	690.09
395.838	880.29
396.3	435.09
396.762	261.09
397.224	227.89
397.685	214.49
398.147	212.49
398.608	212.29
399.07	211.89
399.531	216.89
399.993	217.89
400.454	226.49
400.916	230.29
401.377	230.69
401.839	240.49
402.3	237.49
402.762	257.09
403.223	253.69
403.684	250.89
404.145	240.09
404.607	237.49
405.068	241.89
405.529	258.09
405.99	257.69
406.451	270.69
406.913	263.69
407.374	255.49
407.835	257.89
408.296	273.69
408.757	263.89
409.218	278.49
409.679	270.89
410.14	269.29
410.601	285.89
411.062	269.29
411.522	267.09
411.983	287.29
412.444	272.89
412.905	277.49
413.366	277.89
413.826	291.89
414.287	318.69
414.748	370.49
415.208	356.29
415.669	303.49
416.13	278.29
416.59	291.29
417.051	289.29
417.511	309.49
417.972	332.49
418.432	339.29
418.893	384.09
419.353	342.29
419.814	271.29
420.274	266.09
420.734	279.29
421.195	293.29
421.655	306.89
422.115	273.29
422.576	270.29
423.036	266.29
423.496	280.69
423.956	290.69
424.416	317.09
424.876	344.29
425.336	344.89
425.797	346.89
426.257	341.29
426.717	341.09
427.177	336.29
427.637	341.69
428.097	368.49
428.556	393.49
429.016	427.89
429.476	421.29
429.936	428.89
430.396	439.29
430.856	455.09
431.315	464.09
431.775	471.89
432.235	495.09
432.694	503.29
433.154	486.29
433.614	476.49
434.073	451.69
434.533	406.89
434.993	367.09
435.452	365.49
435.912	364.49
436.371	339.49
436.83	332.29
437.29	320.29
437.749	327.29
438.209	317.09
438.668	305.89
439.127	317.09
439.587	295.09
440.046	286.09
440.505	300.09
440.964	305.29
441.424	308.69
441.883	305.89
442.342	302.49
442.801	276.49
443.26	276.89
443.719	287.09
444.178	294.89
444.637	270.29
445.096	275.89
445.555	274.69
446.014	269.89
446.473	277.29
446.932	259.29
447.391	280.09
447.849	286.29
448.308	276.29
448.767	280.69
449.226	291.49
449.685	276.69
450.143	295.09
450.602	295.49
451.061	283.49
451.519	271.09
451.978	267.89
452.436	271.29
452.895	276.49
453.353	271.49
453.812	286.49
454.27	264.29
454.729	271.29
455.187	279.49
455.646	290.09
456.104	281.49
456.562	286.29
457.021	289.69
457.479	274.49
457.937	291.29
458.395	284.29
458.854	280.89
459.312	286.29
459.77	290.69
460.228	291.29
460.686	292.49
461.144	281.49
461.602	294.29
462.06	281.29
462.518	303.89
462.976	305.89
463.434	298.09
463.892	305.09
464.35	305.29
464.808	313.49
465.266	300.49
465.724	326.49
466.181	315.09
466.639	321.89
467.097	335.09
467.555	346.49
468.012	344.89
468.47	358.89
468.928	364.09
469.385	376.69
469.843	370.29
470.3	382.69
470.758	408.49
471.215	400.49
471.673	416.09
472.13	427.69
472.588	428.69
473.045	428.69
473.503	453.29
473.96	468.69
474.417	465.49
474.875	508.69
475.332	518.29
475.789	546.49
476.246	566.69
476.704	608.89
477.161	637.29
477.618	677.29
478.075	738.89
478.532	829.29
478.989	934.29
479.446	1065.69
479.903	1151.89
480.36	1320.09
480.817	1458.49
481.274	1574.29
481.731	1763.89
482.188	1912.69
482.645	2065.69
483.102	2191.69
483.558	2337.69
484.015	2427.89
484.472	2362.29
484.929	2264.49
485.385	2135.89
485.842	2023.89
486.299	1890.89
486.755	1680.09
487.212	1412.89
487.668	1264.69
488.125	1122.29
488.582	1009.29
489.038	928.89
489.494	877.09
489.951	833.69
490.407	779.69
490.864	759.49
491.32	743.09
491.776	710.49
492.233	714.89
492.689	688.49
493.145	678.29
493.602	653.49
494.058	662.49
494.514	649.69
494.97	661.09
495.426	656.09
495.882	671.09
496.338	657.29
496.794	651.29
497.251	640.49
497.707	628.69
498.163	642.69
498.618	633.49
499.074	639.89
499.53	666.09
499.986	661.49
500.442	659.89
500.898	663.69
501.354	660.69
501.809	662.69
502.265	652.49
502.721	676.29
503.177	674.89
503.632	667.09
504.088	672.09
504.543	686.89
504.999	683.29
505.455	650.09
505.91	637.89
506.366	652.29
506.821	648.09
507.277	649.69
507.732	644.49
508.187	641.29
508.643	645.09
509.098	660.09
509.553	662.09
510.009	669.69
510.464	682.89
510.919	685.89
511.375	693.49
511.83	711.29
512.285	705.49
512.74	701.49
513.195	713.89
513.65	730.89
514.105	750.29
514.56	731.69
515.015	753.29
515.47	760.49
515.925	770.69
516.38	742.09
516.835	760.89
517.29	736.89
517.745	764.69
518.2	736.49
518.655	706.49
519.109	723.49
519.564	708.49
520.019	686.89
520.474	680.29
520.928	683.89
521.383	675.29
521.838	671.49
522.292	687.09
522.747	672.89
523.201	678.69
523.656	668.49
524.11	665.09
524.565	670.89
525.019	681.89
525.474	666.09
525.928	653.69
526.382	654.49
526.837	651.49
527.291	656.69
527.745	645.69
528.2	652.29
528.654	637.29
529.108	646.69
529.562	653.49
530.016	632.29
530.47	632.89
530.925	657.09
531.379	649.49
531.833	650.09
532.287	645.89
532.741	656.29
533.195	647.29
533.649	646.69
534.103	636.49
534.556	639.09
535.01	630.89
535.464	620.09
535.918	647.89
536.372	638.09
536.826	638.49
537.279	623.29
537.733	636.09
538.187	650.89
538.64	653.09
539.094	653.09
539.548	646.49
540.001	660.69
540.455	661.29
540.908	661.29
541.362	675.09
541.815	685.09
542.269	686.49
542.722	688.09
543.175	699.49
543.629	704.29
544.082	711.69
544.536	712.69
544.989	718.49
545.442	716.49
545.895	722.29
546.349	724.09
546.802	722.09
547.255	734.69
547.708	745.49
548.161	751.49
548.614	746.29
549.067	740.89
549.52	745.29
549.973	762.29
550.426	738.49
550.879	749.69
551.332	747.69
551.785	767.69
552.238	769.89
552.691	758.49
553.144	768.09
553.596	759.49
554.049	776.29
554.502	792.09
554.955	786.29
555.407	783.09
555.86	774.29
556.313	762.49
556.765	772.49
557.218	766.09
557.67	763.69
558.123	742.69
558.576	737.09
559.028	724.09
559.48	724.89
559.933	717.29
560.385	714.69
560.838	695.69
561.29	674.09
561.742	681.09
562.195	640.69
562.647	646.09
563.099	656.29
563.551	628.89
564.004	650.49
564.456	637.29
564.908	628.29
565.36	609.89
565.812	588.09
566.264	600.49
566.716	594.49
567.168	587.09
567.62	592.69
568.072	571.09
568.524	583.69
568.976	566.09
569.428	566.49
569.88	566.89
570.332	568.09
570.784	559.89
571.235	570.49
571.687	574.29
572.139	578.89
572.59	569.29
573.042	564.09
573.494	578.29
573.945	562.89
574.397	565.09
574.849	575.49
575.3	555.89
575.752	536.29
576.203	529.69
576.655	555.29
577.106	553.69
577.557	549.29
578.009	536.69
578.46	538.49
578.912	538.69
579.363	539.89
579.814	544.09
580.265	546.69
580.717	544.69
581.168	542.09
581.619	539.89
582.07	553.89
582.521	565.29
582.972	553.69
583.423	558.29
583.875	606.29
584.326	699.49
584.777	864.69
585.227	1077.29
585.678	1260.29
586.129	1313.09
586.58	1353.49
587.031	1327.89
587.482	1519.89
587.933	1924.89
588.384	1650.49
588.834	994.09
589.285	668.89
589.736	623.69
590.186	607.89
590.637	598.89
591.088	597.49
591.538	582.89
591.989	556.49
592.439	562.49
592.89	572.09
593.34	566.29
593.791	578.89
594.241	554.09
594.692	565.69
595.142	561.49
595.593	561.09
596.043	567.89
596.493	578.69
596.943	571.29
597.394	584.89
597.844	586.89
598.294	611.49
598.744	623.29
599.195	652.09
599.645	688.49
600.095	725.09
600.545	748.49
600.995	785.69
601.445	791.09
601.895	817.29
602.345	842.89
602.795	836.49
603.245	799.69
603.695	744.69
604.145	710.49
604.594	682.29
605.044	653.69
605.494	614.09
605.944	603.29
606.393	598.89
606.843	585.69
607.293	590.09
607.743	574.09
608.192	593.29
608.642	596.69
609.091	594.49
609.541	605.49
609.99	596.89
610.44	589.89
610.889	598.89
611.339	586.89
611.788	573.49
612.238	581.09
612.687	598.09
613.136	592.89
613.586	606.49
614.035	620.09
614.484	623.89
614.933	615.29
615.383	584.29
615.832	573.89
616.281	580.29
616.73	558.29
617.179	545.29
617.628	542.69
618.077	535.09
618.526	533.89
618.975	511.29
619.424	518.29
619.873	534.89
620.322	518.09
620.771	510.69
621.22	503.49
621.669	498.49
622.118	485.89
622.567	489.09
623.015	479.49
623.464	471.69
623.913	475.49
624.361	458.09
624.81	433.69
625.259	441.09
625.707	422.09
626.156	425.89
626.604	436.89
627.053	433.69
627.501	435.49
627.95	428.49
628.398	436.29
628.847	423.29
629.295	422.69
629.744	411.49
630.192	409.49
630.64	419.69
631.089	419.29
631.537	431.89
631.985	432.69
632.433	430.49
632.881	433.49
633.33	448.09
633.778	453.69
634.226	427.09
634.674	411.89
635.122	423.09
635.57	424.09
636.018	431.29
636.466	428.49
636.914	414.29
637.362	430.09
637.81	429.09
638.258	449.89
638.705	457.89
639.153	478.69
639.601	464.69
640.049	464.09
640.497	491.49
640.944	502.69
641.392	487.49
641.84	469.69
642.287	460.09
642.735	466.09
643.182	469.49
643.63	462.89
644.078	484.69
644.525	498.09
644.973	505.29
645.42	519.09
645.867	528.69
646.315	552.09
646.762	604.09
647.21	626.69
647.657	664.49
648.104	736.09
648.551	791.89
648.999	887.09
649.446	1010.49
649.893	1222.09
650.34	1501.29
650.787	1947.89
651.234	2653.89
651.682	3849.89
652.129	5632.29
652.576	8161.89
653.023	10865.09
653.47	12278.09
653.917	12736.09
654.363	12709.49
654.81	13050.89
655.257	12560.09
655.704	8477.89
656.151	5086.69
656.598	3267.09
657.044	2304.29
657.491	1748.69
657.938	1361.49
658.385	1111.29
658.831	957.09
659.278	813.69
659.724	733.09
660.171	655.69
660.618	594.09
661.064	555.69
661.511	513.29
661.957	494.09
662.404	452.69
662.85	465.69
663.296	440.49
663.743	433.09
664.189	396.29
664.635	413.29
665.082	396.09
665.528	375.89
665.974	370.49
666.42	357.69
666.867	377.69
667.313	377.49
667.759	376.89
668.205	356.09
668.651	371.49
669.097	355.29
669.543	373.09
669.989	339.49
670.435	335.69
670.881	336.09
671.327	340.29
671.773	359.69
672.219	388.49
672.665	414.69
673.11	414.09
673.556	400.09
674.002	419.49
674.448	386.49
674.893	338.89
675.339	304.09
675.785	287.89
676.23	270.49
676.676	252.69
677.122	246.89
677.567	253.49
678.013	239.69
678.458	229.89
678.904	242.89
679.349	240.29
679.794	235.09
680.24	249.09
680.685	235.29
681.131	224.49
681.576	227.49
682.021	236.49
682.466	239.69
682.912	239.69
683.357	252.69
683.802	276.09
684.247	306.69
684.692	311.89
685.137	320.49
685.583	337.69
686.028	330.29
686.473	319.09
686.918	279.49
687.363	251.49
687.807	247.69
688.252	247.69
688.697	224.69
689.142	223.49
689.587	215.49
690.032	223.29
690.477	232.09
690.921	254.89
691.366	269.69
691.811	281.49
692.255	291.69
692.7	353.09
693.145	538.89
693.589	814.49
694.034	923.29
694.478	885.29
694.923	775.69
695.367	1034.69
695.812	645.29
696.256	315.29
696.701	246.89
697.145	224.69
697.59	205.49
698.034	216.49
698.478	216.29
698.922	217.09
699.367	217.09
699.811	224.09
700.255	257.69
700.699	275.69
701.143	294.89
701.588	291.29
702.032	308.29
702.476	308.69
702.92	346.49
703.364	465.29
703.808	736.49
704.252	869.89
704.696	834.89
705.14	759.89
705.584	963.49
706.027	577.69
706.471	311.49
706.915	234.69
707.359	224.69
707.803	189.29
708.246	200.29
708.69	195.29
709.134	200.69
709.577	197.49
710.021	200.69
710.465	191.09
710.908	187.29
711.352	196.49
711.795	223.69
712.239	238.49
712.682	240.09
713.126	238.29
713.569	248.29
714.012	212.69
714.456	200.89
714.899	198.09
715.342	155.09
715.786	165.49
716.229	173.49
716.672	164.29
717.115	154.89
717.558	159.49
718.002	174.49
718.445	186.09
718.888	177.49
719.331	195.89
719.774	187.49
720.217	195.29
720.66	166.89
721.103	168.29
721.546	155.49
721.989	159.49
722.432	145.09
722.874	149.09
723.317	152.49
723.76	168.09
724.203	214.69
724.645	280.49
725.088	312.69
725.531	281.49
725.974	300.09
726.416	267.49
726.859	179.89
727.301	161.09
727.744	137.89
728.187	160.29
728.629	151.09
729.071	163.89
729.514	166.89
729.956	178.29
730.399	166.69
730.841	165.69
731.283	163.49
731.726	157.29
732.168	159.89
732.61	182.49
733.053	193.09
733.495	209.09
733.937	244.29
734.379	275.29
734.821	348.29
735.263	566.89
735.705	1002.09
736.148	1388.29
736.59	1239.09
737.032	1241.89
737.474	1047.49
737.916	457.29
738.357	259.29
738.799	191.89
739.241	179.69
739.683	189.09
740.125	186.09
740.567	190.09
741.008	191.29
741.45	201.09
741.892	208.29
742.334	213.69
742.775	209.29
743.217	202.29
743.658	163.89
744.1	181.69
744.542	201.69
744.983	210.29
745.425	211.09
745.866	218.49
746.307	192.29
746.749	207.89
747.19	310.29
747.632	614.49
748.073	1078.49
748.514	1333.29
748.956	1729.29
749.397	1936.69
749.838	1349.09
750.279	1164.49
750.72	687.89
751.162	318.29
751.603	176.29
752.044	146.09
752.485	136.89
752.926	124.49
753.367	105.69
753.808	124.29
754.249	115.89
754.69	110.69
755.131	120.49
755.572	112.49
756.013	116.09
756.453	120.49
756.894	125.89
757.335	116.69
757.776	129.89
758.216	136.89
758.657	149.49
759.098	145.89
759.538	183.89
759.979	263.29
760.42	524.69
760.86	1276.09
761.301	2428.09
761.741	2522.09
762.182	2587.49
762.622	1820.89
763.063	796.29
763.503	503.49
763.943	728.89
764.384	1110.09
764.824	1062.29
765.264	1109.89
765.705	575.29
766.145	267.09
766.585	207.29
767.025	293.69
767.465	576.09
767.906	809.89
768.346	799.89
768.786	749.29
769.226	439.89
769.666	486.69
770.106	923.29
770.546	1131.49
770.986	1106.49
771.426	875.89
771.866	425.09
772.306	200.29
772.745	131.89
773.185	117.89
773.625	120.49
774.065	139.69
774.505	210.09
774.944	405.89
775.384	554.69
775.824	567.49
776.263	474.89
776.703	256.09
777.142	135.69
777.582	115.89
778.021	103.89
778.461	100.29
778.9	85.69
779.34	78.89
779.779	83.49
780.219	79.09
780.658	63.29
781.097	75.29
781.537	69.49
781.976	52.69
782.415	57.69
782.855	51.89
783.294	63.49
783.733	70.89
784.172	61.89
784.611	67.09
785.05	69.09
785.489	69.69
785.928	61.69
786.367	62.69
786.806	78.89
787.245	76.29
787.684	77.49
788.123	79.09
788.562	84.89
789.001	74.89
789.44	69.49
789.879	72.09
790.317	71.29
790.756	79.29
791.195	79.69
791.634	127.89
792.072	225.09
792.511	563.49
792.95	909.29
793.388	958.69
793.827	658.49
794.265	340.89
794.704	179.69
795.142	100.69
795.581	82.69
796.019	80.29
796.458	73.69
796.896	79.09
797.334	96.09
797.773	126.29
798.211	248.89
798.649	499.29
799.087	764.69
799.526	1064.69
799.964	1005.89
800.402	695.69
800.84	354.49
801.278	181.49
801.716	111.69
802.154	96.29
802.592	92.49
803.03	87.29
803.468	87.89
803.906	87.89
804.344	106.49
804.782	90.69
805.22	87.49
805.658	87.29
806.096	92.09
806.533	107.49
806.971	132.89
807.409	187.69
807.847	396.69
808.284	927.09
808.722	1452.29
809.16	1970.29
809.597	2803.09
810.035	2980.29
810.472	1960.49
810.91	990.49
811.347	466.49
811.785	218.69
812.222	138.29
812.66	100.69
813.097	88.29
813.535	73.69
813.972	69.49
814.409	62.89
814.846	55.29
815.284	65.89
815.721	61.49
816.158	77.49
816.595	98.09
817.032	114.89
817.47	102.89
817.907	83.49
818.344	78.09
818.781	58.89
819.218	82.89
819.655	121.49
820.092	143.29
820.529	131.49
820.966	106.89
821.403	84.09
821.839	65.09
822.276	88.69
822.713	82.69
823.15	74.09
823.587	81.29
824.023	166.89
824.46	400.49
824.897	587.49
825.333	432.49
825.77	237.09
826.206	118.69
826.643	72.89
827.08	55.49
827.516	44.09
827.953	48.09
828.389	42.89
828.825	42.89
829.262	47.29
829.698	51.89
830.135	35.69
830.571	49.09
831.007	39.29
831.443	57.49
831.88	28.89
832.316	28.49
832.752	42.89
833.188	45.69
833.624	37.09
834.06	45.49
834.497	43.89
834.933	41.49
835.369	56.29
835.805	45.89
836.241	60.29
836.677	55.89
837.112	60.29
837.548	76.69
837.984	121.29
838.42	255.49
838.856	653.29
839.292	1077.69
839.727	796.29
840.163	645.29
840.599	926.09
841.034	1158.09
841.47	656.09
841.906	360.49
842.341	210.69
842.777	175.49
843.212	167.49
843.648	121.69
844.083	72.49
844.519	50.49
844.954	33.69
845.39	39.09
845.825	37.69
846.261	36.29
846.696	30.09
847.131	41.69
847.566	30.09
848.002	33.29
848.437	47.49
848.872	40.29
849.307	49.49
849.742	99.09
850.177	219.29
850.613	394.49
851.048	282.89
851.483	156.49
851.918	90.69
852.353	67.09
852.788	73.69
853.223	47.09
853.657	35.89
854.092	23.09
854.527	18.69
854.962	24.49
855.397	29.89
855.832	20.69
856.266	34.49
856.701	21.29
857.136	27.49
857.57	27.09
858.005	31.29
858.44	29.49
858.874	18.89
859.309	23.09
859.743	18.89
860.178	18.49
860.612	13.69
861.047	31.29
861.481	49.29
861.915	28.29
862.35	34.09
862.784	7.49
863.218	29.89
863.653	23.69
864.087	29.09
864.521	47.69
864.955	81.89
865.39	107.89
865.824	83.49
866.258	95.09
866.692	128.89
867.126	91.49
867.56	52.09
867.994	28.09
868.428	38.89
868.862	33.89
869.296	38.89
869.73	29.89
870.164	25.09
870.598	29.29
871.031	22.89
871.465	16.29
871.899	19.29
872.333	29.29
872.766	20.29
873.2	10.89
873.634	11.89
874.067	21.09
874.501	10.09
874.935	18.69
875.368	15.89
875.802	17.09
876.235	7.89
876.669	10.69
877.102	15.69
877.535	10.69
877.969	17.69
878.402	15.49
878.836	21.29
879.269	9.29
879.702	28.69
880.135	11.49
880.569	13.29
881.002	24.89
881.435	3.49
881.868	7.09
882.301	13.49
882.734	17.29
883.167	15.09
883.601	7.69
884.034	15.09
884.467	10.09
884.899	6.29
885.332	17.69
885.765	9.29
886.198	15.49
886.631	11.69
887.064	11.09
887.497	9.69
887.929	12.69
888.362	11.69
888.795	12.69
889.228	10.29
889.66	25.69
890.093	16.69
890.526	15.09
890.958	4.89
891.391	15.49
891.823	15.89
892.256	14.29
892.688	6.69
893.121	9.09
893.553	16.69
893.985	1.09
894.418	8.29
894.85	9.89
895.282	1.09
895.715	1.29
896.147	13.69
896.579	12.69
897.011	13.09
897.444	13.09
897.876	9.29
898.308	8.29
898.74	6.69
899.172	2.49
899.604	7.89
900.036	15.49
900.468	5.49
900.9	10.09
901.332	13.69
901.764	8.29
902.196	15.69
902.628	18.89
903.06	28.09
903.491	26.29
903.923	24.09
904.355	10.49
904.787	22.09
905.218	23.49
905.65	16.69
906.082	6.69
906.513	5.29
906.945	8.49
907.376	13.69
907.808	11.49
908.239	22.49
908.671	13.09
909.102	22.89
909.534	21.69
909.965	52.69
910.397	93.69
910.828	251.29
911.259	155.29
911.691	99.69
912.122	62.69
912.553	25.29
912.984	11.49
913.415	17.29
913.847	11.89
914.278	5.89
914.709	9.69
915.14	6.09
915.571	-1.11
916.002	3.89
916.433	7.49
916.864	6.49
917.295	7.29
917.726	13.49
918.157	17.29
918.587	18.29
919.018	4.09
919.449	18.09
919.88	4.29
920.311	29.69
920.741	54.49
921.172	86.29
921.603	53.89
922.033	37.89
922.464	23.69
922.895	17.29
923.325	17.89
923.756	2.29
924.186	11.89
924.617	28.69
925.047	39.69
925.478	36.29
925.908	20.09
926.338	4.09
926.769	7.89
927.199	13.69
927.629	5.69
928.06	11.09
928.49	8.09
928.92	4.49
929.35	7.89
929.78	5.49
930.21	8.29
930.641	-1.11
931.071	10.89
931.501	12.09
931.931	-4.11
932.361	0.29
932.791	7.89
933.221	6.09
933.651	10.89
934.08	18.49
934.51	7.29
934.94	19.09
935.37	14.09
935.8	2.49
936.229	10.69
936.659	-1.31
937.089	5.89
937.519	1.09
937.948	16.89
938.378	5.49
938.807	12.89
939.237	4.89
939.666	1.29
940.096	9.49
940.525	-3.11
940.955	8.49
941.384	1.29
941.814	5.89
942.243	5.69
942.672	8.89
943.102	7.69
943.531	-0.11
943.96	13.49
944.39	7.69
944.819	-1.31
945.248	-0.11
945.677	5.69
946.106	1.69
946.535	11.29
946.964	2.89
947.393	-3.51
947.822	3.09
948.251	-1.91
948.68	2.49
949.109	-1.31
949.538	8.29
949.967	12.29
950.396	5.69
950.825	-11.91
951.254	4.69
951.682	-5.71
952.111	4.89
952.54	0.49
952.969	-9.11
953.397	1.89
953.826	7.09
954.254	-6.51
954.683	-4.51
955.112	5.69
955.54	-1.31
955.969	3.89
956.397	-2.91
956.826	9.49
957.254	0.29
957.682	5.29
958.111	0.09
958.539	15.29
958.967	8.69
959.396	9.09
959.824	1.29
960.252	-3.91
960.68	-5.31
961.109	-1.11
961.537	7.09
961.965	-1.91
962.393	-6.91
962.821	2.89
963.249	-0.11
963.677	3.49
964.105	10.49
964.533	14.89
964.961	20.69
965.389	6.89
965.817	21.09
966.245	-0.31
966.672	0.09
967.1	6.89
967.528	4.29
967.956	2.29
968.383	-1.31
968.811	-4.11
969.239	0.29
969.666	7.89
970.094	5.69
970.522	5.69
970.949	8.29
971.377	2.09
971.804	3.29
972.232	-3.51
972.659	1.09
973.087	-1.11
973.514	6.69
973.941	2.69
974.369	-1.91
974.796	1.69
975.223	5.09
975.651	6.89
976.078	-8.31
976.505	5.29
976.932	3.89
977.359	8.49
977.786	16.89
978.214	1.89
978.641	7.49
979.068	4.09
979.495	5.89
979.922	-3.71
980.349	9.09
980.776	-5.11
981.202	-0.71
981.629	4.09
982.056	4.29
982.483	2.49
982.91	1.49
983.337	4.09
983.763	-10.11
984.19	5.69
984.617	-3.11
985.043	4.49
985.47	11.29
985.897	-0.51
986.323	-6.91
986.75	4.29
987.176	1.09
987.603	1.09
988.029	-9.11
988.456	-1.71
988.882	8.89
989.308	1.49
989.735	-6.51
990.161	0.89
990.587	-3.91
991.014	-5.11
991.44	1.49
991.866	10.69
992.292	2.49
992.719	-3.11
993.145	-1.51
993.571	-5.51
993.997	6.09
994.423	-0.71
994.849	1.49
995.275	2.49
995.701	5.29
996.127	-1.31
996.553	4.29
996.979	-1.11
997.405	2.89
997.83	-0.31
998.256	-1.51
998.682	5.69
999.108	16.49
999.534	0.29
999.959	-1.91
1000.385	7.49
1000.811	-3.51
1001.236	-2.11
1001.662	1.89
1002.087	2.49
1002.513	5.29
1002.938	-0.71
1003.364	12.89
1003.789	-6.51
1004.215	8.09
1004.64	3.29
1005.066	-7.91
1005.491	10.09
1005.916	8.09
1006.342	-0.11
1006.767	-0.11
1007.192	0.29
1007.617	-9.71
1008.042	8.29
1008.468	-7.71
1008.893	5.69
1009.318	17.29
1009.743	8.29
1010.168	-4.31
1010.593	-2.71
1011.018	3.89
1011.443	0.69
1011.868	5.09
1012.293	6.29
1012.718	-0.51
1013.143	0.49
1013.567	2.09
1013.992	-1.51
1014.417	3.29
1014.842	-5.11
1015.267	-8.51
1015.691	5.89
1016.116	2.09
1016.541	-4.71
1016.965	-6.51
1017.39	-9.11
1017.814	9.89
1018.239	2.69
1018.663	5.09
1019.088	-5.51
1019.512	4.09
1019.937	-1.91
1020.361	-3.91
1020.785	0.29
1021.21	1.29
1021.634	8.09
1022.058	1.89
1022.483	-4.31
1022.907	4.89
1023.331	6.69
1023.755	3.69
1024.179	5.49
1024.604	12.09
1025.028	11.69
1025.452	-4.91
1025.876	1.69
1026.3	3.09
1026.724	3.09
1027.148	9.49
1027.572	-10.11
1027.996	-2.31
1028.42	0.69
1028.843	-8.71
1029.267	0.09
1029.691	7.29
1030.115	4.69
1030.539	-2.71
1030.962	1.09
1031.386	0.69
1031.81	0.09
1032.233	1.69
1032.657	-1.11
1033.08	4.49
1033.504	-3.31
1033.927	-2.11
1034.351	2.09
1034.774	-3.91
1035.198	-1.11
1035.621	-1.11
1036.045	2.69
1036.468	1.89
1036.891	1.29
1037.315	-4.91
1037.738	7.29
1038.161	0.29
1038.584	-6.31
1039.008	-7.11
1039.431	8.09
1039.854	-1.51
1040.277	-0.11
1040.7	3.49
1041.123	-5.11
1041.546	-6.91
1041.969	-0.51
1042.392	-1.11
1042.815	7.89
1043.238	2.49
1043.661	-5.51
1044.084	-2.71
1044.507	-9.11
1044.93	-1.31
1045.352	-0.71
1045.775	-5.71
1046.198	0.89
1046.621	2.49
1047.043	7.29
1047.466	12.69
1047.889	10.89
1048.311	2.89
1048.734	-0.31
1049.156	1.29
1049.579	0.89
1050.001	8.49
1050.424	0.69
1050.846	-5.11
1051.269	-3.91
1051.691	1.89
1052.113	-8.91
1052.536	6.09
1052.958	3.89
1053.38	-2.31
1053.802	5.29
1054.225	1.69
1054.647	-2.91
1055.069	4.69
1055.491	0.69
1055.913	6.69
1056.335	-1.51
1056.757	4.69
1057.179	-4.91
1057.601	-4.71
1058.023	4.89
1058.445	-13.51
1058.867	-4.11
1059.289	-2.51
1059.711	3.09
1060.133	-12.31
1060.555	-6.51
1060.976	-4.31
1061.398	-5.31
1061.82	-0.91
1062.241	-4.51
1062.663	5.49
1063.085	-6.31
1063.506	8.49
1063.928	-5.11
1064.35	-12.31
1064.771	6.69
1065.193	2.89
1065.614	-5.11
1066.035	-1.31
1066.457	-0.11
1066.878	-1.71
1067.3	-3.11
1067.721	-0.71
1068.142	-3.31
1068.564	7.69
1068.985	2.89
1069.406	-2.71
1069.827	11.49
1070.248	-5.11
1070.67	3.69
1071.091	4.69
1071.512	-0.11
1071.933	-4.51
1072.354	-13.71
1072.775	7.29
1073.196	-3.91
1073.617	3.49
1074.038	4.29
1074.459	-1.11
1074.88	2.69
1075.3	0.09
1075.721	-3.11
1076.142	0.69
1076.563	7.29
1076.983	-7.71
1077.404	-8.31
1077.825	1.89
1078.246	-9.71
1078.666	-5.51
1079.087	5.29
1079.507	-10.71
1079.928	-10.31
1080.348	-0.91
1080.769	-1.51
1081.189	-3.71
1081.61	2.69
1082.03	-0.91
1082.451	-1.11
1082.871	-4.31
1083.291	-3.51
1083.711	-2.91
1084.132	0.49
1084.552	13.89
1084.972	7.09
1085.392	5.89
1085.813	6.29
1086.233	-0.51
1086.653	-3.51
1087.073	-5.11
1087.493	3.09
1087.913	-1.51
1088.333	5.69
1088.753	-0.51
1089.173	1.29
1089.593	-7.91
1090.013	-2.71
1090.433	1.69
1090.852	3.69
1091.272	-7.71
1091.692	-7.11
1092.112	-10.11
1092.531	-0.11
1092.951	5.09
1093.371	7.09
1093.79	3.49
1094.21	8.29
1094.63	6.69
1095.049	3.09
1095.469	-2.11
1095.888	5.29
1096.308	7.69
1096.727	2.69
1097.146	13.89
1097.566	8.09
1097.985	-2.31
1098.405	10.49
1098.824	7.49
1099.243	6.49
1099.662	-1.71
1100.082	7.09
1100.501	6.09
1100.92	-4.71
1101.339	6.89
1101.758	6.49
