Data from 20170906_ORNL-Torch-Sil_Subt14_14-33-16-145.txt Node
Date: Wed Sep 06 14:33:16 EDT 2017
User: Ender
Spectrometer: HR+D1039
Trigger mode: 0
Integration Time (sec): 1.676000E-2
Scans to average: 10
Electric dark correction enabled: true
Nonlinearity correction enabled: false
Boxcar width: 0
XAxis mode: Wavelengths
Number of Pixels in Spectrum: 2048
>>>>>Begin Spectral Data<<<<<
187.836	33.61
188.309	33.61
188.782	33.61
189.255	34.71
189.728	38.81
190.201	-19.79
190.674	1.61
191.147	9.41
191.619	6.91
192.092	7.61
192.565	-27.99
193.038	0.51
193.511	-3.59
193.984	-1.39
194.456	-4.99
194.929	-30.19
195.402	-26.19
195.874	-19.09
196.347	3.21
196.82	0.51
197.292	-20.49
197.765	-8.49
198.237	-29.99
198.71	-2.89
199.182	5.01
199.655	8.91
200.127	-14.79
200.6	2.71
201.072	7.51
201.544	-45.79
202.017	-1.69
202.489	0.11
202.961	-1.69
203.433	4.71
203.906	-5.19
204.378	-5.19
204.85	-1.39
205.322	-4.69
205.794	1.41
206.266	-42.59
206.739	-5.09
207.211	-23.19
207.683	0.91
208.155	-11.19
208.627	3.91
209.099	-19.49
209.57	-10.69
210.042	-3.99
210.514	-7.09
210.986	-4.59
211.458	-13.79
211.93	-18.79
212.402	-1.79
212.873	-3.59
213.345	-12.59
213.817	-3.09
214.288	-10.89
214.76	-11.59
215.232	7.01
215.703	-14.79
216.175	0.21
216.646	-1.09
217.118	-50.19
217.589	-13.09
218.061	1.51
218.532	-5.49
219.004	6.71
219.475	7.11
219.946	-11.09
220.418	-0.79
220.889	-6.29
221.36	-8.89
221.832	3.51
222.303	3.01
222.774	-5.79
223.245	-12.29
223.717	-18.49
224.188	-14.59
224.659	-14.99
225.13	-5.59
225.601	-12.79
226.072	-15.99
226.543	-0.29
227.014	-1.29
227.485	-13.39
227.956	-24.99
228.427	5.11
228.898	3.01
229.369	-7.19
229.839	-11.79
230.31	5.01
230.781	-2.49
231.252	9.71
231.722	-7.59
232.193	0.21
232.664	-5.69
233.135	-7.79
233.605	-16.19
234.076	-28.69
234.546	5.61
235.017	3.41
235.487	0.71
235.958	3.71
236.428	7.31
236.899	-1.89
237.369	-0.49
237.84	-30.29
238.31	-7.69
238.78	-8.39
239.251	4.71
239.721	2.11
240.191	-4.89
240.662	-7.19
241.132	10.01
241.602	-4.79
242.072	0.41
242.542	3.31
243.013	12.91
243.483	5.71
243.953	-32.69
244.423	-2.09
244.893	12.21
245.363	-40.59
245.833	-68.39
246.303	-9.99
246.773	-12.99
247.243	6.11
247.712	-0.79
248.182	10.01
248.652	8.41
249.122	1.61
249.592	0.31
250.061	1.61
250.531	12.41
251.001	18.71
251.471	-6.49
251.94	-12.29
252.41	9.21
252.879	-6.49
253.349	11.01
253.818	-12.19
254.288	6.51
254.757	0.21
255.227	3.01
255.696	1.21
256.166	-27.29
256.635	-1.29
257.105	-15.29
257.574	-5.49
258.043	-5.79
258.513	3.21
258.982	4.91
259.451	2.51
259.92	-0.59
260.389	-9.09
260.859	14.41
261.328	-1.59
261.797	10.31
262.266	10.71
262.735	0.61
263.204	-33.19
263.673	5.31
264.142	6.21
264.611	-16.79
265.08	8.91
265.549	3.41
266.018	0.81
266.487	-12.59
266.955	4.31
267.424	17.31
267.893	-6.69
268.362	-7.69
268.83	-5.09
269.299	1.61
269.768	-3.39
270.236	11.11
270.705	-17.79
271.174	-0.89
271.642	0.51
272.111	-6.79
272.579	12.11
273.048	2.41
273.516	12.01
273.985	2.91
274.453	-23.49
274.922	-21.69
275.39	-12.19
275.858	5.41
276.327	1.31
276.795	-1.19
277.263	3.71
277.731	10.11
278.2	1.11
278.668	-10.29
279.136	-4.19
279.604	2.71
280.072	8.61
280.54	11.71
281.008	5.71
281.477	7.61
281.945	14.71
282.413	-16.39
282.881	1.71
283.348	-18.19
283.816	6.61
284.284	-11.09
284.752	6.61
285.22	2.91
285.688	6.91
286.156	1.11
286.623	-7.19
287.091	5.41
287.559	0.21
288.026	-8.99
288.494	-4.79
288.962	-11.99
289.429	8.51
289.897	8.11
290.364	9.51
290.832	12.21
291.3	5.21
291.767	2.31
292.234	3.21
292.702	-14.39
293.169	6.31
293.637	-11.19
294.104	-4.79
294.571	5.51
295.039	2.21
295.506	-5.09
295.973	-0.29
296.44	0.31
296.908	0.81
297.375	14.51
297.842	8.81
298.309	12.31
298.776	-7.69
299.243	9.31
299.71	15.21
300.177	1.71
300.644	-1.99
301.111	-15.39
301.578	-8.49
302.045	-41.89
302.512	11.61
302.979	-18.19
303.446	1.01
303.913	0.61
304.379	-0.89
304.846	-9.49
305.313	-13.59
305.78	11.11
306.246	3.31
306.713	6.31
307.18	-6.69
307.646	6.51
308.113	8.71
308.579	-6.39
309.046	0.91
309.512	-6.09
309.979	-10.09
310.445	4.41
310.912	-1.49
311.378	8.51
311.845	-4.69
312.311	12.51
312.777	1.71
313.244	6.21
313.71	14.21
314.176	12.31
314.642	2.91
315.109	-3.99
315.575	9.01
316.041	-2.89
316.507	-19.39
316.973	5.81
317.439	-4.79
317.905	4.81
318.371	-12.09
318.837	7.01
319.303	6.01
319.769	-2.59
320.235	1.31
320.701	-11.39
321.167	-14.89
321.633	8.51
322.099	10.31
322.564	12.41
323.03	-30.19
323.496	-7.29
323.962	-0.49
324.427	11.11
324.893	-17.19
325.359	7.51
325.824	11.01
326.29	10.11
326.755	3.71
327.221	2.71
327.686	7.21
328.152	1.11
328.617	6.71
329.083	4.21
329.548	17.31
330.014	3.01
330.479	7.01
330.944	9.31
331.41	-0.69
331.875	-9.59
332.34	-2.69
332.805	-3.39
333.271	5.41
333.736	0.41
334.201	-1.89
334.666	10.01
335.131	18.61
335.596	1.01
336.061	14.01
336.526	-3.79
336.991	-2.59
337.456	2.21
337.921	3.11
338.386	5.01
338.851	4.71
339.316	14.61
339.781	-5.39
340.246	7.21
340.711	2.51
341.175	10.91
341.64	-7.29
342.105	6.31
342.569	1.11
343.034	11.01
343.499	4.61
343.963	-30.49
344.428	3.41
344.893	9.11
345.357	5.71
345.822	16.41
346.286	10.21
346.751	-4.39
347.215	7.91
347.679	11.71
348.144	1.71
348.608	-4.79
349.073	11.81
349.537	-0.39
350.001	9.41
350.465	-2.09
350.93	9.11
351.394	16.21
351.858	6.81
352.322	12.61
352.786	-13.99
353.25	-31.19
353.715	-3.09
354.179	-5.79
354.643	-6.29
355.107	17.01
355.571	-4.39
356.035	7.01
356.498	12.71
356.962	14.51
357.426	-12.59
357.89	4.01
358.354	9.31
358.818	2.51
359.281	12.31
359.745	12.61
360.209	1.21
360.673	-20.39
361.136	10.01
361.6	-12.89
362.064	0.41
362.527	9.11
362.991	-8.19
363.454	1.01
363.918	3.51
364.381	4.51
364.845	-1.09
365.308	10.71
365.772	6.01
366.235	16.91
366.698	6.91
367.162	3.61
367.625	6.21
368.088	13.41
368.552	1.21
369.015	-12.79
369.478	2.01
369.941	-1.49
370.404	4.11
370.867	10.61
371.331	10.41
371.794	-10.99
372.257	3.11
372.72	19.41
373.183	19.61
373.646	-3.09
374.109	-2.89
374.572	0.11
375.035	-6.79
375.497	-63.29
375.96	3.41
376.423	6.71
376.886	0.51
377.349	-11.69
377.811	10.61
378.274	6.01
378.737	-5.09
379.199	-5.29
379.662	6.71
380.125	-13.69
380.587	6.91
381.05	6.21
381.512	14.21
381.975	9.01
382.437	4.71
382.9	11.31
383.362	1.91
383.825	-1.29
384.287	0.11
384.75	8.21
385.212	3.31
385.674	-0.59
386.136	17.91
386.599	13.41
387.061	0.31
387.523	-1.09
387.985	-3.09
388.447	-0.19
388.91	2.71
389.372	9.71
389.834	10.01
390.296	-7.19
390.758	2.11
391.22	4.81
391.682	2.61
392.144	17.71
392.606	0.81
393.068	-0.89
393.529	0.31
393.991	7.01
394.453	13.51
394.915	8.61
395.377	-11.09
395.838	6.51
396.3	-14.39
396.762	4.71
397.224	-5.39
397.685	12.11
398.147	11.61
398.608	4.51
399.07	3.71
399.531	8.81
399.993	1.01
400.454	-2.69
400.916	16.21
401.377	9.81
401.839	7.91
402.3	-10.69
402.762	4.61
403.223	-11.29
403.684	-40.39
404.145	-5.69
404.607	5.71
405.068	12.01
405.529	-11.69
405.99	6.11
406.451	16.31
406.913	15.71
407.374	11.51
407.835	5.81
408.296	11.21
408.757	-0.99
409.218	-24.19
409.679	8.31
410.14	-6.69
410.601	7.61
411.062	5.51
411.522	-1.99
411.983	-0.79
412.444	-3.09
412.905	6.41
413.366	-0.19
413.826	8.71
414.287	9.51
414.748	15.01
415.208	11.51
415.669	15.71
416.13	13.41
416.59	8.61
417.051	-20.39
417.511	-20.09
417.972	6.51
418.432	13.41
418.893	-0.79
419.353	13.31
419.814	9.91
420.274	17.61
420.734	9.01
421.195	9.01
421.655	9.61
422.115	4.31
422.576	-11.29
423.036	-0.09
423.496	22.81
423.956	17.21
424.416	1.01
424.876	6.71
425.336	-3.89
425.797	2.61
426.257	11.21
426.717	-12.19
427.177	-23.39
427.637	0.21
428.097	3.11
428.556	-39.39
429.016	-5.99
429.476	-19.39
429.936	-0.09
430.396	-15.29
430.856	-6.39
431.315	-30.59
431.775	9.41
432.235	-0.49
432.694	-3.99
433.154	8.41
433.614	9.01
434.073	-6.99
434.533	6.11
434.993	9.71
435.452	5.51
435.912	10.01
436.371	9.01
436.83	5.31
437.29	0.11
437.749	14.81
438.209	0.21
438.668	2.01
439.127	3.91
439.587	18.21
440.046	12.01
440.505	7.41
440.964	1.51
441.424	4.01
441.883	6.21
442.342	-1.59
442.801	-4.29
443.26	4.01
443.719	4.01
444.178	5.81
444.637	5.41
445.096	19.91
445.555	-5.09
446.014	-21.89
446.473	6.81
446.932	7.31
447.391	12.61
447.849	-3.49
448.308	12.11
448.767	-16.49
449.226	17.01
449.685	7.91
450.143	18.91
450.602	8.21
451.061	5.91
451.519	-9.89
451.978	5.61
452.436	-3.29
452.895	15.21
453.353	17.61
453.812	10.21
454.27	13.01
454.729	6.21
455.187	4.51
455.646	0.51
456.104	15.01
456.562	11.71
457.021	-4.09
457.479	11.01
457.937	18.41
458.395	-9.89
458.854	5.31
459.312	-2.59
459.77	7.01
460.228	14.81
460.686	9.61
461.144	7.51
461.602	3.71
462.06	-7.99
462.518	-17.69
462.976	-6.89
463.434	11.31
463.892	18.21
464.35	7.31
464.808	8.11
465.266	4.91
465.724	14.41
466.181	2.91
466.639	-7.49
467.097	2.91
467.555	14.81
468.012	0.71
468.47	17.31
468.928	12.01
469.385	11.41
469.843	20.31
470.3	7.31
470.758	3.01
471.215	5.01
471.673	2.91
472.13	6.91
472.588	14.01
473.045	7.61
473.503	14.21
473.96	6.81
474.417	-4.49
474.875	-1.19
475.332	9.51
475.789	1.81
476.246	16.71
476.704	17.21
477.161	5.81
477.618	16.51
478.075	-4.19
478.532	13.81
478.989	5.51
479.446	18.41
479.903	2.01
480.36	3.21
480.817	3.81
481.274	3.31
481.731	4.81
482.188	-13.19
482.645	-16.49
483.102	7.61
483.558	3.51
484.015	10.51
484.472	10.41
484.929	9.71
485.385	9.61
485.842	13.01
486.299	15.81
486.755	2.11
487.212	7.21
487.668	6.51
488.125	-1.69
488.582	9.91
489.038	2.51
489.494	12.01
489.951	10.21
490.407	12.11
490.864	3.21
491.32	-2.79
491.776	15.81
492.233	7.01
492.689	8.11
493.145	15.41
493.602	10.81
494.058	4.91
494.514	4.91
494.97	4.71
495.426	11.41
495.882	9.91
496.338	4.01
496.794	-9.89
497.251	-15.29
497.707	5.71
498.163	-5.89
498.618	7.81
499.074	9.81
499.53	14.61
499.986	9.01
500.442	0.51
500.898	-9.59
501.354	5.91
501.809	11.41
502.265	-4.59
502.721	5.01
503.177	11.91
503.632	-9.69
504.088	6.71
504.543	10.01
504.999	-8.29
505.455	6.11
505.91	3.91
506.366	12.91
506.821	8.71
507.277	-7.79
507.732	9.01
508.187	8.21
508.643	6.91
509.098	5.81
509.553	-3.89
510.009	-3.49
510.464	5.31
510.919	-25.39
511.375	-12.09
511.83	5.91
512.285	-6.19
512.74	-10.09
513.195	-8.09
513.65	4.51
514.105	3.61
514.56	15.21
515.015	12.51
515.47	10.31
515.925	-7.79
516.38	6.01
516.835	-2.79
517.29	-19.49
517.745	-3.69
518.2	0.61
518.655	8.51
519.109	10.11
519.564	3.31
520.019	-2.29
520.474	7.21
520.928	-19.79
521.383	4.21
521.838	-3.89
522.292	2.91
522.747	4.31
523.201	6.61
523.656	7.81
524.11	-7.39
524.565	2.01
525.019	8.11
525.474	10.31
525.928	-3.69
526.382	-3.39
526.837	3.21
527.291	-11.09
527.745	13.61
528.2	6.51
528.654	-7.99
529.108	-10.19
529.562	-3.89
530.016	-6.79
530.47	8.21
530.925	12.81
531.379	0.11
531.833	19.31
532.287	10.41
532.741	13.61
533.195	10.51
533.649	6.81
534.103	13.31
534.556	5.51
535.01	5.31
535.464	4.11
535.918	3.51
536.372	4.11
536.826	10.71
537.279	11.21
537.733	9.21
538.187	3.41
538.64	4.91
539.094	-24.49
539.548	-7.29
540.001	1.81
540.455	8.91
540.908	4.91
541.362	13.31
541.815	2.31
542.269	10.81
542.722	-0.39
543.175	-27.29
543.629	9.01
544.082	1.31
544.536	-3.09
544.989	0.81
545.442	6.61
545.895	5.31
546.349	0.21
546.802	-1.59
547.255	-4.79
547.708	12.71
548.161	15.21
548.614	3.11
549.067	13.61
549.52	15.41
549.973	10.31
550.426	12.11
550.879	7.31
551.332	0.41
551.785	6.31
552.238	7.11
552.691	9.41
553.144	17.51
553.596	17.41
554.049	8.01
554.502	-9.39
554.955	-12.29
555.407	0.61
555.86	7.11
556.313	8.51
556.765	5.21
557.218	7.01
557.67	11.21
558.123	20.41
558.576	17.51
559.028	12.91
559.48	6.51
559.933	-0.19
560.385	-12.39
560.838	-8.09
561.29	-0.89
561.742	7.11
562.195	10.91
562.647	11.61
563.099	-8.39
563.551	1.81
564.004	12.91
564.456	-13.99
564.908	-2.59
565.36	12.71
565.812	-4.19
566.264	4.61
566.716	5.41
567.168	19.81
567.62	10.71
568.072	15.61
568.524	12.21
568.976	3.51
569.428	12.51
569.88	-0.29
570.332	14.91
570.784	11.91
571.235	-6.19
571.687	8.21
572.139	-10.29
572.59	6.61
573.042	11.41
573.494	12.91
573.945	-11.79
574.397	9.31
574.849	-15.89
575.3	-4.79
575.752	-5.69
576.203	12.51
576.655	13.71
577.106	-10.19
577.557	3.21
578.009	-13.79
578.46	0.41
578.912	6.81
579.363	8.61
579.814	9.61
580.265	15.91
580.717	17.71
581.168	3.61
581.619	9.91
582.07	-1.29
582.521	-5.39
582.972	3.11
583.423	0.11
583.875	0.31
584.326	-0.89
584.777	26.21
585.227	9.61
585.678	-29.19
586.129	-13.49
586.58	4.61
587.031	11.81
587.482	-12.49
587.933	12.41
588.384	-5.19
588.834	8.51
589.285	-7.19
589.736	10.41
590.186	11.71
590.637	-6.09
591.088	11.31
591.538	-13.19
591.989	10.41
592.439	-0.79
592.89	-16.29
593.34	7.41
593.791	16.31
594.241	13.81
594.692	11.81
595.142	4.51
595.593	6.31
596.043	4.51
596.493	-12.59
596.943	9.71
597.394	-10.29
597.844	13.51
598.294	3.11
598.744	1.81
599.195	-7.79
599.645	4.41
600.095	0.11
600.545	3.41
600.995	20.41
601.445	13.31
601.895	18.31
602.345	7.11
602.795	8.81
603.245	-9.69
603.695	-18.69
604.145	-7.49
604.594	-2.59
605.044	-1.49
605.494	10.21
605.944	15.01
606.393	0.11
606.843	8.61
607.293	19.41
607.743	3.71
608.192	1.11
608.642	1.91
609.091	-3.99
609.541	2.31
609.99	11.51
610.44	14.61
610.889	5.51
611.339	0.21
611.788	11.41
612.238	0.21
612.687	10.11
613.136	10.81
613.586	9.21
614.035	-1.59
614.484	7.31
614.933	12.01
615.383	1.11
615.832	9.21
616.281	9.71
616.73	-3.89
617.179	14.91
617.628	6.51
618.077	13.31
618.526	17.41
618.975	8.31
619.424	10.21
619.873	14.01
620.322	11.01
620.771	6.01
621.22	-3.49
621.669	16.41
622.118	10.21
622.567	1.61
623.015	11.01
623.464	11.71
623.913	-3.29
624.361	11.91
624.81	15.51
625.259	7.21
625.707	19.11
626.156	9.01
626.604	14.61
627.053	13.61
627.501	8.31
627.95	9.11
628.398	1.51
628.847	16.11
629.295	15.01
629.744	15.91
630.192	5.11
630.64	-14.79
631.089	12.21
631.537	-124.29
631.985	2.01
632.433	14.01
632.881	19.21
633.33	11.81
633.778	12.21
634.226	4.51
634.674	4.91
635.122	-1.59
635.57	6.91
636.018	15.71
636.466	13.11
636.914	16.11
637.362	13.61
637.81	19.91
638.258	-8.99
638.705	9.01
639.153	20.61
639.601	4.81
640.049	16.21
640.497	19.31
640.944	11.51
641.392	11.51
641.84	9.61
642.287	11.91
642.735	6.11
643.182	12.31
643.63	-6.19
644.078	22.31
644.525	-8.19
644.973	9.31
645.42	7.21
645.867	4.71
646.315	15.61
646.762	18.01
647.21	16.81
647.657	1.81
648.104	4.71
648.551	0.51
648.999	6.91
649.446	18.11
649.893	12.11
650.34	25.71
650.787	9.31
651.234	9.41
651.682	13.71
652.129	6.01
652.576	-19.39
653.023	-3.09
653.47	-7.09
653.917	10.71
654.363	10.01
654.81	9.11
655.257	14.51
655.704	-1.39
656.151	18.11
656.598	-7.39
657.044	10.41
657.491	-0.99
657.938	13.51
658.385	4.71
658.831	3.01
659.278	4.91
659.724	10.71
660.171	15.11
660.618	7.01
661.064	20.61
661.511	17.51
661.957	4.31
662.404	9.41
662.85	-38.89
663.296	-7.39
663.743	-9.99
664.189	9.71
664.635	21.31
665.082	6.91
665.528	13.71
665.974	5.81
666.42	6.71
666.867	1.41
667.313	5.21
667.759	-10.09
668.205	16.51
668.651	17.41
669.097	10.41
669.543	-13.09
669.989	-12.29
670.435	-3.49
670.881	0.21
671.327	12.91
671.773	-19.59
672.219	4.11
672.665	-0.19
673.11	12.71
673.556	7.01
674.002	6.11
674.448	0.61
674.893	14.71
675.339	-0.29
675.785	15.01
676.23	15.01
676.676	13.61
677.122	13.81
677.567	8.31
678.013	-0.19
678.458	6.01
678.904	5.01
679.349	19.71
679.794	15.21
680.24	5.81
680.685	2.91
681.131	14.11
681.576	16.31
682.021	13.61
682.466	9.31
682.912	17.11
683.357	1.61
683.802	9.51
684.247	14.01
684.692	15.31
685.137	14.01
685.583	4.91
686.028	12.11
686.473	5.11
686.918	12.01
687.363	10.11
687.807	10.91
688.252	16.11
688.697	10.41
689.142	5.61
689.587	6.51
690.032	21.81
690.477	6.21
690.921	-8.19
691.366	9.51
691.811	-3.79
692.255	13.51
692.7	-0.89
693.145	18.21
693.589	12.81
694.034	18.41
694.478	3.21
694.923	17.91
695.367	2.71
695.812	19.41
696.256	1.31
696.701	5.51
697.145	12.21
697.59	-10.19
698.034	1.81
698.478	8.91
698.922	3.81
699.367	10.91
699.811	11.91
700.255	-5.99
700.699	-1.09
701.143	14.21
701.588	6.71
702.032	13.41
702.476	-19.19
702.92	-24.69
703.364	-4.79
703.808	8.31
704.252	8.01
704.696	-3.69
705.14	19.11
705.584	14.11
706.027	10.31
706.471	12.51
706.915	21.01
707.359	10.81
707.803	7.31
708.246	7.01
708.69	9.01
709.134	16.31
709.577	15.81
710.021	15.41
710.465	12.61
710.908	15.11
711.352	11.91
711.795	-1.99
712.239	13.71
712.682	0.31
713.126	-14.59
713.569	9.01
714.012	9.61
714.456	-6.49
714.899	5.51
715.342	-4.89
715.786	5.41
716.229	13.11
716.672	9.01
717.115	15.21
717.558	9.91
718.002	6.61
718.445	14.81
718.888	7.31
719.331	8.81
719.774	2.91
720.217	-6.29
720.66	17.51
721.103	21.01
721.546	-5.99
721.989	-0.79
722.432	11.31
722.874	-5.09
723.317	9.41
723.76	-5.09
724.203	5.31
724.645	12.21
725.088	11.31
725.531	7.61
725.974	10.71
726.416	0.71
726.859	14.41
727.301	-1.49
727.744	5.61
728.187	0.81
728.629	14.81
729.071	-3.39
729.514	8.51
729.956	4.81
730.399	7.51
730.841	14.91
731.283	10.91
731.726	9.71
732.168	15.01
732.61	9.51
733.053	2.91
733.495	19.81
733.937	7.21
734.379	14.41
734.821	6.21
735.263	12.41
735.705	19.51
736.148	14.41
736.59	1.31
737.032	2.81
737.474	6.11
737.916	15.11
738.357	15.11
738.799	4.21
739.241	6.21
739.683	17.41
740.125	5.71
740.567	7.21
741.008	17.61
741.45	-6.19
741.892	-3.49
742.334	18.21
742.775	4.41
743.217	12.31
743.658	3.61
744.1	6.71
744.542	2.01
744.983	4.41
745.425	5.41
745.866	-13.79
746.307	-2.99
746.749	4.81
747.19	12.01
747.632	13.91
748.073	8.01
748.514	-13.49
748.956	9.91
749.397	13.01
749.838	6.91
750.279	10.81
750.72	6.21
751.162	-0.89
751.603	-0.69
752.044	12.21
752.485	10.51
752.926	8.21
753.367	9.31
753.808	-13.29
754.249	6.41
754.69	15.61
755.131	6.91
755.572	18.21
756.013	15.41
756.453	-5.29
756.894	5.91
757.335	-5.79
757.776	-10.99
758.216	16.81
758.657	6.71
759.098	3.21
759.538	19.11
759.979	11.91
760.42	9.31
760.86	-14.09
761.301	-3.29
761.741	20.71
762.182	21.61
762.622	16.81
763.063	6.71
763.503	5.31
763.943	6.31
764.384	16.61
764.824	12.31
765.264	3.91
765.705	11.51
766.145	17.11
766.585	4.91
767.025	-11.39
767.465	5.81
767.906	8.01
768.346	11.61
768.786	6.71
769.226	3.81
769.666	10.81
770.106	9.41
770.546	16.11
770.986	14.11
771.426	21.51
771.866	12.71
772.306	8.01
772.745	-8.69
773.185	8.71
773.625	10.71
774.065	23.51
774.505	25.01
774.944	6.81
775.384	15.21
775.824	-8.59
776.263	9.61
776.703	7.01
777.142	16.31
777.582	21.01
778.021	-1.39
778.461	5.81
778.9	16.11
779.34	20.31
779.779	10.91
780.219	3.91
780.658	11.21
781.097	15.71
781.537	-2.89
781.976	-1.79
782.415	16.31
782.855	17.91
783.294	14.31
783.733	20.31
784.172	-1.89
784.611	-6.69
785.05	-1.09
785.489	5.01
785.928	-16.29
786.367	13.11
786.806	13.01
787.245	-0.19
787.684	19.71
788.123	16.91
788.562	13.31
789.001	-3.39
789.44	7.91
789.879	10.51
790.317	14.81
790.756	14.11
791.195	-7.79
791.634	8.91
792.072	15.71
792.511	-3.69
792.95	-2.49
793.388	6.61
793.827	4.81
794.265	-4.39
794.704	10.61
795.142	6.81
795.581	-30.79
796.019	-27.19
796.458	-6.49
796.896	6.61
797.334	9.11
797.773	15.41
798.211	22.21
798.649	8.41
799.087	23.31
799.526	17.71
799.964	13.41
800.402	4.91
800.84	-5.39
801.278	10.71
801.716	23.11
802.154	3.21
802.592	12.21
803.03	18.51
803.468	15.41
803.906	9.81
804.344	5.81
804.782	-1.89
805.22	-0.59
805.658	18.41
806.096	6.61
806.533	9.91
806.971	14.91
807.409	12.01
807.847	9.01
808.284	5.51
808.722	0.41
809.16	-0.99
809.597	8.51
810.035	0.91
810.472	2.51
810.91	5.21
811.347	16.61
811.785	10.91
812.222	-30.79
812.66	17.01
813.097	15.31
813.535	-8.69
813.972	-0.89
814.409	9.11
814.846	5.81
815.284	20.61
815.721	-1.79
816.158	6.61
816.595	8.31
817.032	5.31
817.47	-3.69
817.907	-99.39
818.344	-12.09
818.781	14.31
819.218	-5.99
819.655	1.81
820.092	-2.79
820.529	14.41
820.966	0.71
821.403	8.21
821.839	-5.19
822.276	1.31
822.713	-1.69
823.15	-10.79
823.587	7.51
824.023	10.61
824.46	18.71
824.897	5.51
825.333	6.21
825.77	-7.89
826.206	-5.79
826.643	9.81
827.08	-9.49
827.516	11.91
827.953	9.41
828.389	-1.99
828.825	2.61
829.262	14.71
829.698	18.11
830.135	5.11
830.571	-12.59
831.007	13.91
831.443	12.61
831.88	6.31
832.316	-1.79
832.752	8.51
833.188	3.81
833.624	-5.69
834.06	18.31
834.497	3.21
834.933	3.31
835.369	12.31
835.805	24.41
836.241	19.91
836.677	0.71
837.112	6.31
837.548	13.41
837.984	7.41
838.42	6.11
838.856	18.61
839.292	10.51
839.727	11.81
840.163	5.61
840.599	18.81
841.034	10.61
841.47	13.61
841.906	10.71
842.341	19.01
842.777	-5.69
843.212	-14.19
843.648	0.01
844.083	12.61
844.519	-20.99
844.954	2.41
845.39	12.41
845.825	-1.79
846.261	8.01
846.696	17.31
847.131	0.91
847.566	13.11
848.002	12.91
848.437	12.31
848.872	15.81
849.307	20.41
849.742	21.81
850.177	-4.09
850.613	-27.39
851.048	4.11
851.483	4.71
851.918	2.11
852.353	-0.79
852.788	-11.69
853.223	7.11
853.657	2.81
854.092	-6.29
854.527	12.21
854.962	7.11
855.397	-7.19
855.832	3.11
856.266	8.81
856.701	2.81
857.136	3.71
857.57	-12.69
858.005	-14.89
858.44	2.41
858.874	10.11
859.309	6.01
859.743	18.01
860.178	24.31
860.612	-2.49
861.047	7.51
861.481	-9.59
861.915	11.61
862.35	16.91
862.784	12.71
863.218	23.21
863.653	3.21
864.087	11.51
864.521	18.11
864.955	11.41
865.39	17.71
865.824	9.51
866.258	-7.89
866.692	11.01
867.126	13.91
867.56	3.01
867.994	4.41
868.428	17.11
868.862	-0.89
869.296	1.21
869.73	4.81
870.164	12.01
870.598	11.11
871.031	17.71
871.465	22.31
871.899	6.21
872.333	23.01
872.766	10.41
873.2	-0.59
873.634	6.21
874.067	16.51
874.501	-8.89
874.935	-7.59
875.368	11.81
875.802	10.71
876.235	9.91
876.669	5.91
877.102	-0.49
877.535	-14.49
877.969	-10.29
878.402	6.51
878.836	-0.09
879.269	-2.09
879.702	11.21
880.135	-1.39
880.569	-1.49
881.002	-9.99
881.435	8.71
881.868	14.41
882.301	12.51
882.734	5.01
883.167	13.91
883.601	12.01
884.034	8.81
884.467	-1.09
884.899	-6.59
885.332	5.01
885.765	16.71
886.198	16.11
886.631	13.01
887.064	-12.69
887.497	-3.09
887.929	0.71
888.362	6.81
888.795	4.61
889.228	6.01
889.66	16.51
890.093	15.41
890.526	15.01
890.958	14.31
891.391	-3.79
891.823	14.71
892.256	10.21
892.688	7.21
893.121	17.81
893.553	8.81
893.985	13.71
894.418	3.91
894.85	14.81
895.282	10.31
895.715	-1.39
896.147	8.81
896.579	-3.89
897.011	10.21
897.444	17.31
897.876	7.71
898.308	2.41
898.74	4.31
899.172	3.71
899.604	-10.89
900.036	11.01
900.468	-0.99
900.9	12.81
901.332	-8.09
901.764	-4.99
902.196	7.91
902.628	7.41
903.06	16.71
903.491	7.71
903.923	5.81
904.355	0.51
904.787	6.01
905.218	13.11
905.65	3.01
906.082	13.61
906.513	11.31
906.945	10.21
907.376	5.21
907.808	3.01
908.239	8.21
908.671	14.61
909.102	9.81
909.534	-1.29
909.965	5.91
910.397	0.61
910.828	-27.99
911.259	-10.49
911.691	-2.19
912.122	6.71
912.553	4.01
912.984	-7.29
913.415	-5.59
913.847	10.71
914.278	14.41
914.709	0.21
915.14	-6.29
915.571	3.51
916.002	-20.49
916.433	7.71
916.864	-8.49
917.295	-20.09
917.726	-1.69
918.157	5.81
918.587	-6.29
919.018	-4.79
919.449	-21.59
919.88	7.41
920.311	5.81
920.741	11.91
921.172	12.71
921.603	-15.39
922.033	-13.89
922.464	3.51
922.895	2.81
923.325	6.11
923.756	14.61
924.186	1.71
924.617	12.71
925.047	7.21
925.478	6.21
925.908	1.91
926.338	14.81
926.769	-4.69
927.199	8.71
927.629	6.41
928.06	6.91
928.49	10.51
928.92	-19.49
929.35	0.21
929.78	7.41
930.21	4.31
930.641	-7.99
931.071	4.21
931.501	4.81
931.931	6.21
932.361	-0.19
932.791	3.31
933.221	8.11
933.651	6.61
934.08	11.21
934.51	-3.99
934.94	8.31
935.37	-2.69
935.8	-6.49
936.229	2.41
936.659	-0.29
937.089	0.61
937.519	7.01
937.948	2.11
938.378	4.11
938.807	-3.39
939.237	-6.49
939.666	4.91
940.096	-14.69
940.525	5.31
940.955	7.41
941.384	0.91
941.814	11.91
942.243	10.41
942.672	-4.99
943.102	-9.29
943.531	-6.29
943.96	-2.09
944.39	14.91
944.819	5.41
945.248	14.01
945.677	13.61
946.106	-4.39
946.535	-3.59
946.964	13.21
947.393	14.81
947.822	1.91
948.251	10.01
948.68	14.71
949.109	2.41
949.538	11.11
949.967	3.01
950.396	17.01
950.825	7.71
951.254	6.01
951.682	10.31
952.111	3.51
952.54	7.41
952.969	12.01
953.397	-16.59
953.826	9.01
954.254	13.91
954.683	-1.59
955.112	5.71
955.54	6.61
955.969	7.21
956.397	-6.49
956.826	8.01
957.254	11.61
957.682	6.81
958.111	0.31
958.539	3.61
958.967	11.21
959.396	12.01
959.824	-11.29
960.252	-4.49
960.68	0.21
961.109	9.31
961.537	13.21
961.965	12.21
962.393	8.11
962.821	10.21
963.249	-19.09
963.677	-15.29
964.105	-11.39
964.533	13.41
964.961	-2.49
965.389	12.21
965.817	-2.19
966.245	18.11
966.672	18.71
967.1	12.41
967.528	7.91
967.956	-2.29
968.383	8.61
968.811	5.11
969.239	12.91
969.666	-1.99
970.094	-6.09
970.522	-25.59
970.949	5.51
971.377	0.71
971.804	13.61
972.232	7.11
972.659	-2.09
973.087	-10.89
973.514	8.31
973.941	13.91
974.369	10.81
974.796	13.31
975.223	-6.79
975.651	0.31
976.078	0.71
976.505	9.91
976.932	8.61
977.359	-4.69
977.786	-11.69
978.214	4.41
978.641	10.41
979.068	7.81
979.495	9.81
979.922	4.71
980.349	5.91
980.776	2.81
981.202	-5.09
981.629	11.11
982.056	7.21
982.483	-11.49
982.91	-0.09
983.337	12.01
983.763	9.11
984.19	13.81
984.617	13.01
985.043	-40.69
985.47	-3.99
985.897	4.91
986.323	10.11
986.75	7.01
987.176	-4.29
987.603	6.81
988.029	11.41
988.456	17.51
988.882	4.41
989.308	7.21
989.735	-44.29
990.161	2.61
990.587	5.31
991.014	14.61
991.44	10.91
991.866	-3.19
992.292	10.91
992.719	20.71
993.145	6.11
993.571	16.91
993.997	15.21
994.423	8.01
994.849	-21.89
995.275	6.61
995.701	6.81
996.127	1.61
996.553	6.51
996.979	12.01
997.405	11.31
997.83	-5.59
998.256	6.51
998.682	-9.69
999.108	2.11
999.534	15.61
999.959	-3.29
1000.385	-5.59
1000.811	2.51
1001.236	0.51
1001.662	-6.19
1002.087	2.31
1002.513	9.51
1002.938	8.41
1003.364	7.21
1003.789	7.21
1004.215	9.31
1004.64	-3.29
1005.066	-9.69
1005.491	-3.39
1005.916	13.21
1006.342	12.11
1006.767	6.01
1007.192	1.11
1007.617	1.01
1008.042	0.91
1008.468	-0.99
1008.893	12.21
1009.318	1.51
1009.743	-8.09
1010.168	-11.19
1010.593	13.51
1011.018	-1.09
1011.443	12.41
1011.868	6.01
1012.293	9.61
1012.718	-16.49
1013.143	-4.99
1013.567	3.01
1013.992	12.51
1014.417	5.41
1014.842	10.01
1015.267	10.91
1015.691	4.31
1016.116	11.21
1016.541	10.61
1016.965	-1.09
1017.39	-14.09
1017.814	3.01
1018.239	9.91
1018.663	-15.89
1019.088	-12.49
1019.512	-41.49
1019.937	6.21
1020.361	14.31
1020.785	-10.19
1021.21	9.71
1021.634	3.91
1022.058	19.31
1022.483	17.51
1022.907	-6.69
1023.331	-13.99
1023.755	4.31
1024.179	12.31
1024.604	10.21
1025.028	11.31
1025.452	5.71
1025.876	11.91
1026.3	-14.59
1026.724	5.91
1027.148	-12.09
1027.572	-2.09
1027.996	9.01
1028.42	10.91
1028.843	10.31
1029.267	6.41
1029.691	18.01
1030.115	-5.19
1030.539	9.51
1030.962	16.21
1031.386	5.51
1031.81	-3.69
1032.233	1.01
1032.657	-259.39
1033.08	-8.49
1033.504	7.51
1033.927	4.01
1034.351	6.01
1034.774	11.71
1035.198	-21.59
1035.621	11.31
1036.045	7.21
1036.468	-4.89
1036.891	-65.89
1037.315	-640.19
1037.738	-45.29
1038.161	3.71
1038.584	10.31
1039.008	4.71
1039.431	11.01
1039.854	3.21
1040.277	14.11
1040.7	-9.69
1041.123	5.91
1041.546	5.91
1041.969	-7.39
1042.392	-3.49
1042.815	2.61
1043.238	4.01
1043.661	13.71
1044.084	-11.29
1044.507	11.31
1044.93	1.11
1045.352	-2.49
1045.775	-3.99
1046.198	-21.69
1046.621	5.11
1047.043	-12.29
1047.466	-2.09
1047.889	3.61
1048.311	16.31
1048.734	-14.29
1049.156	2.81
1049.579	0.91
1050.001	2.41
1050.424	-12.39
1050.846	-8.39
1051.269	-2.39
1051.691	1.91
1052.113	7.21
1052.536	-3.59
1052.958	4.51
1053.38	15.11
1053.802	9.01
1054.225	10.81
1054.647	-20.59
1055.069	3.01
1055.491	14.61
1055.913	-0.99
1056.335	-0.29
1056.757	14.81
1057.179	8.21
1057.601	1.11
1058.023	8.21
1058.445	10.61
1058.867	-3.89
1059.289	0.81
1059.711	5.71
1060.133	-40.39
1060.555	2.81
1060.976	9.41
1061.398	-9.09
1061.82	5.71
1062.241	4.41
1062.663	1.51
1063.085	-3.79
1063.506	5.21
1063.928	7.41
1064.35	11.01
1064.771	-3.39
1065.193	-2.79
1065.614	0.81
1066.035	-16.79
1066.457	15.31
1066.878	-15.19
1067.3	15.81
1067.721	10.51
1068.142	12.01
1068.564	4.31
1068.985	7.71
1069.406	14.91
1069.827	-4.89
1070.248	-12.69
1070.67	-6.29
1071.091	11.51
1071.512	5.21
1071.933	-9.09
1072.354	6.51
1072.775	-14.29
1073.196	-6.09
1073.617	14.31
1074.038	0.21
1074.459	6.01
1074.88	-26.89
1075.3	4.21
1075.721	4.71
1076.142	8.91
1076.563	11.41
1076.983	16.11
1077.404	0.41
1077.825	18.91
1078.246	6.51
1078.666	11.21
1079.087	16.71
1079.507	9.81
1079.928	10.31
1080.348	1.41
1080.769	18.81
1081.189	13.61
1081.61	13.21
1082.03	19.61
1082.451	17.11
1082.871	-0.89
1083.291	2.31
1083.711	2.61
1084.132	12.01
1084.552	-18.99
1084.972	4.41
1085.392	6.11
1085.813	8.01
1086.233	4.71
1086.653	7.31
1087.073	13.41
1087.493	16.21
1087.913	1.01
1088.333	24.81
1088.753	2.31
1089.173	10.71
1089.593	15.11
1090.013	6.81
1090.433	10.61
1090.852	15.01
1091.272	-2.09
1091.692	10.21
1092.112	-2.69
1092.531	5.51
1092.951	15.61
1093.371	-16.69
1093.79	-3.49
1094.21	17.11
1094.63	15.01
1095.049	12.61
1095.469	-2.89
1095.888	-5.99
1096.308	11.61
1096.727	10.71
1097.146	7.11
1097.566	13.21
1097.985	17.01
1098.405	15.51
1098.824	0.61
1099.243	2.51
1099.662	-23.99
1100.082	9.81
1100.501	21.01
1100.92	10.71
1101.339	12.11
1101.758	14.91
