Data from MSPlasma+Separation6_Subt14_10-14-57-700.txt Node
Date: Fri Jul 21 10:14:57 EDT 2017
User: Ender
Spectrometer: HR+D1039
Trigger mode: 0
Integration Time (sec): 6.430000E-3
Scans to average: 20
Electric dark correction enabled: true
Nonlinearity correction enabled: false
Boxcar width: 0
XAxis mode: Wavelengths
Number of Pixels in Spectrum: 2048
>>>>>Begin Spectral Data<<<<<
187.836	0.16
188.309	0.16
188.782	0.16
189.255	1.81
189.728	0.96
190.201	-0.59
190.674	-0.34
191.147	-4.64
191.619	0.06
192.092	-0.04
192.565	-0.34
193.038	1.21
193.511	0.16
193.984	3.01
194.456	0.56
194.929	-1.99
195.402	-3.34
195.874	3.31
196.347	0.06
196.82	1.76
197.292	-2.74
197.765	0.91
198.237	-0.89
198.71	-2.34
199.182	0.26
199.655	3.21
200.127	1.56
200.6	2.06
201.072	2.41
201.544	-1.09
202.017	2.51
202.489	1.36
202.961	0.06
203.433	-3.79
203.906	1.26
204.378	2.96
204.85	3.51
205.322	4.01
205.794	4.71
206.266	3.96
206.739	6.26
207.211	2.51
207.683	0.71
208.155	1.06
208.627	2.21
209.099	3.16
209.57	5.21
210.042	2.86
210.514	6.31
210.986	15.26
211.458	22.71
211.93	11.61
212.402	5.66
212.873	-1.94
213.345	-2.09
213.817	5.86
214.288	0.71
214.76	6.21
215.232	0.91
215.703	4.26
216.175	2.96
216.646	7.21
217.118	3.31
217.589	-2.09
218.061	3.86
218.532	2.61
219.004	7.56
219.475	11.56
219.946	27.76
220.418	32.91
220.889	23.91
221.36	12.96
221.832	12.01
222.303	4.26
222.774	6.21
223.245	1.31
223.717	4.31
224.188	2.06
224.659	6.36
225.13	4.66
225.601	2.66
226.072	8.21
226.543	9.51
227.014	9.51
227.485	4.51
227.956	8.51
228.427	14.31
228.898	11.46
229.369	9.66
229.839	14.06
230.31	13.01
230.781	11.36
231.252	19.01
231.722	26.01
232.193	32.26
232.664	37.96
233.135	56.61
233.605	62.96
234.076	49.21
234.546	40.06
235.017	46.46
235.487	43.96
235.958	43.11
236.428	61.11
236.899	104.36
237.369	116.16
237.84	84.06
238.31	106.31
238.78	105.81
239.251	106.66
239.721	105.51
240.191	80.41
240.662	49.51
241.132	43.86
241.602	50.76
242.072	76.21
242.542	83.26
243.013	56.21
243.483	51.81
243.953	36.76
244.423	43.91
244.893	47.21
245.363	63.91
245.833	56.41
246.303	57.66
246.773	77.51
247.243	79.11
247.712	90.21
248.182	106.31
248.652	113.76
249.122	165.61
249.592	318.46
250.061	469.96
250.531	748.26
251.001	573.71
251.471	475.31
251.94	365.56
252.41	196.36
252.879	135.51
253.349	105.61
253.818	83.66
254.288	67.51
254.757	73.36
255.227	99.56
255.696	76.06
256.166	70.91
256.635	76.16
257.105	91.36
257.574	124.61
258.043	123.56
258.513	221.81
258.982	285.76
259.451	199.66
259.92	201.21
260.389	185.76
260.859	133.31
261.328	158.36
261.797	231.16
262.266	199.76
262.735	98.31
263.204	61.11
263.673	58.16
264.142	45.91
264.611	52.86
265.08	52.86
265.549	60.46
266.018	55.46
266.487	48.46
266.955	49.51
267.424	56.76
267.893	57.66
268.362	58.11
268.83	55.56
269.299	64.41
269.768	67.91
270.236	84.71
270.705	88.96
271.174	85.36
271.642	99.51
272.111	113.96
272.579	179.91
273.048	274.21
273.516	352.36
273.985	354.61
274.453	273.46
274.922	163.61
275.39	106.51
275.858	95.86
276.327	81.76
276.795	85.61
277.263	93.81
277.731	121.66
278.2	242.36
278.668	315.36
279.136	246.01
279.604	158.56
280.072	93.81
280.54	83.41
281.008	86.26
281.477	92.71
281.945	93.21
282.413	93.81
282.881	92.86
283.348	95.76
283.816	92.71
284.284	102.01
284.752	98.56
285.22	99.71
285.688	111.91
286.156	182.86
286.623	508.31
287.091	994.41
287.559	516.36
288.026	199.81
288.494	126.41
288.962	99.61
289.429	94.46
289.897	94.81
290.364	87.36
290.832	91.66
291.3	92.36
291.767	97.31
292.234	98.16
292.702	100.31
293.169	109.36
293.637	112.36
294.104	111.86
294.571	108.71
295.039	105.81
295.506	104.96
295.973	112.96
296.44	106.01
296.908	118.66
297.375	135.56
297.842	131.21
298.309	115.66
298.776	113.71
299.243	115.56
299.71	106.11
300.177	111.86
300.644	122.71
301.111	138.41
301.578	129.16
302.045	116.46
302.512	107.81
302.979	119.46
303.446	124.36
303.913	126.41
304.379	136.01
304.846	149.66
305.313	168.96
305.78	195.31
306.246	241.26
306.713	258.06
307.18	227.51
307.646	241.66
308.113	217.51
308.579	171.71
309.046	170.96
309.512	172.26
309.979	157.16
310.445	144.76
310.912	153.56
311.378	151.26
311.845	151.26
312.311	142.96
312.777	143.11
313.244	159.01
313.71	159.46
314.176	180.11
314.642	201.66
315.109	237.86
315.575	219.21
316.041	203.11
316.507	189.01
316.973	215.36
317.439	204.16
317.905	223.26
318.371	220.61
318.837	209.21
319.303	220.31
319.769	205.31
320.235	228.81
320.701	262.71
321.167	280.16
321.633	340.16
322.099	474.56
322.564	633.91
323.03	491.91
323.496	343.01
323.962	321.76
324.427	303.51
324.893	264.26
325.359	254.46
325.824	219.26
326.29	226.06
326.755	232.71
327.221	229.21
327.686	239.76
328.152	222.06
328.617	212.26
329.083	213.41
329.548	231.46
330.014	235.56
330.479	257.61
330.944	305.71
331.41	339.96
331.875	334.01
332.34	338.61
332.805	398.26
333.271	509.96
333.736	662.76
334.201	604.21
334.666	452.51
335.131	515.11
335.596	402.36
336.061	428.56
336.526	429.31
336.991	375.16
337.456	405.56
337.921	320.61
338.386	261.91
338.851	240.96
339.316	219.06
339.781	217.26
340.246	218.81
340.711	217.66
341.175	220.41
341.64	230.16
342.105	236.31
342.569	248.26
343.034	265.51
343.499	268.21
343.963	261.26
344.428	261.01
344.893	269.21
345.357	270.61
345.822	262.61
346.286	269.56
346.751	287.41
347.215	272.71
347.679	287.06
348.144	303.61
348.608	307.11
349.073	310.61
349.537	356.51
350.001	342.66
350.465	316.06
350.93	299.71
351.394	305.16
351.858	305.51
352.322	321.21
352.786	322.41
353.25	311.61
353.715	317.61
354.179	338.31
354.643	352.21
355.107	356.16
355.571	378.71
356.035	390.51
356.498	374.96
356.962	402.11
357.426	395.96
357.89	355.51
358.354	333.16
358.818	332.86
359.281	346.46
359.745	359.91
360.209	353.01
360.673	355.31
361.136	361.61
361.6	357.76
362.064	386.11
362.527	393.96
362.991	391.96
363.454	395.06
363.918	399.66
364.381	394.26
364.845	385.46
365.308	373.91
365.772	376.46
366.235	379.71
366.698	405.61
367.162	489.21
367.625	540.11
368.088	439.81
368.552	403.41
369.015	406.21
369.478	430.21
369.941	441.86
370.404	446.71
370.867	477.91
371.331	483.01
371.794	487.31
372.257	548.66
372.72	582.31
373.183	550.76
373.646	559.31
374.109	559.41
374.572	646.26
375.035	767.01
375.497	572.51
375.96	462.61
376.423	441.21
376.886	444.86
377.349	449.96
377.811	458.36
378.274	461.31
378.737	464.31
379.199	481.56
379.662	496.21
380.125	529.41
380.587	581.41
381.05	619.81
381.512	612.61
381.975	595.71
382.437	589.51
382.9	585.56
383.362	592.01
383.825	629.21
384.287	789.51
384.75	880.41
385.212	776.31
385.674	642.81
386.136	587.21
386.599	574.86
387.061	608.76
387.523	629.26
387.985	637.31
388.447	657.71
388.91	739.36
389.372	893.26
389.834	837.91
390.296	693.36
390.758	710.06
391.22	725.71
391.682	883.96
392.144	1371.16
392.606	1274.46
393.068	760.46
393.529	688.61
393.991	672.66
394.453	661.11
394.915	693.21
395.377	842.76
395.838	1021.66
396.3	724.81
396.762	569.81
397.224	546.11
397.685	531.21
398.147	541.61
398.608	547.21
399.07	544.46
399.531	535.46
399.993	558.81
400.454	556.61
400.916	551.41
401.377	575.76
401.839	570.46
402.3	578.06
402.762	607.76
403.223	675.21
403.684	676.06
404.145	625.06
404.607	610.21
405.068	611.31
405.529	629.06
405.99	635.11
406.451	644.21
406.913	629.71
407.374	641.36
407.835	642.11
408.296	660.41
408.757	667.81
409.218	689.01
409.679	695.16
410.14	705.96
410.601	736.51
411.062	760.96
411.522	875.01
411.983	971.61
412.444	828.21
412.905	721.26
413.366	726.31
413.826	758.86
414.287	840.31
414.748	993.06
415.208	1017.11
415.669	854.01
416.13	771.91
416.59	760.21
417.051	785.31
417.511	817.36
417.972	885.06
418.432	944.51
418.893	1048.56
419.353	994.51
419.814	772.51
420.274	686.91
420.734	692.46
421.195	746.91
421.655	769.51
422.115	748.46
422.576	721.31
423.036	726.06
423.496	755.26
423.956	792.91
424.416	841.96
424.876	944.11
425.336	948.81
425.797	938.66
426.257	946.61
426.717	890.36
427.177	833.66
427.637	861.91
428.097	907.01
428.556	947.86
429.016	1029.01
429.476	1022.11
429.936	977.76
430.396	954.16
430.856	970.66
431.315	994.51
431.775	1063.66
432.235	1118.61
432.694	1140.66
433.154	1079.01
433.614	1038.76
434.073	1003.71
434.533	919.16
434.993	875.81
435.452	890.71
435.912	876.46
436.371	867.51
436.83	871.71
437.29	881.71
437.749	837.96
438.209	830.51
438.668	835.86
439.127	842.31
439.587	825.31
440.046	790.66
440.505	812.76
440.964	809.36
441.424	829.96
441.883	840.31
442.342	803.86
442.801	776.61
443.26	790.11
443.719	788.01
444.178	782.71
444.637	792.86
445.096	800.21
445.555	811.71
446.014	801.41
446.473	778.36
446.932	781.01
447.391	791.51
447.849	815.86
448.308	805.46
448.767	826.46
449.226	842.96
449.685	848.06
450.143	883.51
450.602	889.76
451.061	848.41
451.519	859.11
451.978	887.61
452.436	918.06
452.895	873.06
453.353	832.26
453.812	850.71
454.27	840.66
454.729	812.11
455.187	822.16
455.646	818.41
456.104	833.86
456.562	825.96
457.021	821.86
457.479	780.26
457.937	815.06
458.395	828.26
458.854	817.36
459.312	806.91
459.77	819.86
460.228	839.96
460.686	845.16
461.144	844.36
461.602	834.86
462.06	833.21
462.518	856.66
462.976	852.31
463.434	863.81
463.892	870.96
464.35	894.16
464.808	901.06
465.266	920.61
465.724	923.21
466.181	920.61
466.639	926.06
467.097	964.71
467.555	995.36
468.012	987.91
468.47	992.36
468.928	1021.51
469.385	1046.91
469.843	1068.21
470.3	1052.46
470.758	1095.66
471.215	1108.61
471.673	1129.31
472.13	1159.11
472.588	1187.71
473.045	1185.76
473.503	1208.71
473.96	1263.86
474.417	1273.06
474.875	1338.11
475.332	1387.36
475.789	1402.41
476.246	1439.11
476.704	1509.96
477.161	1551.46
477.618	1594.26
478.075	1693.31
478.532	1820.31
478.989	1960.86
479.446	2166.46
479.903	2296.01
480.36	2521.51
480.817	2684.31
481.274	2884.71
481.731	3155.11
482.188	3411.36
482.645	3681.56
483.102	3904.06
483.558	4186.06
484.015	4392.96
484.472	4405.71
484.929	4270.31
485.385	4074.76
485.842	3973.96
486.299	3758.46
486.755	3381.36
487.212	3026.21
487.668	2723.31
488.125	2515.96
488.582	2323.36
489.038	2224.31
489.494	2152.96
489.951	2088.66
490.407	2033.01
490.864	2006.06
491.32	1959.06
491.776	1921.01
492.233	1943.51
492.689	1908.61
493.145	1867.96
493.602	1863.51
494.058	1910.56
494.514	1941.51
494.97	1948.36
495.426	1959.51
495.882	1978.26
496.338	1984.56
496.794	2067.51
497.251	2077.06
497.707	2073.91
498.163	2076.31
498.618	2062.91
499.074	2094.56
499.53	2129.61
499.986	2158.01
500.442	2201.56
500.898	2194.66
501.354	2223.96
501.809	2231.91
502.265	2262.51
502.721	2374.61
503.177	2429.86
503.632	2307.56
504.088	2327.26
504.543	2539.71
504.999	2378.41
505.455	2106.61
505.91	2002.71
506.366	1977.31
506.821	1974.26
507.277	1958.96
507.732	1963.46
508.187	1957.91
508.643	1974.31
509.098	1979.26
509.553	2000.51
510.009	2022.81
510.464	2066.91
510.919	2089.96
511.375	2107.51
511.83	2143.66
512.285	2175.56
512.74	2232.51
513.195	2263.16
513.65	2285.71
514.105	2328.61
514.56	2357.26
515.015	2386.96
515.47	2419.91
515.925	2403.81
516.38	2405.46
516.835	2382.46
517.29	2381.26
517.745	2389.36
518.2	2355.06
518.655	2283.76
519.109	2242.36
519.564	2233.86
520.019	2215.16
520.474	2187.71
520.928	2174.86
521.383	2166.16
521.838	2162.96
522.292	2142.91
522.747	2108.36
523.201	2101.36
523.656	2074.56
524.11	2062.21
524.565	2069.21
525.019	2075.11
525.474	2090.16
525.928	2079.86
526.382	2053.36
526.837	2039.51
527.291	2050.36
527.745	2035.71
528.2	2044.51
528.654	2030.41
529.108	2023.66
529.562	2026.41
530.016	2021.71
530.47	2037.51
530.925	2032.61
531.379	2050.31
531.833	2071.71
532.287	2047.71
532.741	2032.46
533.195	2037.76
533.649	2044.51
534.103	2027.36
534.556	2029.51
535.01	2043.36
535.464	2036.66
535.918	2054.26
536.372	2062.56
536.826	2048.86
537.279	2034.76
537.733	2034.36
538.187	2048.56
538.64	2054.06
539.094	2053.86
539.548	2097.81
540.001	2082.81
540.455	2092.66
540.908	2109.71
541.362	2125.46
541.815	2134.21
542.269	2181.56
542.722	2173.76
543.175	2200.16
543.629	2212.56
544.082	2231.96
544.536	2260.11
544.989	2260.46
545.442	2262.16
545.895	2266.56
546.349	2266.21
546.802	2267.26
547.255	2268.36
547.708	2278.86
548.161	2307.96
548.614	2312.96
549.067	2325.36
549.52	2298.71
549.973	2284.66
550.426	2279.21
550.879	2254.51
551.332	2230.01
551.785	2265.41
552.238	2280.86
552.691	2276.91
553.144	2318.21
553.596	2344.76
554.049	2378.76
554.502	2435.41
554.955	2471.11
555.407	2503.11
555.86	2480.76
556.313	2457.76
556.765	2428.11
557.218	2409.56
557.67	2402.51
558.123	2363.06
558.576	2351.16
559.028	2345.36
559.48	2379.31
559.933	2365.41
560.385	2305.51
560.838	2225.01
561.29	2152.96
561.742	2141.31
562.195	2109.56
562.647	2097.96
563.099	2086.71
563.551	2076.51
564.004	2108.71
564.456	2075.31
564.908	2039.26
565.36	1994.11
565.812	1965.61
566.264	1949.36
566.716	1916.56
567.168	1884.76
567.62	1907.76
568.072	1876.56
568.524	1847.01
568.976	1825.51
569.428	1827.36
569.88	1811.71
570.332	1835.61
570.784	1829.46
571.235	1816.96
571.687	1838.66
572.139	1839.56
572.59	1852.91
573.042	1867.81
573.494	1868.81
573.945	1836.21
574.397	1799.61
574.849	1795.66
575.3	1801.86
575.752	1784.86
576.203	1761.61
576.655	1782.41
577.106	1741.26
577.557	1743.96
578.009	1723.81
578.46	1733.41
578.912	1714.81
579.363	1726.51
579.814	1719.86
580.265	1725.86
580.717	1728.81
581.168	1718.96
581.619	1736.56
582.07	1749.31
582.521	1750.26
582.972	1745.41
583.423	1759.71
583.875	1799.51
584.326	1903.26
584.777	2082.46
585.227	2296.96
585.678	2448.61
586.129	2505.61
586.58	2554.21
587.031	2584.41
587.482	2734.61
587.933	3225.61
588.384	2947.21
588.834	2425.71
589.285	2030.36
589.736	1974.11
590.186	1976.96
590.637	1948.36
591.088	1920.06
591.538	1891.51
591.989	1880.36
592.439	1858.86
592.89	1855.21
593.34	1851.96
593.791	1876.46
594.241	1882.51
594.692	1913.81
595.142	1883.36
595.593	1849.21
596.043	1848.51
596.493	1878.51
596.943	1924.06
597.394	1889.11
597.844	1869.66
598.294	1892.96
598.744	1948.96
599.195	2063.76
599.645	2181.26
600.095	2280.16
600.545	2386.06
600.995	2492.76
601.445	2575.41
601.895	2693.51
602.345	2780.81
602.795	2739.96
603.245	2613.26
603.695	2460.16
604.145	2323.36
604.594	2210.41
605.044	2098.11
605.494	1974.26
605.944	1871.91
606.393	1846.86
606.843	1815.06
607.293	1812.51
607.743	1805.21
608.192	1835.81
608.642	1829.86
609.091	1826.86
609.541	1828.16
609.99	1823.46
610.44	1781.76
610.889	1771.11
611.339	1748.51
611.788	1740.46
612.238	1765.06
612.687	1781.21
613.136	1808.31
613.586	1836.56
614.035	1830.16
614.484	1855.41
614.933	1881.46
615.383	1828.76
615.832	1759.26
616.281	1735.06
616.73	1678.06
617.179	1626.76
617.628	1597.61
618.077	1567.51
618.526	1536.81
618.975	1533.36
619.424	1498.31
619.873	1514.46
620.322	1498.41
620.771	1495.36
621.22	1478.81
621.669	1446.31
622.118	1440.06
622.567	1430.36
623.015	1407.46
623.464	1398.41
623.913	1375.66
624.361	1380.61
624.81	1383.86
625.259	1365.01
625.707	1347.71
626.156	1355.46
626.604	1373.96
627.053	1376.21
627.501	1373.31
627.95	1380.61
628.398	1404.21
628.847	1391.71
629.295	1388.86
629.744	1406.06
630.192	1447.31
630.64	1564.31
631.089	1719.46
631.537	1813.86
631.985	1798.51
632.433	1878.01
632.881	1868.01
633.33	2245.66
633.778	2448.36
634.226	1727.56
634.674	1587.61
635.122	1574.16
635.57	1603.41
636.018	1858.96
636.466	1513.51
636.914	1351.41
637.362	1339.76
637.81	1356.66
638.258	1403.56
638.705	1408.21
639.153	1452.61
639.601	1457.26
640.049	1481.91
640.497	1527.76
640.944	1564.66
641.392	1493.71
641.84	1407.56
642.287	1360.06
642.735	1333.71
643.182	1316.21
643.63	1332.11
644.078	1325.96
644.525	1347.46
644.973	1386.21
645.42	1409.16
645.867	1429.16
646.315	1456.31
646.762	1510.36
647.21	1538.96
647.657	1621.31
648.104	1695.81
648.551	1764.56
648.999	1909.66
649.446	2095.91
649.893	2364.61
650.34	2794.16
650.787	3462.41
651.234	4542.96
651.682	6320.11
652.129	9097.66
652.576	13028.61
653.023	15534.86
653.47	15538.81
653.917	15538.86
654.363	15538.76
654.81	15535.76
655.257	15536.41
655.704	15485.31
656.151	9750.11
656.598	6330.71
657.044	4488.01
657.491	3475.16
657.938	2809.01
658.385	2377.76
658.831	2093.36
659.278	1871.61
659.724	1717.36
660.171	1589.51
660.618	1476.11
661.064	1390.81
661.511	1339.16
661.957	1295.51
662.404	1270.51
662.85	1257.71
663.296	1243.16
663.743	1208.21
664.189	1206.66
664.635	1194.26
665.082	1160.46
665.528	1152.81
665.974	1129.56
666.42	1119.91
666.867	1137.31
667.313	1161.71
667.759	1215.11
668.205	1211.81
668.651	1228.91
669.097	1181.76
669.543	1307.86
669.989	1210.76
670.435	1056.66
670.881	1050.46
671.327	1087.71
671.773	1160.06
672.219	1242.56
672.665	1326.81
673.11	1372.21
673.556	1378.16
674.002	1404.86
674.448	1435.66
674.893	1222.96
675.339	1070.96
675.785	977.61
676.23	936.96
676.676	898.86
677.122	873.81
677.567	856.56
678.013	826.81
678.458	827.06
678.904	816.41
679.349	805.31
679.794	810.41
680.24	797.76
680.685	795.01
681.131	804.41
681.576	805.66
682.021	806.76
682.466	813.26
682.912	828.96
683.357	863.76
683.802	935.11
684.247	1022.81
684.692	1084.86
685.137	1129.76
685.583	1148.31
686.028	1209.41
686.473	1149.61
686.918	988.06
687.363	901.16
687.807	861.56
688.252	818.31
688.697	791.46
689.142	772.11
689.587	774.56
690.032	791.61
690.477	819.46
690.921	867.46
691.366	913.11
691.811	944.46
692.255	1017.11
692.7	1241.36
693.145	1805.66
693.589	2746.26
694.034	3251.06
694.478	3433.66
694.923	3120.21
695.367	4421.56
695.812	2683.66
696.256	1153.66
696.701	853.76
697.145	789.76
697.59	758.66
698.034	751.11
698.478	751.91
698.922	758.61
699.367	772.46
699.811	813.66
700.255	885.16
700.699	959.56
701.143	1036.46
701.588	1093.61
702.032	1133.06
702.476	1166.56
702.92	1249.21
703.364	1643.96
703.808	2515.51
704.252	3111.56
704.696	3257.76
705.14	3062.66
705.584	4194.96
706.027	2326.01
706.471	1178.11
706.915	879.81
707.359	784.11
707.803	745.11
708.246	713.76
708.69	719.01
709.134	704.76
709.577	705.11
710.021	710.66
710.465	709.66
710.908	706.01
711.352	736.06
711.795	817.56
712.239	873.16
712.682	901.01
713.126	890.46
713.569	987.61
714.012	814.71
714.456	727.46
714.899	677.21
715.342	635.11
715.786	604.36
716.229	594.46
716.672	584.56
717.115	582.06
717.558	586.76
718.002	605.46
718.445	631.81
718.888	666.06
719.331	677.16
719.774	692.51
720.217	673.01
720.66	636.51
721.103	602.56
721.546	566.51
721.989	561.81
722.432	551.56
722.874	547.06
723.317	556.36
723.76	614.01
724.203	749.31
724.645	998.71
725.088	1158.61
725.531	1126.11
725.974	1227.56
726.416	1100.46
726.859	693.91
727.301	561.56
727.744	539.11
728.187	542.11
728.629	548.31
729.071	579.11
729.514	597.06
729.956	625.86
730.399	629.81
730.841	635.71
731.283	618.01
731.726	598.81
732.168	607.16
732.61	645.26
733.053	690.56
733.495	770.96
733.937	854.11
734.379	1013.81
734.821	1291.31
735.263	2061.56
735.705	3696.61
736.148	5412.41
736.59	5325.51
737.032	5749.46
737.474	4724.01
737.916	1823.01
738.357	962.31
738.799	739.96
739.241	690.11
739.683	694.71
740.125	706.01
740.567	707.11
741.008	746.16
741.45	769.61
741.892	803.31
742.334	794.56
742.775	787.31
743.217	741.96
743.658	647.81
744.1	652.56
744.542	736.06
744.983	757.71
745.425	792.46
745.866	787.46
746.307	702.26
746.749	770.81
747.19	1121.96
747.632	2188.51
748.073	4059.81
748.514	5544.21
748.956	7328.71
749.397	8501.66
749.838	5840.01
750.279	5543.21
750.72	2865.96
751.162	1215.01
751.603	697.86
752.044	563.16
752.485	503.81
752.926	475.11
753.367	450.46
753.808	444.21
754.249	438.16
754.69	427.26
755.131	426.31
755.572	422.66
756.013	426.36
756.453	425.26
756.894	436.26
757.335	437.16
757.776	441.46
758.216	455.46
758.657	482.11
759.098	535.51
759.538	651.21
759.979	943.21
760.42	1924.86
760.86	4947.56
761.301	10075.21
761.741	11643.86
762.182	13211.16
762.622	8539.21
763.063	3106.76
763.503	1390.06
763.943	1081.86
764.384	1186.66
764.824	1132.01
765.264	1125.01
765.705	794.06
766.145	556.21
766.585	489.76
767.025	526.71
767.465	698.06
767.906	860.36
768.346	889.26
768.786	916.41
769.226	929.36
769.666	1575.76
770.106	3408.96
770.546	4725.21
770.986	5282.41
771.426	3981.56
771.866	1675.56
772.306	769.71
772.745	486.06
773.185	426.56
773.625	427.51
774.065	504.76
774.505	842.16
774.944	1696.01
775.384	2532.31
775.824	2846.46
776.263	2318.11
776.703	1143.66
777.142	575.41
777.582	392.91
778.021	358.76
778.461	336.01
778.9	327.16
779.34	298.61
779.779	286.71
780.219	278.06
780.658	271.21
781.097	263.21
781.537	257.86
781.976	261.06
782.415	257.21
782.855	251.61
783.294	250.66
783.733	250.76
784.172	251.01
784.611	252.61
785.05	260.36
785.489	267.66
785.928	266.71
786.367	282.01
786.806	296.71
787.245	319.66
787.684	328.01
788.123	316.41
788.562	307.46
789.001	290.56
789.44	288.01
789.879	289.71
790.317	290.21
790.756	309.76
791.195	351.61
791.634	482.26
792.072	878.26
792.511	2167.06
792.95	3936.91
793.388	4679.91
793.827	3020.96
794.265	1395.11
794.704	673.36
795.142	405.86
795.581	340.81
796.019	305.06
796.458	308.91
796.896	315.81
797.334	369.91
797.773	488.71
798.211	943.26
798.649	1964.41
799.087	3279.41
799.526	4597.36
799.964	4696.21
800.402	3203.56
800.84	1457.81
801.278	717.11
801.716	432.51
802.154	356.11
802.592	331.96
803.03	331.21
803.468	344.11
803.906	341.81
804.344	334.96
804.782	328.46
805.22	324.61
805.658	344.51
806.096	363.11
806.533	412.36
806.971	518.76
807.409	762.71
807.847	1537.76
808.284	3914.91
808.722	6816.76
809.16	9485.81
809.597	12904.66
810.035	15333.96
810.472	10165.91
810.91	4354.11
811.347	1953.56
811.785	914.61
812.222	574.31
812.66	445.81
813.097	375.16
813.535	326.56
813.972	297.71
814.409	273.51
814.846	265.66
815.284	242.91
815.721	254.31
816.158	268.26
816.595	351.96
817.032	418.96
817.47	390.96
817.907	302.01
818.344	271.26
818.781	255.46
819.218	300.06
819.655	433.21
820.092	550.26
820.529	512.21
820.966	429.36
821.403	311.91
821.839	276.66
822.276	295.61
822.713	330.96
823.15	316.81
823.587	353.66
824.023	640.61
824.46	1611.16
824.897	2765.11
825.333	2110.81
825.77	977.16
826.206	510.26
826.643	304.66
827.08	224.11
827.516	200.31
827.953	190.21
828.389	177.41
828.825	168.51
829.262	163.56
829.698	157.26
830.135	146.51
830.571	144.81
831.007	151.86
831.443	157.06
831.88	156.51
832.316	164.76
832.752	161.01
833.188	156.01
833.624	165.41
834.06	165.06
834.497	162.31
834.933	167.56
835.369	183.01
835.805	189.81
836.241	197.71
836.677	217.01
837.112	258.76
837.548	312.06
837.984	466.96
838.42	1013.41
838.856	2812.86
839.292	5481.81
839.727	4011.31
840.163	2749.81
840.599	4192.31
841.034	6329.21
841.47	3142.71
841.906	1545.21
842.341	874.71
842.777	768.61
843.212	911.16
843.648	526.21
844.083	327.76
844.519	226.01
844.954	182.86
845.39	157.01
845.825	150.91
846.261	145.26
846.696	138.76
847.131	135.91
847.566	133.81
848.002	137.11
848.437	149.06
848.872	153.31
849.307	198.71
849.742	356.71
850.177	920.81
850.613	1933.91
851.048	1372.31
851.483	637.51
851.918	360.06
852.353	205.81
852.788	161.31
853.223	139.91
853.657	126.76
854.092	116.51
854.527	108.71
854.962	114.46
855.397	121.51
855.832	111.76
856.266	103.06
856.701	99.71
857.136	104.76
857.57	120.16
858.005	141.11
858.44	123.61
858.874	118.51
859.309	125.41
859.743	122.36
860.178	119.16
860.612	125.16
861.047	156.56
861.481	211.11
861.915	143.81
862.35	115.61
862.784	98.66
863.218	90.46
863.653	99.56
864.087	118.76
864.521	158.26
864.955	269.51
865.39	448.46
865.824	323.16
866.258	375.41
866.692	534.86
867.126	383.26
867.56	214.61
867.994	140.56
868.428	128.86
868.862	152.11
869.296	141.51
869.73	162.36
870.164	142.01
870.598	131.91
871.031	97.16
871.465	90.91
871.899	77.41
872.333	66.56
872.766	71.91
873.2	76.66
873.634	69.16
874.067	76.76
874.501	72.46
874.935	77.36
875.368	76.76
875.802	70.01
876.235	67.86
876.669	61.56
877.102	58.61
877.535	60.26
877.969	57.66
878.402	63.51
878.836	58.91
879.269	61.86
879.702	60.66
880.135	62.46
880.569	64.06
881.002	54.51
881.435	59.31
881.868	55.81
882.301	52.16
882.734	50.41
883.167	55.46
883.601	55.76
884.034	56.56
884.467	52.36
884.899	51.06
885.332	47.21
885.765	48.66
886.198	42.76
886.631	50.76
887.064	53.56
887.497	45.31
887.929	46.16
888.362	46.51
888.795	45.61
889.228	51.21
889.66	43.06
890.093	45.16
890.526	43.66
890.958	47.06
891.391	46.01
891.823	46.26
892.256	44.76
892.688	47.11
893.121	43.06
893.553	44.06
893.985	41.36
894.418	33.86
894.85	47.36
895.282	44.01
895.715	43.61
896.147	36.56
896.579	35.26
897.011	47.76
897.444	43.16
897.876	35.81
898.308	41.91
898.74	42.96
899.172	40.81
899.604	42.71
900.036	41.56
900.468	36.36
900.9	47.41
901.332	55.01
901.764	54.41
902.196	49.06
902.628	50.81
903.06	73.66
903.491	77.96
903.923	62.61
904.355	68.41
904.787	69.36
905.218	60.01
905.65	54.61
906.082	48.81
906.513	49.36
906.945	53.21
907.376	51.51
907.808	53.76
908.239	60.51
908.671	61.96
909.102	66.96
909.534	97.66
909.965	183.16
910.397	456.41
910.828	1293.66
911.259	783.76
911.691	426.91
912.122	247.41
912.553	128.11
912.984	73.01
913.415	65.46
913.847	59.46
914.278	48.61
914.709	45.76
915.14	42.01
915.571	50.86
916.002	44.16
916.433	41.11
916.864	37.36
917.295	46.56
917.726	55.06
918.157	60.61
918.587	61.76
919.018	62.21
919.449	52.31
919.88	66.11
920.311	96.66
920.741	274.71
921.172	476.86
921.603	239.56
922.033	153.21
922.464	95.76
922.895	64.16
923.325	45.61
923.756	43.06
924.186	65.96
924.617	106.16
925.047	169.11
925.478	153.16
925.908	105.66
926.338	80.66
926.769	57.81
927.199	49.01
927.629	40.16
928.06	44.26
928.49	38.96
928.92	31.86
929.35	31.86
929.78	28.66
930.21	25.61
930.641	19.21
931.071	24.71
931.501	21.71
931.931	22.36
932.361	22.01
932.791	25.56
933.221	23.46
933.651	40.91
934.08	62.41
934.51	39.16
934.94	35.81
935.37	26.06
935.8	20.81
936.229	18.26
936.659	18.96
937.089	32.16
937.519	45.96
937.948	62.76
938.378	38.76
938.807	25.36
939.237	23.01
939.666	24.86
940.096	15.86
940.525	10.71
940.955	17.01
941.384	8.86
941.814	12.56
942.243	6.31
942.672	10.31
943.102	10.21
943.531	13.21
943.96	8.91
944.39	12.96
944.819	12.16
945.248	10.31
945.677	10.21
946.106	8.86
946.535	14.61
946.964	9.41
947.393	5.81
947.822	8.31
948.251	11.46
948.68	14.71
949.109	13.81
949.538	7.76
949.967	8.06
950.396	11.41
950.825	12.21
951.254	10.66
951.682	3.36
952.111	2.16
952.54	7.46
952.969	8.61
953.397	7.71
953.826	6.06
954.254	13.01
954.683	11.36
955.112	12.06
955.54	9.86
955.969	5.86
956.397	7.41
956.826	6.66
957.254	6.56
957.682	10.16
958.111	12.26
958.539	8.66
958.967	2.01
959.396	7.21
959.824	4.01
960.252	10.21
960.68	11.16
961.109	12.66
961.537	15.91
961.965	5.01
962.393	1.51
962.821	6.96
963.249	6.71
963.677	13.06
964.105	80.36
964.533	136.81
964.961	67.21
965.389	41.61
965.817	25.96
966.245	12.41
966.672	9.36
967.1	10.16
967.528	3.31
967.956	2.96
968.383	6.51
968.811	5.26
969.239	6.51
969.666	5.46
970.094	5.76
970.522	3.16
970.949	7.76
971.377	0.36
971.804	4.01
972.232	3.06
972.659	5.31
973.087	6.41
973.514	6.06
973.941	3.31
974.369	3.56
974.796	4.61
975.223	3.46
975.651	8.11
976.078	6.21
976.505	13.21
976.932	32.86
977.359	38.56
977.786	26.51
978.214	15.66
978.641	6.86
979.068	5.26
979.495	3.21
979.922	5.41
980.349	6.66
980.776	4.26
981.202	5.21
981.629	5.96
982.056	4.36
982.483	-2.09
982.91	6.21
983.337	3.46
983.763	3.41
984.19	8.96
984.617	2.31
985.043	6.36
985.47	4.76
985.897	5.11
986.323	6.81
986.75	-2.44
987.176	2.81
987.603	0.71
988.029	3.61
988.456	6.36
988.882	6.36
989.308	-0.39
989.735	0.16
990.161	5.56
990.587	4.51
991.014	8.51
991.44	6.16
991.866	1.81
992.292	0.66
992.719	1.51
993.145	6.41
993.571	0.36
993.997	6.11
994.423	6.66
994.849	-0.89
995.275	7.91
995.701	7.01
996.127	-0.44
996.553	1.01
996.979	-2.44
997.405	8.76
997.83	5.51
998.256	2.76
998.682	0.96
999.108	3.91
999.534	-0.24
999.959	4.06
1000.385	7.16
1000.811	-0.94
1001.236	-0.79
1001.662	2.01
1002.087	4.41
1002.513	5.91
1002.938	-0.84
1003.364	0.81
1003.789	5.16
1004.215	-1.19
1004.64	3.96
1005.066	7.76
1005.491	6.96
1005.916	5.41
1006.342	2.11
1006.767	4.81
1007.192	6.76
1007.617	6.51
1008.042	-0.59
1008.468	1.66
1008.893	4.86
1009.318	5.81
1009.743	14.71
1010.168	24.66
1010.593	19.96
1011.018	10.36
1011.443	3.16
1011.868	5.26
1012.293	5.41
1012.718	-2.89
1013.143	-1.94
1013.567	6.76
1013.992	6.16
1014.417	1.71
1014.842	-0.89
1015.267	-5.29
1015.691	4.81
1016.116	-0.54
1016.541	0.06
1016.965	2.36
1017.39	1.21
1017.814	-4.69
1018.239	0.51
1018.663	-5.64
1019.088	-3.69
1019.512	5.71
1019.937	-2.74
1020.361	-1.09
1020.785	-0.69
1021.21	-0.24
1021.634	1.51
1022.058	6.66
1022.483	-3.89
1022.907	-1.84
1023.331	-0.29
1023.755	2.66
1024.179	-0.39
1024.604	-1.49
1025.028	2.26
1025.452	3.56
1025.876	1.76
1026.3	1.01
1026.724	-0.39
1027.148	2.81
1027.572	2.01
1027.996	2.06
1028.42	1.76
1028.843	0.21
1029.267	2.01
1029.691	3.36
1030.115	-4.29
1030.539	-1.64
1030.962	-2.09
1031.386	1.86
1031.81	0.61
1032.233	-0.39
1032.657	-2.89
1033.08	-5.69
1033.504	3.66
1033.927	-1.49
1034.351	0.56
1034.774	-0.69
1035.198	-1.34
1035.621	-2.19
1036.045	1.61
1036.468	1.66
1036.891	-2.94
1037.315	3.16
1037.738	-0.14
1038.161	2.86
1038.584	-4.39
1039.008	-6.79
1039.431	-4.69
1039.854	-5.04
1040.277	4.41
1040.7	1.81
1041.123	2.01
1041.546	-1.14
1041.969	4.51
1042.392	5.01
1042.815	-3.64
1043.238	1.06
1043.661	0.36
1044.084	-1.19
1044.507	0.21
1044.93	1.46
1045.352	-2.64
1045.775	1.76
1046.198	1.46
1046.621	9.71
1047.043	-0.24
1047.466	3.11
1047.889	1.01
1048.311	4.41
1048.734	-3.54
1049.156	-1.84
1049.579	-1.19
1050.001	-0.59
1050.424	-0.09
1050.846	-5.94
1051.269	-2.59
1051.691	-0.89
1052.113	2.81
1052.536	0.36
1052.958	-3.04
1053.38	1.16
1053.802	0.36
1054.225	0.61
1054.647	5.06
1055.069	1.51
1055.491	0.31
1055.913	-3.94
1056.335	-9.19
1056.757	-9.84
1057.179	3.11
1057.601	-1.84
1058.023	1.26
1058.445	-5.34
1058.867	1.86
1059.289	1.11
1059.711	-3.84
1060.133	1.11
1060.555	-3.09
1060.976	0.61
1061.398	-3.79
1061.82	1.56
1062.241	-3.54
1062.663	-2.64
1063.085	-6.54
1063.506	-8.94
1063.928	-4.64
1064.35	-2.19
1064.771	-2.04
1065.193	-5.29
1065.614	-2.29
1066.035	2.76
1066.457	3.31
1066.878	-1.69
1067.3	2.26
1067.721	-2.89
1068.142	1.86
1068.564	2.31
1068.985	0.46
1069.406	-3.24
1069.827	1.31
1070.248	-2.74
1070.67	-1.44
1071.091	-5.99
1071.512	-3.49
1071.933	1.46
1072.354	-5.09
1072.775	-3.49
1073.196	-3.54
1073.617	-6.14
1074.038	-0.94
1074.459	-5.04
1074.88	1.81
1075.3	-1.09
1075.721	-0.69
1076.142	-3.44
1076.563	-4.34
1076.983	0.16
1077.404	-5.99
1077.825	-1.69
1078.246	-3.29
1078.666	-2.89
1079.087	-3.99
1079.507	-2.24
1079.928	0.91
1080.348	-2.84
1080.769	-1.44
1081.189	-0.49
1081.61	-8.69
1082.03	0.06
1082.451	-1.74
1082.871	-6.49
1083.291	-0.94
1083.711	-2.69
1084.132	-6.24
1084.552	-4.34
1084.972	-2.84
1085.392	0.76
1085.813	-0.54
1086.233	-1.09
1086.653	-0.89
1087.073	-6.59
1087.493	-0.24
1087.913	-4.59
1088.333	-6.79
1088.753	-1.84
1089.173	0.91
1089.593	-4.69
1090.013	-5.39
1090.433	-7.09
1090.852	3.01
1091.272	-6.44
1091.692	-1.04
1092.112	-7.54
1092.531	-4.59
1092.951	-3.39
1093.371	-5.34
1093.79	-5.74
1094.21	-1.49
1094.63	-0.79
1095.049	0.06
1095.469	-6.29
1095.888	0.01
1096.308	0.26
1096.727	-4.04
1097.146	0.11
1097.566	2.41
1097.985	1.26
1098.405	-0.49
1098.824	3.06
1099.243	-6.29
1099.662	-0.84
1100.082	1.56
1100.501	1.16
1100.92	3.36
1101.339	-0.59
1101.758	3.86
