Data from MSPlasma+Separation6_Subt14_10-14-59-757.txt Node
Date: Fri Jul 21 10:14:59 EDT 2017
User: Ender
Spectrometer: HR+D1039
Trigger mode: 0
Integration Time (sec): 6.430000E-3
Scans to average: 20
Electric dark correction enabled: true
Nonlinearity correction enabled: false
Boxcar width: 0
XAxis mode: Wavelengths
Number of Pixels in Spectrum: 2048
>>>>>Begin Spectral Data<<<<<
187.836	-1.63
188.309	-1.63
188.782	-1.63
189.255	-4.08
189.728	2.87
190.201	-3.58
190.674	1.07
191.147	0.57
191.619	0.17
192.092	-1.63
192.565	-1.03
193.038	3.62
193.511	3.62
193.984	0.57
194.456	-0.13
194.929	-3.63
195.402	1.72
195.874	1.52
196.347	5.52
196.82	3.02
197.292	-3.23
197.765	-0.28
198.237	-0.13
198.71	-6.03
199.182	0.77
199.655	3.62
200.127	5.07
200.6	-1.08
201.072	3.92
201.544	-1.53
202.017	3.87
202.489	-0.38
202.961	2.72
203.433	-3.93
203.906	-0.08
204.378	3.82
204.85	5.97
205.322	3.02
205.794	2.27
206.266	2.32
206.739	7.02
207.211	-2.18
207.683	3.87
208.155	4.27
208.627	1.82
209.099	2.42
209.57	3.02
210.042	3.82
210.514	10.37
210.986	12.97
211.458	25.12
211.93	12.42
212.402	7.87
212.873	1.12
213.345	3.47
213.817	6.27
214.288	-4.03
214.76	2.97
215.232	4.67
215.703	5.32
216.175	0.57
216.646	2.42
217.118	6.07
217.589	-1.73
218.061	2.52
218.532	2.57
219.004	7.47
219.475	15.27
219.946	28.82
220.418	37.87
220.889	24.87
221.36	15.12
221.832	9.72
222.303	8.17
222.774	9.02
223.245	2.02
223.717	5.57
224.188	6.42
224.659	5.97
225.13	1.82
225.601	4.12
226.072	3.57
226.543	10.52
227.014	7.37
227.485	8.02
227.956	14.52
228.427	18.52
228.898	10.27
229.369	11.42
229.839	12.77
230.31	16.02
230.781	16.57
231.252	21.77
231.722	24.27
232.193	35.27
232.664	41.47
233.135	57.87
233.605	59.87
234.076	52.52
234.546	36.42
235.017	47.77
235.487	43.67
235.958	41.22
236.428	61.42
236.899	106.27
237.369	113.87
237.84	87.02
238.31	109.67
238.78	108.52
239.251	110.02
239.721	107.72
240.191	81.42
240.662	48.52
241.132	36.37
241.602	51.57
242.072	75.72
242.542	86.72
243.013	61.07
243.483	59.02
243.953	38.87
244.423	43.87
244.893	50.92
245.363	60.22
245.833	57.22
246.303	58.77
246.773	80.62
247.243	80.42
247.712	88.87
248.182	107.12
248.652	112.72
249.122	178.27
249.592	316.47
250.061	488.27
250.531	775.87
251.001	592.82
251.471	486.42
251.94	369.57
252.41	201.97
252.879	135.07
253.349	107.42
253.818	84.37
254.288	73.37
254.757	75.82
255.227	98.62
255.696	76.52
256.166	74.12
256.635	80.42
257.105	97.87
257.574	125.27
258.043	129.62
258.513	230.87
258.982	292.97
259.451	205.92
259.92	206.07
260.389	192.12
260.859	142.57
261.328	165.57
261.797	243.17
262.266	208.67
262.735	105.67
263.204	59.32
263.673	53.42
264.142	52.57
264.611	48.97
265.08	57.67
265.549	58.02
266.018	56.37
266.487	51.52
266.955	51.27
267.424	58.37
267.893	59.87
268.362	58.52
268.83	63.47
269.299	64.67
269.768	71.27
270.236	87.22
270.705	92.92
271.174	88.62
271.642	97.57
272.111	116.42
272.579	180.52
273.048	284.07
273.516	364.62
273.985	372.17
274.453	281.77
274.922	167.37
275.39	109.22
275.858	96.77
276.327	84.82
276.795	86.02
277.263	96.37
277.731	124.87
278.2	246.67
278.668	323.67
279.136	253.07
279.604	158.77
280.072	93.87
280.54	85.57
281.008	88.37
281.477	89.62
281.945	98.47
282.413	89.82
282.881	96.87
283.348	92.07
283.816	98.32
284.284	109.27
284.752	105.37
285.22	106.27
285.688	111.62
286.156	189.32
286.623	523.02
287.091	1033.72
287.559	529.32
288.026	204.82
288.494	124.67
288.962	104.77
289.429	97.47
289.897	93.92
290.364	88.27
290.832	93.42
291.3	93.07
291.767	92.62
292.234	98.47
292.702	102.67
293.169	109.82
293.637	117.42
294.104	112.82
294.571	113.47
295.039	105.52
295.506	106.97
295.973	111.27
296.44	107.07
296.908	116.52
297.375	135.42
297.842	133.07
298.309	114.12
298.776	118.47
299.243	120.42
299.71	115.12
300.177	111.52
300.644	128.17
301.111	136.82
301.578	124.87
302.045	121.97
302.512	115.22
302.979	119.77
303.446	128.37
303.913	128.67
304.379	134.82
304.846	160.62
305.313	171.67
305.78	203.17
306.246	245.72
306.713	266.07
307.18	233.07
307.646	257.57
308.113	222.17
308.579	175.62
309.046	172.52
309.512	167.72
309.979	152.92
310.445	149.72
310.912	155.92
311.378	155.62
311.845	148.17
312.311	141.27
312.777	149.32
313.244	156.17
313.71	161.57
314.176	174.17
314.642	203.52
315.109	242.97
315.575	226.57
316.041	200.27
316.507	192.42
316.973	216.32
317.439	206.02
317.905	229.52
318.371	224.37
318.837	216.97
319.303	228.47
319.769	209.82
320.235	232.22
320.701	270.57
321.167	283.97
321.633	343.37
322.099	489.62
322.564	657.97
323.03	511.42
323.496	354.07
323.962	338.97
324.427	309.67
324.893	269.92
325.359	260.37
325.824	224.62
326.29	239.72
326.755	237.07
327.221	241.02
327.686	251.02
328.152	226.92
328.617	215.62
329.083	222.82
329.548	232.72
330.014	242.92
330.479	260.87
330.944	306.62
331.41	355.32
331.875	339.92
332.34	353.47
332.805	407.37
333.271	527.92
333.736	697.02
334.201	621.72
334.666	459.37
335.131	527.82
335.596	411.67
336.061	433.47
336.526	441.87
336.991	382.17
337.456	417.07
337.921	326.82
338.386	267.57
338.851	243.57
339.316	225.62
339.781	217.37
340.246	221.37
340.711	223.22
341.175	229.82
341.64	234.62
342.105	237.47
342.569	250.87
343.034	268.62
343.499	281.42
343.963	268.92
344.428	263.92
344.893	271.02
345.357	274.97
345.822	260.07
346.286	275.67
346.751	285.32
347.215	282.57
347.679	290.47
348.144	310.32
348.608	302.82
349.073	316.67
349.537	354.47
350.001	352.67
350.465	324.12
350.93	315.27
351.394	308.72
351.858	309.47
352.322	330.62
352.786	325.42
353.25	325.07
353.715	321.97
354.179	344.42
354.643	354.02
355.107	370.97
355.571	386.12
356.035	393.12
356.498	381.42
356.962	409.07
357.426	404.62
357.89	365.62
358.354	347.77
358.818	333.47
359.281	351.77
359.745	368.47
360.209	356.87
360.673	367.87
361.136	365.77
361.6	373.27
362.064	390.52
362.527	401.77
362.991	398.67
363.454	398.02
363.918	407.27
364.381	398.87
364.845	389.67
365.308	381.87
365.772	382.92
366.235	384.82
366.698	413.97
367.162	507.12
367.625	560.22
368.088	451.52
368.552	406.92
369.015	409.67
369.478	444.87
369.941	450.12
370.404	461.12
370.867	485.17
371.331	491.07
371.794	493.57
372.257	560.87
372.72	593.32
373.183	561.97
373.646	571.82
374.109	572.92
374.572	669.42
375.035	778.72
375.497	587.67
375.96	471.12
376.423	453.32
376.886	454.67
377.349	460.02
377.811	463.77
378.274	475.97
378.737	479.82
379.199	488.87
379.662	508.27
380.125	539.17
380.587	596.07
381.05	627.57
381.512	631.27
381.975	607.17
382.437	600.62
382.9	599.57
383.362	603.92
383.825	645.52
384.287	816.12
384.75	910.42
385.212	802.27
385.674	663.72
386.136	593.87
386.599	589.02
387.061	618.72
387.523	648.77
387.985	639.97
388.447	666.72
388.91	754.47
389.372	921.27
389.834	854.02
390.296	704.82
390.758	710.47
391.22	737.32
391.682	902.27
392.144	1406.02
392.606	1303.67
393.068	772.17
393.529	702.92
393.991	681.12
394.453	667.92
394.915	707.77
395.377	853.97
395.838	1053.52
396.3	748.87
396.762	579.02
397.224	554.07
397.685	545.12
398.147	553.47
398.608	555.72
399.07	560.02
399.531	550.17
399.993	567.57
400.454	566.92
400.916	566.42
401.377	589.47
401.839	588.67
402.3	586.42
402.762	615.72
403.223	679.77
403.684	695.97
404.145	632.07
404.607	621.17
405.068	623.27
405.529	635.37
405.99	645.67
406.451	654.17
406.913	636.47
407.374	653.67
407.835	649.77
408.296	674.37
408.757	676.92
409.218	696.07
409.679	700.87
410.14	721.12
410.601	745.62
411.062	770.37
411.522	893.77
411.983	995.27
412.444	850.52
412.905	740.77
413.366	739.42
413.826	765.32
414.287	851.02
414.748	1017.42
415.208	1033.87
415.669	867.47
416.13	796.32
416.59	772.22
417.051	798.12
417.511	836.62
417.972	897.02
418.432	959.97
418.893	1068.82
419.353	1015.72
419.814	780.47
420.274	705.67
420.734	700.97
421.195	757.52
421.655	780.42
422.115	756.17
422.576	731.82
423.036	732.02
423.496	758.87
423.956	801.12
424.416	858.92
424.876	957.82
425.336	953.57
425.797	959.27
426.257	955.97
426.717	902.87
427.177	845.87
427.637	879.37
428.097	917.12
428.556	954.92
429.016	1040.67
429.476	1038.42
429.936	997.72
430.396	966.97
430.856	971.57
431.315	1012.27
431.775	1093.82
432.235	1139.12
432.694	1157.82
433.154	1087.37
433.614	1054.87
434.073	1014.17
434.533	926.22
434.993	907.32
435.452	904.02
435.912	891.17
436.371	886.52
436.83	885.57
437.29	896.77
437.749	852.87
438.209	836.52
438.668	857.17
439.127	857.27
439.587	836.27
440.046	807.62
440.505	821.87
440.964	812.47
441.424	846.72
441.883	852.17
442.342	813.82
442.801	784.82
443.26	808.42
443.719	803.02
444.178	790.77
444.637	799.57
445.096	801.87
445.555	820.17
446.014	817.17
446.473	792.17
446.932	791.77
447.391	809.32
447.849	829.47
448.308	816.22
448.767	830.77
449.226	855.67
449.685	867.42
450.143	897.62
450.602	903.12
451.061	859.12
451.519	874.47
451.978	896.37
452.436	923.77
452.895	875.32
453.353	854.07
453.812	861.82
454.27	860.62
454.729	831.72
455.187	831.92
455.646	842.27
456.104	844.42
456.562	835.07
457.021	834.32
457.479	795.62
457.937	821.57
458.395	844.97
458.854	831.07
459.312	817.27
459.77	828.12
460.228	844.12
460.686	862.57
461.144	861.02
461.602	843.22
462.06	851.02
462.518	872.72
462.976	861.67
463.434	875.52
463.892	882.82
464.35	904.67
464.808	908.42
465.266	919.07
465.724	938.82
466.181	941.47
466.639	938.77
467.097	977.27
467.555	1006.22
468.012	1002.27
468.47	1000.27
468.928	1039.62
469.385	1059.07
469.843	1074.62
470.3	1065.97
470.758	1112.47
471.215	1122.42
471.673	1156.92
472.13	1177.52
472.588	1202.92
473.045	1201.32
473.503	1214.02
473.96	1274.27
474.417	1287.47
474.875	1342.62
475.332	1398.77
475.789	1422.17
476.246	1458.97
476.704	1519.92
477.161	1570.52
477.618	1614.27
478.075	1696.02
478.532	1837.77
478.989	1980.02
479.446	2191.27
479.903	2316.17
480.36	2547.62
480.817	2709.67
481.274	2909.32
481.731	3194.07
482.188	3431.67
482.645	3713.62
483.102	3927.07
483.558	4240.27
484.015	4454.52
484.472	4462.77
484.929	4321.17
485.385	4120.72
485.842	4012.52
486.299	3791.27
486.755	3429.27
487.212	3058.07
487.668	2752.77
488.125	2557.97
488.582	2355.97
489.038	2244.27
489.494	2177.92
489.951	2114.07
490.407	2050.52
490.864	2035.17
491.32	1983.12
491.776	1949.57
492.233	1957.77
492.689	1930.57
493.145	1904.62
493.602	1889.37
494.058	1927.52
494.514	1959.27
494.97	1970.77
495.426	1983.92
495.882	2002.92
496.338	1996.37
496.794	2085.62
497.251	2100.17
497.707	2096.92
498.163	2106.32
498.618	2086.62
499.074	2111.72
499.53	2153.32
499.986	2195.77
500.442	2219.82
500.898	2224.02
501.354	2254.97
501.809	2267.97
502.265	2296.12
502.721	2402.52
503.177	2481.32
503.632	2334.07
504.088	2346.37
504.543	2578.07
504.999	2421.17
505.455	2138.67
505.91	2009.87
506.366	2004.72
506.821	1991.72
507.277	1980.42
507.732	1984.82
508.187	1974.97
508.643	1994.07
509.098	2009.17
509.553	2020.22
510.009	2042.77
510.464	2080.92
510.919	2112.47
511.375	2141.12
511.83	2149.47
512.285	2206.17
512.74	2249.72
513.195	2290.57
513.65	2318.37
514.105	2351.62
514.56	2359.27
515.015	2416.67
515.47	2447.72
515.925	2420.77
516.38	2425.02
516.835	2416.07
517.29	2397.92
517.745	2410.62
518.2	2380.22
518.655	2302.47
519.109	2270.42
519.564	2252.17
520.019	2245.02
520.474	2210.07
520.928	2189.97
521.383	2189.47
521.838	2183.32
522.292	2142.82
522.747	2118.32
523.201	2119.47
523.656	2090.02
524.11	2088.97
524.565	2094.67
525.019	2097.62
525.474	2103.32
525.928	2096.07
526.382	2068.32
526.837	2052.52
527.291	2061.47
527.745	2058.97
528.2	2042.97
528.654	2038.67
529.108	2045.62
529.562	2046.37
530.016	2043.72
530.47	2051.27
530.925	2042.12
531.379	2059.52
531.833	2087.97
532.287	2060.47
532.741	2054.12
533.195	2053.27
533.649	2048.02
534.103	2042.62
534.556	2039.67
535.01	2066.07
535.464	2048.82
535.918	2066.32
536.372	2067.77
536.826	2054.62
537.279	2040.72
537.733	2050.27
538.187	2068.52
538.64	2061.87
539.094	2082.17
539.548	2108.47
540.001	2093.37
540.455	2107.07
540.908	2123.92
541.362	2130.42
541.815	2161.57
542.269	2205.62
542.722	2190.57
543.175	2216.92
543.629	2231.57
544.082	2255.72
544.536	2269.82
544.989	2278.12
545.442	2287.07
545.895	2275.47
546.349	2287.27
546.802	2294.22
547.255	2289.57
547.708	2309.17
548.161	2329.02
548.614	2321.27
549.067	2332.72
549.52	2323.97
549.973	2302.17
550.426	2289.92
550.879	2266.17
551.332	2259.77
551.785	2275.42
552.238	2307.27
552.691	2301.27
553.144	2338.07
553.596	2363.62
554.049	2396.52
554.502	2452.62
554.955	2496.92
555.407	2517.37
555.86	2506.87
556.313	2469.12
556.765	2440.77
557.218	2425.72
557.67	2430.37
558.123	2376.27
558.576	2363.27
559.028	2372.02
559.48	2392.42
559.933	2390.87
560.385	2311.47
560.838	2226.07
561.29	2165.32
561.742	2166.37
562.195	2109.22
562.647	2105.52
563.099	2101.37
563.551	2091.52
564.004	2105.32
564.456	2092.87
564.908	2068.87
565.36	2017.02
565.812	1976.77
566.264	1961.22
566.716	1930.77
567.168	1908.12
567.62	1912.27
568.072	1891.97
568.524	1870.42
568.976	1852.77
569.428	1852.12
569.88	1828.47
570.332	1848.92
570.784	1843.37
571.235	1829.87
571.687	1854.52
572.139	1848.72
572.59	1873.42
573.042	1869.97
573.494	1867.17
573.945	1840.52
574.397	1807.27
574.849	1813.92
575.3	1812.22
575.752	1787.17
576.203	1768.62
576.655	1787.67
577.106	1769.82
577.557	1751.72
578.009	1743.52
578.46	1748.87
578.912	1724.92
579.363	1735.57
579.814	1737.42
580.265	1739.17
580.717	1741.27
581.168	1750.07
581.619	1746.52
582.07	1774.72
582.521	1758.07
582.972	1759.77
583.423	1774.97
583.875	1812.67
584.326	1911.42
584.777	2094.07
585.227	2309.22
585.678	2463.22
586.129	2530.82
586.58	2561.22
587.031	2590.42
587.482	2763.32
587.933	3257.92
588.384	2982.92
588.834	2429.07
589.285	2027.57
589.736	1984.37
590.186	1993.07
590.637	1966.92
591.088	1931.57
591.538	1897.77
591.989	1884.67
592.439	1876.87
592.89	1868.32
593.34	1863.12
593.791	1878.77
594.241	1890.82
594.692	1910.87
595.142	1890.82
595.593	1852.57
596.043	1854.67
596.493	1897.72
596.943	1936.12
597.394	1910.62
597.844	1879.37
598.294	1914.97
598.744	1974.47
599.195	2056.67
599.645	2172.17
600.095	2300.72
600.545	2398.72
600.995	2504.22
601.445	2593.42
601.895	2722.27
602.345	2802.97
602.795	2763.17
603.245	2638.37
603.695	2473.42
604.145	2342.12
604.594	2225.77
605.044	2109.47
605.494	1980.37
605.944	1888.37
606.393	1855.57
606.843	1824.62
607.293	1838.72
607.743	1821.62
608.192	1829.77
608.642	1837.37
609.091	1844.77
609.541	1838.62
609.99	1838.17
610.44	1797.27
610.889	1777.37
611.339	1761.07
611.788	1749.52
612.238	1771.22
612.687	1793.57
613.136	1810.52
613.586	1846.07
614.035	1846.47
614.484	1878.22
614.933	1885.87
615.383	1843.87
615.832	1787.27
616.281	1748.77
616.73	1687.87
617.179	1640.17
617.628	1601.07
618.077	1575.77
618.526	1551.77
618.975	1546.82
619.424	1518.27
619.873	1518.07
620.322	1512.22
620.771	1513.47
621.22	1482.62
621.669	1451.12
622.118	1449.12
622.567	1430.27
623.015	1405.72
623.464	1408.12
623.913	1384.77
624.361	1393.52
624.81	1391.17
625.259	1372.67
625.707	1364.37
626.156	1366.42
626.604	1387.62
627.053	1383.97
627.501	1379.77
627.95	1388.72
628.398	1414.62
628.847	1396.77
629.295	1402.32
629.744	1424.92
630.192	1453.37
630.64	1565.97
631.089	1725.97
631.537	1823.22
631.985	1814.22
632.433	1903.12
632.881	1897.37
633.33	2281.47
633.778	2486.47
634.226	1741.12
634.674	1603.87
635.122	1591.12
635.57	1618.12
636.018	1900.12
636.466	1534.52
636.914	1358.42
637.362	1348.02
637.81	1368.22
638.258	1403.47
638.705	1414.62
639.153	1457.27
639.601	1469.17
640.049	1494.47
640.497	1527.62
640.944	1571.22
641.392	1507.67
641.84	1416.17
642.287	1366.57
642.735	1341.02
643.182	1328.17
643.63	1331.02
644.078	1338.82
644.525	1360.52
644.973	1404.87
645.42	1420.47
645.867	1434.32
646.315	1470.02
646.762	1519.72
647.21	1548.82
647.657	1635.62
648.104	1703.47
648.551	1771.97
648.999	1916.52
649.446	2095.72
649.893	2376.57
650.34	2790.22
650.787	3470.42
651.234	4547.47
651.682	6334.17
652.129	9116.22
652.576	13055.07
653.023	15526.87
653.47	15538.87
653.917	15538.92
654.363	15538.82
654.81	15535.82
655.257	15536.47
655.704	15471.77
656.151	9845.02
656.598	6378.72
657.044	4510.17
657.491	3495.62
657.938	2842.72
658.385	2392.77
658.831	2110.62
659.278	1891.87
659.724	1721.87
660.171	1605.32
660.618	1478.97
661.064	1397.07
661.511	1345.27
661.957	1307.87
662.404	1273.77
662.85	1261.12
663.296	1244.87
663.743	1213.67
664.189	1207.37
664.635	1190.92
665.082	1167.32
665.528	1168.42
665.974	1133.37
666.42	1128.37
666.867	1145.12
667.313	1163.92
667.759	1209.77
668.205	1213.47
668.651	1217.22
669.097	1187.57
669.543	1289.72
669.989	1214.62
670.435	1060.97
670.881	1051.17
671.327	1086.27
671.773	1165.52
672.219	1250.27
672.665	1328.77
673.11	1378.52
673.556	1381.22
674.002	1434.37
674.448	1439.77
674.893	1223.37
675.339	1062.32
675.785	981.27
676.23	940.02
676.676	897.02
677.122	877.67
677.567	866.17
678.013	830.72
678.458	832.22
678.904	827.47
679.349	815.42
679.794	811.72
680.24	813.02
680.685	798.17
681.131	805.52
681.576	808.92
682.021	812.82
682.466	813.37
682.912	823.17
683.357	867.17
683.802	946.27
684.247	1037.67
684.692	1099.87
685.137	1140.17
685.583	1157.67
686.028	1219.87
686.473	1153.32
686.918	993.27
687.363	914.27
687.807	867.92
688.252	827.77
688.697	796.52
689.142	778.72
689.587	778.57
690.032	792.82
690.477	825.17
690.921	872.27
691.366	913.57
691.811	957.27
692.255	1025.07
692.7	1257.42
693.145	1809.67
693.589	2758.12
694.034	3256.17
694.478	3458.17
694.923	3139.87
695.367	4483.52
695.812	2716.32
696.256	1167.77
696.701	853.17
697.145	792.22
697.59	766.27
698.034	753.37
698.478	757.37
698.922	765.72
699.367	783.02
699.811	811.77
700.255	885.32
700.699	971.37
701.143	1049.62
701.588	1097.17
702.032	1145.07
702.476	1183.12
702.92	1252.27
703.364	1648.82
703.808	2520.82
704.252	3126.67
704.696	3290.92
705.14	3088.37
705.584	4236.67
706.027	2343.97
706.471	1190.07
706.915	890.12
707.359	794.62
707.803	743.92
708.246	725.47
708.69	717.62
709.134	705.37
709.577	706.37
710.021	721.52
710.465	714.22
710.908	703.87
711.352	746.82
711.795	815.22
712.239	881.37
712.682	911.32
713.126	896.07
713.569	998.82
714.012	823.37
714.456	729.87
714.899	686.62
715.342	641.37
715.786	607.27
716.229	594.07
716.672	580.67
717.115	583.17
717.558	594.67
718.002	604.32
718.445	635.67
718.888	670.02
719.331	672.92
719.774	694.22
720.217	674.37
720.66	635.67
721.103	607.82
721.546	574.07
721.989	560.37
722.432	555.02
722.874	549.32
723.317	562.07
723.76	610.12
724.203	752.12
724.645	996.87
725.088	1157.37
725.531	1126.62
725.974	1234.57
726.416	1108.67
726.859	693.47
727.301	573.47
727.744	546.77
728.187	545.57
728.629	557.12
729.071	584.62
729.514	604.37
729.956	632.32
730.399	642.52
730.841	628.67
731.283	622.37
731.726	605.87
732.168	607.07
732.61	642.67
733.053	698.52
733.495	774.77
733.937	870.17
734.379	1010.07
734.821	1297.47
735.263	2068.07
735.705	3725.27
736.148	5435.22
736.59	5380.57
737.032	5802.52
737.474	4760.12
737.916	1843.12
738.357	968.22
738.799	749.52
739.241	700.52
739.683	700.02
740.125	712.32
740.567	712.62
741.008	745.02
741.45	773.32
741.892	794.57
742.334	799.52
742.775	786.92
743.217	755.62
743.658	651.97
744.1	656.47
744.542	735.37
744.983	765.22
745.425	795.82
745.866	793.72
746.307	708.82
746.749	770.62
747.19	1121.47
747.632	2201.62
748.073	4073.47
748.514	5557.92
748.956	7392.77
749.397	8587.47
749.838	5898.87
750.279	5616.82
750.72	2884.42
751.162	1231.52
751.603	706.22
752.044	565.22
752.485	509.22
752.926	474.17
753.367	455.97
753.808	445.02
754.249	428.52
754.69	435.07
755.131	425.27
755.572	420.37
756.013	421.47
756.453	423.82
756.894	434.92
757.335	435.52
757.776	446.07
758.216	460.47
758.657	484.97
759.098	539.42
759.538	658.67
759.979	945.17
760.42	1931.22
760.86	4964.52
761.301	10152.62
761.741	11724.32
762.182	13364.42
762.622	8601.67
763.063	3126.47
763.503	1373.22
763.943	1071.02
764.384	1162.07
764.824	1103.77
765.264	1093.17
765.705	773.27
766.145	551.07
766.585	491.77
767.025	523.62
767.465	687.42
767.906	834.42
768.346	865.42
768.786	904.02
769.226	918.82
769.666	1584.27
770.106	3403.92
770.546	4781.77
770.986	5334.97
771.426	4027.27
771.866	1696.92
772.306	776.02
772.745	492.02
773.185	423.42
773.625	429.07
774.065	511.42
774.505	847.17
774.944	1707.97
775.384	2557.72
775.824	2919.67
776.263	2374.02
776.703	1158.37
777.142	584.02
777.582	386.57
778.021	350.97
778.461	334.87
778.9	325.47
779.34	295.42
779.779	286.37
780.219	276.52
780.658	266.87
781.097	271.62
781.537	259.82
781.976	255.07
782.415	256.97
782.855	255.57
783.294	258.12
783.733	251.57
784.172	258.92
784.611	254.42
785.05	259.87
785.489	262.77
785.928	271.07
786.367	282.02
786.806	298.07
787.245	319.37
787.684	326.02
788.123	321.37
788.562	304.82
789.001	295.07
789.44	288.77
789.879	288.02
790.317	296.07
790.756	313.87
791.195	358.17
791.634	484.92
792.072	892.87
792.511	2186.27
792.95	3983.02
793.388	4738.32
793.827	3058.62
794.265	1411.27
794.704	668.77
795.142	412.82
795.581	341.87
796.019	313.27
796.458	306.77
796.896	318.07
797.334	365.72
797.773	495.92
798.211	945.07
798.649	1964.87
799.087	3307.82
799.526	4617.07
799.964	4741.02
800.402	3232.67
800.84	1466.02
801.278	723.07
801.716	434.72
802.154	357.22
802.592	338.07
803.03	335.92
803.468	341.02
803.906	345.87
804.344	339.77
804.782	331.92
805.22	335.82
805.658	345.27
806.096	368.27
806.533	410.07
806.971	525.57
807.409	766.27
807.847	1550.47
808.284	3939.57
808.722	6861.87
809.16	9588.37
809.597	12962.12
810.035	15343.82
810.472	10273.02
810.91	4370.57
811.347	1955.52
811.785	922.77
812.222	580.52
812.66	446.72
813.097	383.72
813.535	335.47
813.972	298.47
814.409	279.37
814.846	264.47
815.284	249.27
815.721	257.27
816.158	271.27
816.595	344.57
817.032	420.67
817.47	392.17
817.907	304.32
818.344	271.67
818.781	266.87
819.218	302.97
819.655	439.37
820.092	551.07
820.529	520.47
820.966	425.22
821.403	316.77
821.839	276.32
822.276	291.52
822.713	328.52
823.15	314.97
823.587	351.32
824.023	638.27
824.46	1607.62
824.897	2787.42
825.333	2139.87
825.77	991.42
826.206	520.22
826.643	303.97
827.08	227.17
827.516	198.17
827.953	186.32
828.389	180.02
828.825	172.02
829.262	161.77
829.698	155.32
830.135	152.97
830.571	146.22
831.007	154.47
831.443	152.82
831.88	157.12
832.316	159.32
832.752	161.77
833.188	156.57
833.624	162.67
834.06	165.42
834.497	161.22
834.933	172.32
835.369	173.92
835.805	186.92
836.241	199.17
836.677	221.92
837.112	255.72
837.548	316.52
837.984	471.77
838.42	1018.92
838.856	2835.82
839.292	5532.67
839.727	4028.97
840.163	2759.02
840.599	4237.92
841.034	6396.52
841.47	3170.12
841.906	1546.62
842.341	881.92
842.777	781.42
843.212	912.07
843.648	534.52
844.083	333.67
844.519	230.67
844.954	186.37
845.39	161.67
845.825	152.97
846.261	141.57
846.696	141.92
847.131	134.47
847.566	136.12
848.002	133.82
848.437	150.37
848.872	154.72
849.307	196.52
849.742	355.12
850.177	928.22
850.613	1956.52
851.048	1376.07
851.483	638.37
851.918	364.52
852.353	214.82
852.788	168.97
853.223	139.87
853.657	122.07
854.092	116.82
854.527	112.67
854.962	113.82
855.397	127.52
855.832	109.22
856.266	99.12
856.701	98.62
857.136	103.72
857.57	118.67
858.005	138.37
858.44	121.42
858.874	117.92
859.309	126.72
859.743	122.82
860.178	114.82
860.612	125.12
861.047	160.47
861.481	204.72
861.915	145.92
862.35	113.97
862.784	94.12
863.218	95.17
863.653	95.92
864.087	124.27
864.521	158.97
864.955	271.07
865.39	453.82
865.824	323.52
866.258	374.32
866.692	533.92
867.126	391.57
867.56	215.12
867.994	148.52
868.428	127.32
868.862	149.42
869.296	134.82
869.73	159.82
870.164	143.07
870.598	129.72
871.031	95.82
871.465	88.32
871.899	78.47
872.333	72.97
872.766	70.97
873.2	72.97
873.634	78.32
874.067	75.37
874.501	76.07
874.935	76.07
875.368	75.57
875.802	70.62
876.235	64.92
876.669	70.27
877.102	59.92
877.535	63.52
877.969	59.97
878.402	63.02
878.836	58.82
879.269	58.37
879.702	59.77
880.135	58.97
880.569	70.62
881.002	57.27
881.435	57.07
881.868	60.52
882.301	49.57
882.734	51.17
883.167	52.17
883.601	55.02
884.034	52.22
884.467	47.52
884.899	52.07
885.332	47.27
885.765	49.77
886.198	45.27
886.631	47.92
887.064	46.07
887.497	49.47
887.929	48.27
888.362	44.32
888.795	42.72
889.228	49.57
889.66	49.97
890.093	44.27
890.526	46.72
890.958	48.47
891.391	49.67
891.823	43.42
892.256	46.47
892.688	48.67
893.121	40.32
893.553	50.72
893.985	42.37
894.418	38.57
894.85	45.82
895.282	45.27
895.715	43.22
896.147	34.52
896.579	39.32
897.011	40.77
897.444	45.67
897.876	37.97
898.308	38.62
898.74	42.57
899.172	45.12
899.604	45.52
900.036	43.92
900.468	37.12
900.9	45.42
901.332	50.57
901.764	55.32
902.196	49.67
902.628	50.72
903.06	69.12
903.491	73.82
903.923	64.72
904.355	64.92
904.787	72.57
905.218	58.87
905.65	57.37
906.082	51.17
906.513	50.47
906.945	47.87
907.376	51.37
907.808	61.32
908.239	65.77
908.671	65.47
909.102	72.02
909.534	97.57
909.965	182.97
910.397	455.37
910.828	1308.37
911.259	788.32
911.691	431.07
912.122	252.32
912.553	125.57
912.984	75.52
913.415	62.22
913.847	54.67
914.278	52.32
914.709	43.77
915.14	46.47
915.571	44.12
916.002	43.87
916.433	37.47
916.864	43.72
917.295	40.22
917.726	50.02
918.157	68.27
918.587	64.97
919.018	58.57
919.449	51.62
919.88	62.22
920.311	100.07
920.741	277.97
921.172	477.37
921.603	241.47
922.033	151.47
922.464	103.97
922.895	67.27
923.325	51.37
923.756	49.57
924.186	71.22
924.617	106.92
925.047	175.62
925.478	156.47
925.908	107.47
926.338	74.22
926.769	56.07
927.199	49.37
927.629	45.52
928.06	39.77
928.49	42.62
928.92	39.82
929.35	34.87
929.78	27.12
930.21	23.52
930.641	23.22
931.071	19.67
931.501	23.92
931.931	19.17
932.361	20.97
932.791	27.52
933.221	27.87
933.651	41.37
934.08	66.52
934.51	42.87
934.94	32.47
935.37	26.12
935.8	20.12
936.229	18.57
936.659	24.72
937.089	35.12
937.519	44.72
937.948	63.57
938.378	39.02
938.807	21.87
939.237	22.37
939.666	20.07
940.096	16.17
940.525	7.12
940.955	11.82
941.384	13.12
941.814	8.72
942.243	12.97
942.672	10.62
943.102	12.82
943.531	7.77
943.96	11.12
944.39	12.02
944.819	12.72
945.248	12.67
945.677	13.42
946.106	12.62
946.535	10.27
946.964	12.37
947.393	7.62
947.822	8.87
948.251	17.82
948.68	18.37
949.109	10.22
949.538	10.02
949.967	11.37
950.396	10.87
950.825	12.57
951.254	8.57
951.682	5.02
952.111	5.42
952.54	6.12
952.969	10.27
953.397	6.57
953.826	5.57
954.254	7.97
954.683	6.92
955.112	11.17
955.54	10.22
955.969	9.02
956.397	10.92
956.826	8.12
957.254	7.22
957.682	9.42
958.111	8.57
958.539	11.17
958.967	12.57
959.396	12.97
959.824	6.27
960.252	8.77
960.68	11.82
961.109	13.62
961.537	16.97
961.965	7.67
962.393	6.77
962.821	11.22
963.249	14.87
963.677	14.92
964.105	81.42
964.533	138.82
964.961	68.32
965.389	43.17
965.817	22.67
966.245	11.12
966.672	9.92
967.1	8.67
967.528	1.72
967.956	6.42
968.383	6.02
968.811	2.62
969.239	8.27
969.666	7.77
970.094	3.57
970.522	1.62
970.949	4.72
971.377	-1.68
971.804	3.22
972.232	4.27
972.659	2.42
973.087	5.97
973.514	3.67
973.941	3.72
974.369	1.87
974.796	3.82
975.223	2.72
975.651	5.27
976.078	8.72
976.505	13.62
976.932	33.02
977.359	39.57
977.786	23.22
978.214	19.57
978.641	5.47
979.068	1.12
979.495	5.42
979.922	10.47
980.349	9.02
980.776	7.52
981.202	3.17
981.629	6.67
982.056	8.92
982.483	1.42
982.91	8.72
983.337	-1.58
983.763	4.12
984.19	6.02
984.617	2.52
985.043	5.87
985.47	7.07
985.897	7.92
986.323	6.47
986.75	3.97
987.176	1.67
987.603	7.82
988.029	6.27
988.456	5.97
988.882	0.67
989.308	1.22
989.735	1.92
990.161	4.92
990.587	2.92
991.014	1.57
991.44	2.47
991.866	0.52
992.292	6.42
992.719	0.97
993.145	2.37
993.571	4.77
993.997	8.37
994.423	10.67
994.849	-1.53
995.275	4.47
995.701	2.42
996.127	-3.78
996.553	3.12
996.979	3.02
997.405	9.42
997.83	5.67
998.256	6.52
998.682	3.42
999.108	5.37
999.534	-2.48
999.959	5.47
1000.385	6.67
1000.811	0.42
1001.236	-4.98
1001.662	-0.23
1002.087	7.12
1002.513	5.67
1002.938	2.62
1003.364	3.37
1003.789	5.77
1004.215	3.87
1004.64	5.07
1005.066	3.37
1005.491	5.37
1005.916	7.77
1006.342	5.32
1006.767	4.87
1007.192	8.52
1007.617	4.92
1008.042	3.62
1008.468	-0.63
1008.893	5.42
1009.318	8.37
1009.743	14.42
1010.168	21.37
1010.593	24.42
1011.018	12.52
1011.443	2.17
1011.868	8.67
1012.293	2.92
1012.718	2.87
1013.143	3.32
1013.567	6.62
1013.992	3.82
1014.417	4.42
1014.842	4.17
1015.267	0.72
1015.691	5.82
1016.116	-0.03
1016.541	2.42
1016.965	6.27
1017.39	0.02
1017.814	4.42
1018.239	3.92
1018.663	-4.28
1019.088	-1.93
1019.512	9.52
1019.937	-6.73
1020.361	3.42
1020.785	-4.53
1021.21	2.67
1021.634	2.32
1022.058	1.57
1022.483	-4.88
1022.907	-1.23
1023.331	-0.93
1023.755	0.07
1024.179	5.42
1024.604	0.47
1025.028	4.22
1025.452	1.12
1025.876	4.42
1026.3	3.07
1026.724	-3.48
1027.148	-0.68
1027.572	-0.93
1027.996	-0.18
1028.42	-1.93
1028.843	2.62
1029.267	-0.38
1029.691	3.67
1030.115	-0.28
1030.539	-2.38
1030.962	-1.48
1031.386	0.62
1031.81	1.42
1032.233	-0.38
1032.657	-1.38
1033.08	1.37
1033.504	-1.28
1033.927	0.72
1034.351	1.02
1034.774	1.42
1035.198	-2.23
1035.621	-0.78
1036.045	-3.58
1036.468	4.67
1036.891	1.87
1037.315	4.12
1037.738	-0.63
1038.161	0.17
1038.584	-5.43
1039.008	-4.48
1039.431	0.82
1039.854	-1.13
1040.277	2.07
1040.7	0.52
1041.123	-1.18
1041.546	-1.18
1041.969	5.62
1042.392	3.77
1042.815	-3.73
1043.238	-3.88
1043.661	3.37
1044.084	-0.58
1044.507	1.82
1044.93	-2.38
1045.352	-4.03
1045.775	2.52
1046.198	1.47
1046.621	3.62
1047.043	-0.93
1047.466	2.87
1047.889	-2.08
1048.311	3.77
1048.734	-3.13
1049.156	0.02
1049.579	1.97
1050.001	-1.48
1050.424	-0.38
1050.846	-3.73
1051.269	-3.23
1051.691	-1.68
1052.113	0.62
1052.536	-4.93
1052.958	-2.73
1053.38	-3.28
1053.802	0.17
1054.225	-1.68
1054.647	5.37
1055.069	-1.53
1055.491	0.92
1055.913	1.27
1056.335	-2.03
1056.757	-5.38
1057.179	-2.93
1057.601	-1.73
1058.023	2.07
1058.445	-2.48
1058.867	2.82
1059.289	-0.78
1059.711	-0.93
1060.133	2.12
1060.555	-1.78
1060.976	1.97
1061.398	-1.13
1061.82	1.52
1062.241	0.37
1062.663	-1.23
1063.085	-3.58
1063.506	-9.93
1063.928	-6.33
1064.35	-2.33
1064.771	-1.68
1065.193	-2.68
1065.614	-3.83
1066.035	2.02
1066.457	3.27
1066.878	-2.18
1067.3	0.72
1067.721	3.77
1068.142	2.32
1068.564	-0.08
1068.985	-1.83
1069.406	-5.18
1069.827	2.12
1070.248	-2.13
1070.67	-3.23
1071.091	-5.38
1071.512	-3.13
1071.933	-3.13
1072.354	-5.18
1072.775	-4.78
1073.196	2.92
1073.617	-3.33
1074.038	-2.18
1074.459	-2.58
1074.88	1.52
1075.3	0.57
1075.721	5.52
1076.142	-7.13
1076.563	-6.28
1076.983	0.47
1077.404	-8.93
1077.825	-2.43
1078.246	-7.28
1078.666	-5.93
1079.087	-1.58
1079.507	-5.08
1079.928	-0.38
1080.348	-2.98
1080.769	-2.08
1081.189	-5.38
1081.61	-6.78
1082.03	0.22
1082.451	-0.08
1082.871	-9.58
1083.291	0.22
1083.711	-8.58
1084.132	-4.68
1084.552	-4.18
1084.972	-3.63
1085.392	-6.78
1085.813	0.42
1086.233	-2.08
1086.653	-1.13
1087.073	-5.28
1087.493	-1.08
1087.913	-4.58
1088.333	-3.68
1088.753	-1.68
1089.173	-0.23
1089.593	-0.03
1090.013	0.02
1090.433	-6.48
1090.852	2.77
1091.272	-3.23
1091.692	-1.33
1092.112	-3.78
1092.531	-5.33
1092.951	1.32
1093.371	-3.98
1093.79	-0.93
1094.21	0.42
1094.63	-1.08
1095.049	-4.73
1095.469	-3.08
1095.888	0.22
1096.308	3.27
1096.727	-2.33
1097.146	-3.28
1097.566	-3.58
1097.985	-2.98
1098.405	1.37
1098.824	3.07
1099.243	-4.63
1099.662	-2.68
1100.082	-3.23
1100.501	-1.48
1100.92	4.12
1101.339	1.52
1101.758	-0.83
