Data from MSPlasma+Separation6_Subt14_10-15-26-043.txt Node
Date: Fri Jul 21 10:15:26 EDT 2017
User: Ender
Spectrometer: HR+D1039
Trigger mode: 0
Integration Time (sec): 6.430000E-3
Scans to average: 20
Electric dark correction enabled: true
Nonlinearity correction enabled: false
Boxcar width: 0
XAxis mode: Wavelengths
Number of Pixels in Spectrum: 2048
>>>>>Begin Spectral Data<<<<<
187.836	2.73
188.309	2.73
188.782	2.73
189.255	-0.22
189.728	1.48
190.201	0.18
190.674	0.63
191.147	2.43
191.619	1.93
192.092	-0.82
192.565	-2.77
193.038	0.98
193.511	3.43
193.984	0.08
194.456	-0.52
194.929	-1.12
195.402	-6.37
195.874	-2.07
196.347	-1.37
196.82	-1.02
197.292	0.98
197.765	-5.12
198.237	-2.12
198.71	-3.42
199.182	-0.82
199.655	4.13
200.127	2.28
200.6	4.48
201.072	2.03
201.544	-4.12
202.017	1.13
202.489	4.18
202.961	2.18
203.433	-3.62
203.906	2.48
204.378	1.68
204.85	0.58
205.322	2.58
205.794	5.23
206.266	0.03
206.739	4.18
207.211	0.98
207.683	-0.12
208.155	3.28
208.627	2.93
209.099	5.63
209.57	0.48
210.042	6.28
210.514	3.38
210.986	12.23
211.458	26.23
211.93	11.78
212.402	6.43
212.873	-4.22
213.345	-0.47
213.817	3.08
214.288	-1.47
214.76	4.28
215.232	-0.37
215.703	4.13
216.175	6.63
216.646	5.53
217.118	3.98
217.589	-0.37
218.061	5.38
218.532	2.58
219.004	9.38
219.475	9.58
219.946	28.03
220.418	33.58
220.889	24.93
221.36	13.18
221.832	10.93
222.303	8.33
222.774	3.83
223.245	6.63
223.717	1.73
224.188	5.93
224.659	5.68
225.13	1.48
225.601	4.48
226.072	8.38
226.543	11.93
227.014	4.63
227.485	11.98
227.956	11.98
228.427	15.28
228.898	12.83
229.369	14.48
229.839	12.03
230.31	13.08
230.781	17.38
231.252	16.28
231.722	31.28
232.193	29.98
232.664	40.18
233.135	57.28
233.605	61.53
234.076	47.88
234.546	43.33
235.017	49.93
235.487	42.63
235.958	44.68
236.428	61.83
236.899	105.58
237.369	118.48
237.84	86.13
238.31	109.33
238.78	106.73
239.251	111.73
239.721	108.68
240.191	85.93
240.662	50.28
241.132	41.03
241.602	46.03
242.072	74.13
242.542	93.03
243.013	63.18
243.483	55.38
243.953	39.08
244.423	40.28
244.893	47.78
245.363	61.28
245.833	59.58
246.303	64.03
246.773	77.08
247.243	80.48
247.712	98.23
248.182	109.18
248.652	117.53
249.122	175.83
249.592	325.88
250.061	486.43
250.531	777.48
251.001	588.13
251.471	493.38
251.94	374.38
252.41	205.58
252.879	141.28
253.349	102.63
253.818	83.68
254.288	74.68
254.757	78.83
255.227	98.88
255.696	84.88
256.166	80.73
256.635	83.78
257.105	101.53
257.574	132.68
258.043	137.03
258.513	237.48
258.982	304.83
259.451	212.18
259.92	205.68
260.389	198.38
260.859	145.23
261.328	168.88
261.797	245.98
262.266	220.23
262.735	103.73
263.204	63.98
263.673	60.93
264.142	47.23
264.611	55.38
265.08	56.93
265.549	65.73
266.018	63.73
266.487	60.43
266.955	53.23
267.424	63.88
267.893	65.78
268.362	69.48
268.83	63.33
269.299	66.83
269.768	77.33
270.236	91.78
270.705	100.48
271.174	98.63
271.642	103.63
272.111	123.98
272.579	193.48
273.048	304.53
273.516	381.93
273.985	392.38
274.453	297.93
274.922	178.38
275.39	118.28
275.858	104.68
276.327	93.98
276.795	92.38
277.263	106.43
277.731	139.03
278.2	265.38
278.668	349.18
279.136	260.53
279.604	168.58
280.072	110.98
280.54	95.48
281.008	97.98
281.477	94.28
281.945	101.63
282.413	99.98
282.881	106.18
283.348	104.38
283.816	110.78
284.284	121.23
284.752	119.03
285.22	114.28
285.688	124.23
286.156	208.03
286.623	565.13
287.091	1099.83
287.559	569.23
288.026	225.38
288.494	141.83
288.962	119.23
289.429	113.43
289.897	107.08
290.364	97.43
290.832	101.88
291.3	106.08
291.767	112.63
292.234	113.78
292.702	115.78
293.169	125.18
293.637	134.73
294.104	125.78
294.571	121.93
295.039	121.78
295.506	118.23
295.973	121.88
296.44	120.13
296.908	132.58
297.375	151.53
297.842	145.63
298.309	130.13
298.776	129.18
299.243	137.88
299.71	128.18
300.177	127.18
300.644	144.23
301.111	154.68
301.578	143.93
302.045	130.83
302.512	132.83
302.979	137.63
303.446	146.28
303.913	152.88
304.379	157.28
304.846	178.68
305.313	192.13
305.78	228.83
306.246	270.88
306.713	284.23
307.18	251.48
307.646	280.58
308.113	242.83
308.579	193.98
309.046	192.93
309.512	192.08
309.979	175.73
310.445	168.68
310.912	173.33
311.378	174.03
311.845	172.83
312.311	168.28
312.777	168.13
313.244	177.08
313.71	186.33
314.176	204.08
314.642	233.08
315.109	270.23
315.575	252.78
316.041	225.98
316.507	221.93
316.973	237.03
317.439	233.53
317.905	253.23
318.371	254.28
318.837	240.23
319.303	254.68
319.769	232.18
320.235	257.43
320.701	296.03
321.167	317.28
321.633	384.23
322.099	523.13
322.564	703.03
323.03	541.58
323.496	385.13
323.962	366.58
324.427	350.08
324.893	297.13
325.359	288.48
325.824	250.23
326.29	269.38
326.755	273.28
327.221	269.03
327.686	282.73
328.152	259.33
328.617	242.78
329.083	252.03
329.548	259.43
330.014	273.38
330.479	291.93
330.944	342.68
331.41	391.73
331.875	374.03
332.34	384.28
332.805	436.93
333.271	561.23
333.736	740.18
334.201	677.98
334.666	497.98
335.131	568.93
335.596	449.73
336.061	474.93
336.526	479.58
336.991	419.08
337.456	456.78
337.921	367.33
338.386	299.43
338.851	273.33
339.316	257.28
339.781	254.58
340.246	249.08
340.711	248.53
341.175	258.43
341.64	271.78
342.105	271.88
342.569	283.63
343.034	301.58
343.499	316.48
343.963	302.73
344.428	301.38
344.893	305.23
345.357	307.83
345.822	304.33
346.286	310.63
346.751	327.93
347.215	323.33
347.679	330.43
348.144	352.63
348.608	350.48
349.073	359.93
349.537	396.93
350.001	393.68
350.465	370.98
350.93	355.98
351.394	358.98
351.858	359.43
352.322	372.33
352.786	367.38
353.25	361.03
353.715	372.13
354.179	386.83
354.643	406.23
355.107	415.28
355.571	436.28
356.035	443.18
356.498	429.28
356.962	453.93
357.426	452.48
357.89	408.33
358.354	390.83
358.818	388.33
359.281	397.03
359.745	413.78
360.209	405.38
360.673	414.43
361.136	410.43
361.6	415.88
362.064	435.38
362.527	450.68
362.991	450.23
363.454	447.28
363.918	454.98
364.381	454.18
364.845	440.18
365.308	433.18
365.772	427.28
366.235	437.48
366.698	454.88
367.162	551.78
367.625	613.63
368.088	504.08
368.552	454.98
369.015	464.88
369.478	499.28
369.941	504.13
370.404	514.43
370.867	541.73
371.331	545.48
371.794	557.53
372.257	624.08
372.72	656.48
373.183	618.33
373.646	628.08
374.109	637.83
374.572	718.88
375.035	851.68
375.497	655.63
375.96	537.08
376.423	511.18
376.886	507.98
377.349	513.53
377.811	513.93
378.274	531.93
378.737	534.78
379.199	550.63
379.662	571.28
380.125	603.88
380.587	658.33
381.05	691.58
381.512	693.33
381.975	676.68
382.437	672.78
382.9	672.43
383.362	671.63
383.825	715.68
384.287	902.08
384.75	991.73
385.212	879.23
385.674	732.83
386.136	670.38
386.599	664.43
387.061	692.13
387.523	717.63
387.985	718.03
388.447	750.88
388.91	828.38
389.372	994.98
389.834	935.53
390.296	791.18
390.758	800.93
391.22	824.03
391.682	1002.83
392.144	1537.28
392.606	1426.73
393.068	862.43
393.529	787.48
393.991	772.53
394.453	748.13
394.915	788.23
395.377	952.48
395.838	1162.13
396.3	840.88
396.762	660.23
397.224	626.78
397.685	609.98
398.147	619.38
398.608	626.63
399.07	637.18
399.531	625.63
399.993	639.73
400.454	645.73
400.916	649.83
401.377	665.28
401.839	671.53
402.3	674.23
402.762	705.68
403.223	766.53
403.684	774.58
404.145	714.48
404.607	705.03
405.068	707.28
405.529	723.28
405.99	740.33
406.451	740.83
406.913	726.88
407.374	741.18
407.835	742.48
408.296	761.28
408.757	771.88
409.218	794.63
409.679	802.18
410.14	813.98
410.601	845.28
411.062	886.48
411.522	1017.53
411.983	1113.18
412.444	953.98
412.905	839.83
413.366	846.03
413.826	870.83
414.287	974.23
414.748	1149.53
415.208	1166.73
415.669	986.28
416.13	897.28
416.59	875.53
417.051	913.78
417.511	950.43
417.972	1017.83
418.432	1094.63
418.893	1214.83
419.353	1153.68
419.814	888.83
420.274	806.58
420.734	803.23
421.195	853.88
421.655	883.13
422.115	863.03
422.576	825.58
423.036	835.28
423.496	861.93
423.956	908.03
424.416	966.88
424.876	1087.58
425.336	1089.83
425.797	1080.88
426.257	1087.13
426.717	1021.83
427.177	956.98
427.637	985.28
428.097	1031.08
428.556	1085.03
429.016	1175.58
429.476	1171.23
429.936	1128.73
430.396	1106.08
430.856	1116.33
431.315	1145.33
431.775	1225.98
432.235	1296.08
432.694	1316.63
433.154	1240.58
433.614	1206.08
434.073	1161.33
434.533	1055.13
434.993	1018.38
435.452	1021.58
435.912	1010.28
436.371	999.63
436.83	1009.23
437.29	1013.73
437.749	964.23
438.209	950.58
438.668	961.33
439.127	967.73
439.587	950.23
440.046	908.03
440.505	926.73
440.964	929.13
441.424	958.73
441.883	974.88
442.342	920.58
442.801	893.53
443.26	916.03
443.719	905.03
444.178	896.28
444.637	904.18
445.096	911.43
445.555	929.58
446.014	931.83
446.473	892.18
446.932	903.28
447.391	916.23
447.849	932.53
448.308	924.33
448.767	942.23
449.226	964.73
449.685	967.33
450.143	1003.83
450.602	1013.23
451.061	972.58
451.519	979.78
451.978	1005.88
452.436	1038.08
452.895	988.33
453.353	962.18
453.812	964.48
454.27	969.13
454.729	939.53
455.187	943.98
455.646	946.58
456.104	956.33
456.562	952.58
457.021	945.08
457.479	908.38
457.937	926.63
458.395	958.33
458.854	946.08
459.312	926.23
459.77	946.43
460.228	956.03
460.686	964.18
461.144	967.48
461.602	955.38
462.06	966.48
462.518	979.48
462.976	973.43
463.434	989.23
463.892	1001.28
464.35	1018.63
464.808	1030.88
465.266	1042.63
465.724	1062.48
466.181	1061.83
466.639	1062.08
467.097	1109.28
467.555	1143.18
468.012	1130.73
468.47	1137.88
468.928	1182.08
469.385	1208.08
469.843	1224.43
470.3	1211.08
470.758	1256.88
471.215	1265.68
471.673	1298.83
472.13	1327.58
472.588	1363.18
473.045	1367.83
473.503	1383.68
473.96	1446.13
474.417	1472.83
474.875	1530.18
475.332	1589.68
475.789	1606.23
476.246	1665.53
476.704	1735.98
477.161	1790.58
477.618	1828.93
478.075	1943.53
478.532	2094.08
478.989	2267.23
479.446	2503.58
479.903	2647.13
480.36	2896.68
480.817	3098.33
481.274	3329.88
481.731	3660.33
482.188	3941.93
482.645	4243.78
483.102	4520.23
483.558	4830.03
484.015	5085.48
484.472	5097.78
484.929	4941.53
485.385	4705.43
485.842	4592.03
486.299	4343.18
486.755	3940.28
487.212	3496.93
487.668	3152.58
488.125	2922.78
488.582	2679.83
489.038	2571.68
489.494	2491.03
489.951	2411.03
490.407	2346.98
490.864	2299.83
491.32	2263.03
491.776	2217.43
492.233	2215.73
492.689	2174.58
493.145	2160.23
493.602	2149.28
494.058	2177.48
494.514	2214.58
494.97	2214.03
495.426	2246.58
495.882	2244.38
496.338	2247.43
496.794	2338.18
497.251	2343.83
497.707	2345.43
498.163	2346.78
498.618	2350.03
499.074	2355.13
499.53	2411.68
499.986	2452.18
500.442	2482.18
500.898	2480.38
501.354	2532.38
501.809	2540.53
502.265	2566.88
502.721	2691.88
503.177	2769.78
503.632	2630.28
504.088	2655.63
504.543	2893.18
504.999	2728.23
505.455	2391.53
505.91	2298.13
506.366	2257.78
506.821	2264.68
507.277	2246.88
507.732	2254.28
508.187	2235.88
508.643	2261.93
509.098	2264.48
509.553	2294.43
510.009	2323.18
510.464	2357.88
510.919	2395.13
511.375	2423.68
511.83	2453.23
512.285	2484.38
512.74	2538.18
513.195	2576.33
513.65	2617.23
514.105	2656.28
514.56	2674.63
515.015	2740.78
515.47	2753.78
515.925	2738.58
516.38	2729.63
516.835	2721.18
517.29	2712.33
517.745	2715.08
518.2	2685.48
518.655	2620.13
519.109	2569.38
519.564	2547.48
520.019	2523.38
520.474	2492.38
520.928	2462.28
521.383	2467.43
521.838	2458.83
522.292	2437.08
522.747	2415.58
523.201	2403.13
523.656	2372.28
524.11	2363.68
524.565	2361.83
525.019	2367.78
525.474	2385.98
525.928	2376.98
526.382	2337.18
526.837	2339.08
527.291	2342.78
527.745	2326.98
528.2	2326.63
528.654	2296.08
529.108	2311.63
529.562	2306.18
530.016	2311.83
530.47	2330.33
530.925	2306.13
531.379	2330.33
531.833	2357.08
532.287	2334.18
532.741	2324.13
533.195	2319.38
533.649	2330.98
534.103	2330.33
534.556	2327.28
535.01	2340.18
535.464	2317.58
535.918	2343.03
536.372	2333.38
536.826	2325.73
537.279	2311.33
537.733	2315.28
538.187	2342.63
538.64	2333.88
539.094	2353.13
539.548	2384.93
540.001	2365.88
540.455	2384.93
540.908	2399.98
541.362	2421.73
541.815	2453.68
542.269	2496.53
542.722	2476.98
543.175	2513.88
543.629	2525.58
544.082	2549.78
544.536	2570.58
544.989	2582.08
545.442	2589.53
545.895	2578.78
546.349	2584.73
546.802	2597.93
547.255	2580.13
547.708	2603.28
548.161	2637.83
548.614	2635.83
549.067	2662.68
549.52	2623.18
549.973	2600.43
550.426	2586.43
550.879	2548.73
551.332	2558.53
551.785	2571.38
552.238	2606.48
552.691	2599.53
553.144	2645.88
553.596	2683.33
554.049	2728.38
554.502	2776.48
554.955	2823.63
555.407	2853.08
555.86	2834.93
556.313	2792.43
556.765	2776.68
557.218	2730.63
557.67	2737.93
558.123	2694.58
558.576	2694.33
559.028	2687.78
559.48	2710.33
559.933	2690.13
560.385	2617.03
560.838	2513.88
561.29	2452.08
561.742	2451.08
562.195	2396.53
562.647	2380.63
563.099	2370.33
563.551	2353.78
564.004	2381.08
564.456	2366.78
564.908	2319.33
565.36	2264.33
565.812	2215.93
566.264	2216.08
566.716	2177.58
567.168	2147.03
567.62	2160.83
568.072	2143.13
568.524	2111.13
568.976	2098.18
569.428	2089.28
569.88	2069.88
570.332	2103.68
570.784	2089.18
571.235	2072.63
571.687	2096.38
572.139	2097.48
572.59	2101.58
573.042	2117.73
573.494	2116.73
573.945	2095.08
574.397	2036.93
574.849	2044.13
575.3	2051.43
575.752	2027.38
576.203	2004.48
576.655	2013.28
577.106	1975.83
577.557	1975.88
578.009	1966.93
578.46	1976.78
578.912	1957.33
579.363	1965.08
579.814	1952.23
580.265	1956.28
580.717	1963.03
581.168	1962.33
581.619	1970.88
582.07	1999.88
582.521	1992.93
582.972	1978.48
583.423	1998.18
583.875	2045.63
584.326	2141.18
584.777	2326.03
585.227	2535.63
585.678	2708.13
586.129	2766.63
586.58	2803.73
587.031	2830.53
587.482	3015.68
587.933	3513.48
588.384	3220.33
588.834	2683.13
589.285	2285.08
589.736	2235.98
590.186	2243.48
590.637	2222.08
591.088	2177.13
591.538	2140.23
591.989	2127.63
592.439	2099.88
592.89	2098.08
593.34	2100.23
593.791	2129.68
594.241	2118.23
594.692	2151.43
595.142	2127.33
595.593	2101.88
596.043	2085.48
596.493	2123.33
596.943	2179.43
597.394	2145.58
597.844	2120.98
598.294	2156.53
598.744	2224.88
599.195	2331.43
599.645	2466.13
600.095	2589.98
600.545	2710.93
600.995	2832.63
601.445	2931.78
601.895	3061.58
602.345	3171.03
602.795	3119.58
603.245	2973.33
603.695	2790.58
604.145	2643.73
604.594	2522.18
605.044	2393.63
605.494	2245.58
605.944	2132.88
606.393	2079.93
606.843	2059.13
607.293	2067.73
607.743	2045.53
608.192	2071.28
608.642	2066.23
609.091	2074.63
609.541	2077.28
609.99	2065.58
610.44	2024.58
610.889	2007.78
611.339	1984.28
611.788	1966.68
612.238	1986.83
612.687	2022.03
613.136	2040.48
613.586	2069.53
614.035	2064.78
614.484	2096.88
614.933	2093.83
615.383	2061.63
615.832	1989.33
616.281	1943.43
616.73	1886.68
617.179	1836.23
617.628	1803.63
618.077	1768.28
618.526	1740.63
618.975	1734.98
619.424	1707.23
619.873	1712.53
620.322	1699.03
620.771	1690.13
621.22	1664.78
621.669	1643.48
622.118	1625.33
622.567	1607.33
623.015	1584.38
623.464	1579.28
623.913	1556.73
624.361	1560.48
624.81	1547.63
625.259	1550.33
625.707	1532.53
626.156	1539.58
626.604	1561.83
627.053	1565.88
627.501	1560.43
627.95	1577.33
628.398	1586.88
628.847	1565.23
629.295	1569.78
629.744	1598.63
630.192	1624.18
630.64	1753.48
631.089	1926.98
631.537	2017.98
631.985	2027.38
632.433	2106.98
632.881	2085.43
633.33	2522.83
633.778	2738.78
634.226	1937.33
634.674	1789.98
635.122	1776.03
635.57	1808.23
636.018	2104.63
636.466	1716.98
636.914	1531.83
637.362	1515.08
637.81	1544.63
638.258	1584.68
638.705	1608.53
639.153	1651.08
639.601	1662.88
640.049	1690.38
640.497	1731.33
640.944	1781.58
641.392	1700.03
641.84	1605.73
642.287	1532.28
642.735	1519.78
643.182	1503.73
643.63	1507.43
644.078	1516.93
644.525	1537.83
644.973	1570.63
645.42	1599.03
645.867	1625.43
646.315	1654.28
646.762	1714.58
647.21	1764.58
647.657	1861.43
648.104	1948.03
648.551	2009.43
648.999	2186.58
649.446	2403.93
649.893	2713.73
650.34	3206.78
650.787	4008.98
651.234	5227.33
651.682	7247.68
652.129	10443.83
652.576	14716.33
653.023	15536.93
653.47	15540.13
653.917	15540.18
654.363	15540.08
654.81	15537.08
655.257	15537.73
655.704	15541.53
656.151	11229.13
656.598	7282.08
657.044	5184.53
657.491	4023.28
657.938	3255.83
658.385	2741.63
658.831	2415.53
659.278	2151.73
659.724	1967.53
660.171	1823.23
660.618	1689.93
661.064	1590.88
661.511	1529.13
661.957	1485.28
662.404	1455.13
662.85	1431.63
663.296	1410.78
663.743	1370.03
664.189	1363.13
664.635	1353.03
665.082	1335.58
665.528	1320.58
665.974	1289.33
666.42	1258.63
666.867	1288.18
667.313	1287.23
667.759	1344.38
668.205	1334.83
668.651	1343.73
669.097	1311.73
669.543	1418.43
669.989	1348.73
670.435	1193.93
670.881	1191.03
671.327	1239.58
671.773	1317.13
672.219	1420.38
672.665	1505.68
673.11	1551.33
673.556	1563.43
674.002	1599.08
674.448	1613.83
674.893	1382.63
675.339	1204.48
675.785	1110.48
676.23	1059.83
676.676	1008.78
677.122	1000.23
677.567	973.58
678.013	943.78
678.458	941.83
678.904	936.23
679.349	918.53
679.794	917.23
680.24	906.83
680.685	909.38
681.131	906.63
681.576	907.73
682.021	921.53
682.466	926.43
682.912	934.58
683.357	976.88
683.802	1063.18
684.247	1162.38
684.692	1231.88
685.137	1288.78
685.583	1294.73
686.028	1376.13
686.473	1297.68
686.918	1121.63
687.363	1024.18
687.807	984.43
688.252	929.83
688.697	902.13
689.142	873.93
689.587	880.63
690.032	907.03
690.477	932.98
690.921	987.73
691.366	1032.93
691.811	1075.23
692.255	1161.18
692.7	1416.53
693.145	2050.98
693.589	3128.18
694.034	3691.98
694.478	3908.03
694.923	3551.93
695.367	5047.78
695.812	3074.43
696.256	1302.33
696.701	956.58
697.145	897.43
697.59	864.93
698.034	853.68
698.478	845.73
698.922	862.93
699.367	884.28
699.811	922.78
700.255	997.73
700.699	1090.83
701.143	1176.93
701.588	1244.43
702.032	1289.93
702.476	1331.13
702.92	1421.98
703.364	1867.03
703.808	2847.83
704.252	3542.03
704.696	3706.98
705.14	3480.88
705.584	4783.83
706.027	2654.53
706.471	1341.18
706.915	997.48
707.359	896.53
707.803	838.43
708.246	812.28
708.69	805.03
709.134	805.93
709.577	797.48
710.021	810.03
710.465	808.68
710.908	792.58
711.352	833.88
711.795	919.28
712.239	978.73
712.682	1012.73
713.126	1009.68
713.569	1119.03
714.012	919.18
714.456	815.68
714.899	768.03
715.342	717.38
715.786	696.93
716.229	673.73
716.672	651.63
717.115	658.48
717.558	660.58
718.002	684.98
718.445	717.43
718.888	760.18
719.331	769.33
719.774	772.73
720.217	757.18
720.66	716.33
721.103	679.43
721.546	650.98
721.989	629.43
722.432	618.83
722.874	625.63
723.317	630.03
723.76	688.13
724.203	852.53
724.645	1126.03
725.088	1316.48
725.531	1273.63
725.974	1391.93
726.416	1253.53
726.859	778.43
727.301	652.28
727.744	612.08
728.187	616.98
728.629	630.03
729.071	660.68
729.514	689.78
729.956	708.33
730.399	726.38
730.841	723.18
731.283	701.63
731.726	674.13
732.168	691.23
732.61	730.03
733.053	791.68
733.495	869.53
733.937	976.03
734.379	1142.98
734.821	1463.13
735.263	2349.63
735.705	4235.78
736.148	6153.43
736.59	6062.78
737.032	6538.28
737.474	5379.18
737.916	2067.48
738.357	1094.58
738.799	849.88
739.241	784.43
739.683	787.93
740.125	792.73
740.567	803.53
741.008	839.63
741.45	875.13
741.892	901.98
742.334	899.18
742.775	892.03
743.217	842.48
743.658	737.18
744.1	743.23
744.542	830.93
744.983	861.78
745.425	899.63
745.866	881.88
746.307	795.33
746.749	875.18
747.19	1271.78
747.632	2508.63
748.073	4625.58
748.514	6290.38
748.956	8339.38
749.397	9666.63
749.838	6658.08
750.279	6306.88
750.72	3247.68
751.162	1379.83
751.603	796.88
752.044	638.43
752.485	567.98
752.926	536.63
753.367	509.13
753.808	499.73
754.249	492.33
754.69	487.78
755.131	483.28
755.572	483.33
756.013	479.48
756.453	482.28
756.894	492.73
757.335	491.13
757.776	502.43
758.216	516.73
758.657	555.13
759.098	612.63
759.538	733.58
759.979	1069.58
760.42	2196.83
760.86	5639.93
761.301	11397.83
761.741	13119.18
762.182	14840.18
762.622	9698.93
763.063	3503.28
763.503	1539.93
763.943	1163.63
764.384	1231.88
764.824	1158.23
765.264	1151.98
765.705	825.98
766.145	603.33
766.585	543.53
767.025	576.03
767.465	740.88
767.906	887.78
768.346	916.43
768.786	966.58
769.226	1015.68
769.666	1777.78
770.106	3873.98
770.546	5390.18
770.986	6016.23
771.426	4506.03
771.866	1903.38
772.306	876.58
772.745	551.43
773.185	478.78
773.625	478.18
774.065	559.43
774.505	899.68
774.944	1787.98
775.384	2637.73
775.824	2995.38
776.263	2436.23
776.703	1207.63
777.142	627.33
777.582	429.43
778.021	393.58
778.461	365.68
778.9	360.33
779.34	330.68
779.779	322.33
780.219	310.18
780.658	305.73
781.097	307.48
781.537	293.68
781.976	291.58
782.415	287.88
782.855	284.98
783.294	284.73
783.733	286.23
784.172	290.08
784.611	288.53
785.05	297.38
785.489	302.63
785.928	305.68
786.367	311.93
786.806	337.58
787.245	365.78
787.684	368.08
788.123	362.38
788.562	350.18
789.001	335.03
789.44	325.48
789.879	327.58
790.317	335.83
790.756	355.78
791.195	402.48
791.634	553.93
792.072	995.03
792.511	2461.88
792.95	4464.08
793.388	5300.93
793.827	3413.23
794.265	1566.53
794.704	761.68
795.142	461.63
795.581	386.88
796.019	351.78
796.458	349.28
796.896	366.08
797.334	414.23
797.773	562.38
798.211	1085.43
798.649	2242.38
799.087	3739.23
799.526	5224.08
799.964	5324.18
800.402	3614.33
800.84	1652.43
801.278	808.23
801.716	493.78
802.154	405.13
802.592	382.58
803.03	382.93
803.468	389.48
803.906	388.63
804.344	382.28
804.782	373.63
805.22	371.03
805.658	389.63
806.096	411.43
806.533	460.33
806.971	597.33
807.409	864.18
807.847	1756.58
808.284	4472.23
808.722	7676.08
809.16	10779.03
809.597	14450.48
810.035	15542.08
810.472	11458.98
810.91	4919.03
811.347	2194.83
811.785	1036.53
812.222	650.68
812.66	503.63
813.097	427.13
813.535	370.78
813.972	333.78
814.409	310.53
814.846	303.23
815.284	283.18
815.721	287.98
816.158	304.18
816.595	391.18
817.032	473.73
817.47	439.78
817.907	340.33
818.344	302.08
818.781	292.28
819.218	347.08
819.655	488.13
820.092	615.53
820.529	568.73
820.966	468.13
821.403	349.73
821.839	312.38
822.276	325.68
822.713	374.83
823.15	367.38
823.587	403.08
824.023	726.93
824.46	1833.73
824.897	3125.63
825.333	2383.38
825.77	1101.93
826.206	582.38
826.643	348.98
827.08	253.63
827.516	224.08
827.953	212.83
828.389	200.88
828.825	193.78
829.262	184.28
829.698	183.33
830.135	168.53
830.571	174.03
831.007	174.93
831.443	179.53
831.88	179.28
832.316	184.18
832.752	175.93
833.188	184.83
833.624	186.33
834.06	182.58
834.497	184.73
834.933	191.68
835.369	211.28
835.805	210.93
836.241	225.48
836.677	250.93
837.112	291.18
837.548	353.63
837.984	528.18
838.42	1155.03
838.856	3193.03
839.292	6228.28
839.727	4518.68
840.163	3110.33
840.599	4767.03
841.034	7145.88
841.47	3528.53
841.906	1735.98
842.341	976.38
842.777	834.58
843.212	960.13
843.648	572.73
844.083	362.13
844.519	251.43
844.954	200.83
845.39	178.73
845.825	171.83
846.261	169.63
846.696	158.08
847.131	154.08
847.566	152.83
848.002	159.88
848.437	163.78
848.872	174.88
849.307	223.78
849.742	405.98
850.177	1034.03
850.613	2195.58
851.048	1531.68
851.483	717.53
851.918	395.58
852.353	238.83
852.788	183.13
853.223	152.88
853.657	138.08
854.092	133.88
854.527	125.68
854.962	130.53
855.397	137.63
855.832	121.58
856.266	111.38
856.701	115.03
857.136	117.48
857.57	136.38
858.005	158.98
858.44	138.63
858.874	138.93
859.309	132.98
859.743	138.88
860.178	132.13
860.612	141.33
861.047	177.08
861.481	226.13
861.915	165.18
862.35	127.73
862.784	108.28
863.218	103.58
863.653	119.33
864.087	140.43
864.521	180.53
864.955	306.08
865.39	508.18
865.824	368.33
866.258	428.63
866.692	593.08
867.126	430.53
867.56	234.83
867.994	165.83
868.428	141.93
868.862	171.88
869.296	152.73
869.73	187.98
870.164	163.98
870.598	147.18
871.031	107.83
871.465	99.18
871.899	83.03
872.333	79.63
872.766	81.88
873.2	81.53
873.634	80.23
874.067	86.73
874.501	87.08
874.935	87.88
875.368	90.33
875.802	80.68
876.235	77.03
876.669	72.13
877.102	69.18
877.535	69.98
877.969	63.23
878.402	67.13
878.836	67.43
879.269	65.73
879.702	66.28
880.135	68.93
880.569	76.93
881.002	65.03
881.435	65.23
881.868	64.13
882.301	62.53
882.734	59.58
883.167	65.88
883.601	60.08
884.034	61.93
884.467	56.83
884.899	57.78
885.332	54.43
885.765	53.08
886.198	52.28
886.631	57.53
887.064	56.78
887.497	50.53
887.929	50.38
888.362	53.83
888.795	51.63
889.228	55.18
889.66	52.88
890.093	50.28
890.526	54.48
890.958	51.58
891.391	56.38
891.823	49.03
892.256	54.93
892.688	50.78
893.121	42.78
893.553	57.23
893.985	49.33
894.418	47.78
894.85	48.88
895.282	52.08
895.715	43.08
896.147	41.38
896.579	41.53
897.011	54.83
897.444	47.08
897.876	43.13
898.308	45.48
898.74	43.43
899.172	50.03
899.604	47.78
900.036	52.43
900.468	42.33
900.9	52.58
901.332	58.33
901.764	60.73
902.196	54.03
902.628	60.93
903.06	77.98
903.491	82.38
903.923	69.08
904.355	72.08
904.787	80.18
905.218	64.78
905.65	63.73
906.082	58.43
906.513	56.93
906.945	58.13
907.376	61.38
907.808	69.48
908.239	73.73
908.671	71.08
909.102	75.63
909.534	108.93
909.965	203.63
910.397	516.33
910.828	1457.63
911.259	877.08
911.691	479.48
912.122	282.98
912.553	141.43
912.984	81.13
913.415	71.43
913.847	60.63
914.278	59.53
914.709	57.03
915.14	53.33
915.571	52.98
916.002	52.28
916.433	46.78
916.864	44.88
917.295	47.73
917.726	61.63
918.157	75.73
918.587	72.88
919.018	61.08
919.449	58.53
919.88	74.68
920.311	114.43
920.741	311.83
921.172	532.18
921.603	272.18
922.033	173.18
922.464	110.53
922.895	74.43
923.325	54.83
923.756	51.53
924.186	69.43
924.617	112.23
925.047	175.13
925.478	160.53
925.908	111.58
926.338	82.58
926.769	57.63
927.199	56.33
927.629	47.53
928.06	48.03
928.49	47.03
928.92	38.33
929.35	35.18
929.78	30.08
930.21	29.28
930.641	26.53
931.071	26.33
931.501	25.53
931.931	25.13
932.361	27.13
932.791	32.28
933.221	31.68
933.651	41.63
934.08	72.13
934.51	45.33
934.94	33.58
935.37	28.83
935.8	23.13
936.229	25.58
936.659	21.83
937.089	40.63
937.519	49.18
937.948	66.33
938.378	41.58
938.807	27.63
939.237	24.28
939.666	19.63
940.096	17.68
940.525	13.23
940.955	20.03
941.384	14.53
941.814	15.03
942.243	13.18
942.672	12.18
943.102	10.28
943.531	13.33
943.96	12.88
944.39	12.93
944.819	16.28
945.248	11.78
945.677	13.33
946.106	9.08
946.535	14.33
946.964	12.08
947.393	3.63
947.822	15.43
948.251	15.53
948.68	19.88
949.109	12.08
949.538	11.38
949.967	16.33
950.396	10.93
950.825	11.48
951.254	9.73
951.682	6.38
952.111	6.18
952.54	7.23
952.969	10.68
953.397	8.58
953.826	8.38
954.254	14.38
954.683	12.83
955.112	12.83
955.54	12.43
955.969	6.88
956.397	12.38
956.826	2.83
957.254	6.13
957.682	10.13
958.111	10.18
958.539	9.78
958.967	8.38
959.396	14.08
959.824	6.18
960.252	10.38
960.68	10.33
961.109	11.53
961.537	16.58
961.965	8.78
962.393	8.03
962.821	7.18
963.249	11.53
963.677	18.18
964.105	90.18
964.533	152.48
964.961	76.58
965.389	48.28
965.817	26.88
966.245	14.23
966.672	10.78
967.1	10.23
967.528	4.33
967.956	4.98
968.383	9.68
968.811	5.13
969.239	4.93
969.666	6.28
970.094	5.33
970.522	5.63
970.949	8.58
971.377	2.68
971.804	-0.17
972.232	3.18
972.659	2.83
973.087	10.43
973.514	6.58
973.941	3.58
974.369	0.88
974.796	5.28
975.223	3.73
975.651	7.68
976.078	10.18
976.505	16.28
976.932	36.28
977.359	48.88
977.786	30.33
978.214	15.08
978.641	7.13
979.068	4.73
979.495	4.73
979.922	5.93
980.349	6.83
980.776	4.63
981.202	4.73
981.629	10.78
982.056	7.78
982.483	-0.37
982.91	8.23
983.337	-2.02
983.763	3.03
984.19	7.68
984.617	4.88
985.043	6.73
985.47	3.68
985.897	7.08
986.323	7.58
986.75	6.38
987.176	3.38
987.603	9.43
988.029	4.13
988.456	9.03
988.882	3.13
989.308	-0.07
989.735	6.08
990.161	7.43
990.587	3.33
991.014	5.08
991.44	5.23
991.866	6.98
992.292	0.23
992.719	-1.77
993.145	8.03
993.571	4.08
993.997	5.13
994.423	5.88
994.849	2.63
995.275	3.48
995.701	4.63
996.127	-5.47
996.553	4.43
996.979	0.53
997.405	5.73
997.83	3.08
998.256	4.78
998.682	4.13
999.108	9.63
999.534	-3.97
999.959	3.03
1000.385	6.83
1000.811	2.93
1001.236	-2.07
1001.662	0.38
1002.087	9.43
1002.513	2.83
1002.938	3.38
1003.364	3.78
1003.789	7.58
1004.215	3.73
1004.64	2.83
1005.066	8.23
1005.491	7.13
1005.916	5.08
1006.342	6.13
1006.767	3.38
1007.192	6.23
1007.617	4.13
1008.042	5.53
1008.468	2.98
1008.893	10.43
1009.318	10.13
1009.743	12.43
1010.168	22.88
1010.593	19.78
1011.018	10.43
1011.443	10.33
1011.868	10.33
1012.293	1.83
1012.718	2.58
1013.143	0.78
1013.567	11.73
1013.992	2.63
1014.417	7.63
1014.842	1.73
1015.267	1.08
1015.691	2.88
1016.116	5.33
1016.541	9.33
1016.965	3.18
1017.39	3.88
1017.814	-2.57
1018.239	0.78
1018.663	-8.82
1019.088	-4.12
1019.512	4.28
1019.937	-6.22
1020.361	0.43
1020.785	-1.62
1021.21	-3.02
1021.634	1.58
1022.058	0.68
1022.483	-1.02
1022.907	-0.82
1023.331	-3.37
1023.755	2.48
1024.179	1.58
1024.604	-3.27
1025.028	0.48
1025.452	3.28
1025.876	5.83
1026.3	2.23
1026.724	-1.22
1027.148	2.93
1027.572	-1.47
1027.996	6.18
1028.42	-0.37
1028.843	-3.47
1029.267	-1.12
1029.691	4.08
1030.115	2.13
1030.539	1.63
1030.962	2.88
1031.386	1.73
1031.81	-3.02
1032.233	-2.67
1032.657	-2.87
1033.08	0.13
1033.504	0.73
1033.927	1.98
1034.351	-2.77
1034.774	2.18
1035.198	-0.22
1035.621	0.83
1036.045	-2.32
1036.468	6.88
1036.891	-0.07
1037.315	5.08
1037.738	1.08
1038.161	-0.52
1038.584	-0.17
1039.008	0.13
1039.431	-0.02
1039.854	-5.57
1040.277	7.38
1040.7	1.33
1041.123	-3.92
1041.546	-1.87
1041.969	4.38
1042.392	3.58
1042.815	-9.47
1043.238	2.23
1043.661	-0.77
1044.084	-2.12
1044.507	-0.37
1044.93	0.73
1045.352	-0.42
1045.775	-1.87
1046.198	3.53
1046.621	1.68
1047.043	-4.02
1047.466	0.68
1047.889	0.73
1048.311	1.93
1048.734	0.83
1049.156	-4.12
1049.579	0.53
1050.001	-0.32
1050.424	-2.62
1050.846	-1.72
1051.269	-9.07
1051.691	0.03
1052.113	4.93
1052.536	-2.02
1052.958	-8.27
1053.38	0.13
1053.802	-0.27
1054.225	-0.37
1054.647	3.58
1055.069	-0.12
1055.491	1.53
1055.913	1.43
1056.335	-6.92
1056.757	-1.57
1057.179	-2.17
1057.601	-5.62
1058.023	-1.37
1058.445	-3.07
1058.867	3.83
1059.289	-1.52
1059.711	-3.47
1060.133	0.58
1060.555	-0.77
1060.976	-1.02
1061.398	0.38
1061.82	0.43
1062.241	-0.92
1062.663	-2.12
1063.085	-5.02
1063.506	-3.62
1063.928	-7.87
1064.35	2.08
1064.771	-3.32
1065.193	-5.37
1065.614	-4.17
1066.035	3.83
1066.457	-0.92
1066.878	1.58
1067.3	0.18
1067.721	-1.47
1068.142	1.68
1068.564	0.28
1068.985	1.73
1069.406	-6.27
1069.827	-1.87
1070.248	-0.72
1070.67	-4.77
1071.091	-6.47
1071.512	-6.82
1071.933	3.63
1072.354	-8.57
1072.775	0.78
1073.196	1.18
1073.617	-6.92
1074.038	-2.97
1074.459	-4.92
1074.88	-0.77
1075.3	-3.62
1075.721	0.38
1076.142	-3.12
1076.563	-6.17
1076.983	2.18
1077.404	-4.97
1077.825	-2.97
1078.246	-3.87
1078.666	-2.72
1079.087	-4.77
1079.507	-5.07
1079.928	0.53
1080.348	-4.87
1080.769	-1.32
1081.189	-5.77
1081.61	-10.07
1082.03	0.58
1082.451	1.38
1082.871	-3.32
1083.291	-1.17
1083.711	-3.32
1084.132	-6.37
1084.552	-5.42
1084.972	-5.17
1085.392	-2.87
1085.813	-2.97
1086.233	-7.92
1086.653	-2.42
1087.073	-2.67
1087.493	-4.47
1087.913	-6.37
1088.333	-1.07
1088.753	-1.12
1089.173	-2.12
1089.593	0.43
1090.013	-8.42
1090.433	-3.02
1090.852	1.28
1091.272	-6.72
1091.692	-1.42
1092.112	-5.52
1092.531	-5.52
1092.951	-1.77
1093.371	-2.12
1093.79	-4.77
1094.21	-2.82
1094.63	-2.07
1095.049	-2.07
1095.469	-8.77
1095.888	-4.87
1096.308	-1.22
1096.727	-5.72
1097.146	0.23
1097.566	-0.82
1097.985	-1.27
1098.405	-0.62
1098.824	-3.37
1099.243	-0.37
1099.662	-6.02
1100.082	-5.27
1100.501	-2.17
1100.92	3.08
1101.339	2.48
1101.758	1.38
