Data from MSPlasma+Separation6_Subt14_10-14-53-585.txt Node
Date: Fri Jul 21 10:14:53 EDT 2017
User: Ender
Spectrometer: HR+D1039
Trigger mode: 0
Integration Time (sec): 6.430000E-3
Scans to average: 20
Electric dark correction enabled: true
Nonlinearity correction enabled: false
Boxcar width: 0
XAxis mode: Wavelengths
Number of Pixels in Spectrum: 2048
>>>>>Begin Spectral Data<<<<<
187.836	-2.86
188.309	-2.86
188.782	-2.86
189.255	-0.96
189.728	1.09
190.201	-1.36
190.674	-1.21
191.147	-1.66
191.619	0.99
192.092	0.44
192.565	0.44
193.038	1.79
193.511	4.79
193.984	-1.06
194.456	-1.16
194.929	0.84
195.402	-0.86
195.874	0.69
196.347	1.59
196.82	0.04
197.292	-3.31
197.765	-0.81
198.237	-1.61
198.71	-2.81
199.182	0.99
199.655	5.54
200.127	3.39
200.6	-3.56
201.072	0.79
201.544	-2.21
202.017	-1.31
202.489	-0.96
202.961	0.04
203.433	-4.31
203.906	3.59
204.378	-0.86
204.85	2.54
205.322	3.84
205.794	5.54
206.266	1.79
206.739	7.24
207.211	1.44
207.683	3.44
208.155	1.94
208.627	3.64
209.099	7.89
209.57	2.84
210.042	5.19
210.514	5.64
210.986	15.54
211.458	25.09
211.93	13.54
212.402	7.84
212.873	0.09
213.345	-3.11
213.817	3.39
214.288	-2.06
214.76	-0.96
215.232	0.69
215.703	0.64
216.175	2.24
216.646	3.89
217.118	6.54
217.589	-2.21
218.061	4.14
218.532	1.44
219.004	8.59
219.475	13.89
219.946	30.44
220.418	38.89
220.889	28.84
221.36	17.24
221.832	9.74
222.303	10.69
222.774	7.64
223.245	2.84
223.717	1.89
224.188	7.54
224.659	5.09
225.13	3.49
225.601	2.79
226.072	5.69
226.543	11.69
227.014	3.79
227.485	8.39
227.956	10.64
228.427	16.69
228.898	12.69
229.369	15.99
229.839	15.44
230.31	14.89
230.781	13.24
231.252	16.09
231.722	29.34
232.193	34.54
232.664	37.59
233.135	57.79
233.605	63.74
234.076	47.04
234.546	40.24
235.017	48.74
235.487	45.34
235.958	45.99
236.428	66.49
236.899	112.14
237.369	117.29
237.84	92.79
238.31	114.34
238.78	110.29
239.251	111.94
239.721	117.44
240.191	91.79
240.662	53.44
241.132	42.24
241.602	54.99
242.072	77.29
242.542	92.44
243.013	58.74
243.483	52.34
243.953	45.14
244.423	44.79
244.893	53.04
245.363	66.04
245.833	51.69
246.303	59.79
246.773	78.49
247.243	83.29
247.712	92.49
248.182	110.94
248.652	118.24
249.122	175.49
249.592	333.99
250.061	499.04
250.531	792.34
251.001	607.04
251.471	504.89
251.94	378.39
252.41	201.99
252.879	144.04
253.349	110.19
253.818	91.64
254.288	72.99
254.757	74.54
255.227	101.59
255.696	84.24
256.166	73.94
256.635	80.94
257.105	97.59
257.574	130.84
258.043	134.39
258.513	241.54
258.982	305.74
259.451	210.64
259.92	215.14
260.389	195.69
260.859	142.44
261.328	167.79
261.797	245.04
262.266	217.54
262.735	100.69
263.204	64.44
263.673	57.84
264.142	47.99
264.611	53.44
265.08	56.69
265.549	56.59
266.018	57.09
266.487	48.89
266.955	48.99
267.424	62.44
267.893	62.34
268.362	61.04
268.83	61.64
269.299	66.54
269.768	67.44
270.236	86.49
270.705	89.44
271.174	89.84
271.642	100.19
272.111	115.24
272.579	183.74
273.048	292.99
273.516	365.44
273.985	371.89
274.453	286.99
274.922	168.14
275.39	109.54
275.858	98.39
276.327	82.99
276.795	81.64
277.263	101.29
277.731	123.99
278.2	248.94
278.668	329.64
279.136	261.19
279.604	160.99
280.072	99.64
280.54	90.69
281.008	88.44
281.477	90.69
281.945	96.59
282.413	92.84
282.881	94.94
283.348	94.54
283.816	102.99
284.284	106.09
284.752	100.84
285.22	102.64
285.688	112.94
286.156	190.09
286.623	516.34
287.091	1026.94
287.559	539.59
288.026	201.54
288.494	125.14
288.962	107.34
289.429	94.34
289.897	95.94
290.364	91.94
290.832	95.09
291.3	95.19
291.767	97.34
292.234	99.89
292.702	104.49
293.169	110.54
293.637	118.64
294.104	114.69
294.571	108.34
295.039	112.94
295.506	103.29
295.973	113.54
296.44	112.54
296.908	114.94
297.375	137.69
297.842	135.54
298.309	116.74
298.776	116.49
299.243	123.24
299.71	113.14
300.177	118.04
300.644	131.49
301.111	142.34
301.578	128.84
302.045	120.19
302.512	114.29
302.979	121.59
303.446	130.69
303.913	130.89
304.379	138.04
304.846	157.04
305.313	170.89
305.78	202.19
306.246	248.64
306.713	264.34
307.18	232.29
307.646	249.24
308.113	220.24
308.579	179.39
309.046	172.99
309.512	173.09
309.979	157.09
310.445	146.79
310.912	154.89
311.378	153.24
311.845	151.19
312.311	149.19
312.777	144.79
313.244	154.89
313.71	163.69
314.176	184.84
314.642	204.14
315.109	237.79
315.575	226.69
316.041	204.19
316.507	194.14
316.973	211.39
317.439	207.69
317.905	232.79
318.371	228.79
318.837	215.44
319.303	224.29
319.769	206.19
320.235	238.24
320.701	264.54
321.167	284.94
321.633	341.89
322.099	477.59
322.564	642.29
323.03	499.19
323.496	347.74
323.962	332.79
324.427	311.64
324.893	269.69
325.359	257.59
325.824	223.09
326.29	235.84
326.755	240.59
327.221	242.59
327.686	251.74
328.152	229.44
328.617	215.59
329.083	222.79
329.548	234.79
330.014	244.59
330.479	257.24
330.944	308.34
331.41	344.74
331.875	335.19
332.34	345.79
332.805	401.39
333.271	510.44
333.736	679.14
334.201	607.74
334.666	452.44
335.131	510.24
335.596	404.04
336.061	430.74
336.526	434.44
336.991	379.69
337.456	408.14
337.921	333.64
338.386	268.64
338.851	243.74
339.316	227.09
339.781	221.24
340.246	222.64
340.711	227.74
341.175	228.19
341.64	238.14
342.105	239.64
342.569	256.54
343.034	273.19
343.499	283.34
343.963	268.69
344.428	266.74
344.893	271.34
345.357	282.74
345.822	274.29
346.286	277.34
346.751	289.44
347.215	281.89
347.679	295.94
348.144	313.09
348.608	311.64
349.073	321.24
349.537	358.64
350.001	349.39
350.465	329.69
350.93	321.24
351.394	320.89
351.858	316.69
352.322	327.84
352.786	328.99
353.25	325.99
353.715	325.44
354.179	346.19
354.643	360.39
355.107	371.29
355.571	390.94
356.035	401.69
356.498	384.79
356.962	413.79
357.426	406.84
357.89	362.09
358.354	348.74
358.818	341.84
359.281	350.64
359.745	371.94
360.209	364.34
360.673	366.34
361.136	372.44
361.6	371.94
362.064	391.44
362.527	406.39
362.991	401.99
363.454	398.69
363.918	400.54
364.381	397.14
364.845	393.44
365.308	384.09
365.772	381.34
366.235	387.74
366.698	411.19
367.162	498.44
367.625	550.39
368.088	448.59
368.552	406.34
369.015	418.09
369.478	443.89
369.941	454.24
370.404	459.69
370.867	486.84
371.331	492.54
371.794	498.99
372.257	562.64
372.72	585.49
373.183	556.94
373.646	567.69
374.109	574.14
374.572	655.99
375.035	772.69
375.497	591.84
375.96	471.49
376.423	450.34
376.886	451.89
377.349	462.39
377.811	468.49
378.274	476.19
378.737	476.44
379.199	489.79
379.662	505.04
380.125	533.34
380.587	598.39
381.05	632.04
381.512	630.79
381.975	605.34
382.437	601.34
382.9	604.54
383.362	604.39
383.825	650.79
384.287	808.09
384.75	909.54
385.212	802.09
385.674	670.64
386.136	595.04
386.599	591.14
387.061	621.29
387.523	643.19
387.985	651.24
388.447	672.79
388.91	751.29
389.372	910.54
389.834	850.14
390.296	707.84
390.758	714.44
391.22	735.94
391.682	901.04
392.144	1387.54
392.606	1315.09
393.068	776.79
393.529	705.04
393.991	688.44
394.453	671.64
394.915	707.04
395.377	859.74
395.838	1048.99
396.3	745.24
396.762	585.39
397.224	558.49
397.685	545.59
398.147	546.94
398.608	561.29
399.07	571.29
399.531	556.84
399.993	562.99
400.454	571.64
400.916	569.69
401.377	587.54
401.839	593.34
402.3	592.99
402.762	619.14
403.223	685.89
403.684	704.89
404.145	639.69
404.607	622.99
405.068	628.04
405.529	640.39
405.99	650.49
406.451	657.24
406.913	642.09
407.374	652.94
407.835	654.59
408.296	677.79
408.757	682.84
409.218	703.69
409.679	710.04
410.14	721.64
410.601	749.69
411.062	783.84
411.522	899.59
411.983	996.34
412.444	854.49
412.905	745.19
413.366	751.54
413.826	778.24
414.287	863.49
414.748	1018.19
415.208	1041.29
415.669	877.04
416.13	795.94
416.59	777.64
417.051	803.24
417.511	837.54
417.972	906.54
418.432	966.14
418.893	1074.24
419.353	1026.54
419.814	789.99
420.274	705.44
420.734	711.14
421.195	754.79
421.655	784.69
422.115	763.69
422.576	735.94
423.036	740.24
423.496	769.14
423.956	799.79
424.416	854.99
424.876	966.64
425.336	968.39
425.797	958.94
426.257	967.74
426.717	906.54
427.177	843.99
427.637	871.09
428.097	919.74
428.556	962.39
429.016	1047.69
429.476	1035.59
429.936	1004.69
430.396	968.09
430.856	986.94
431.315	1016.39
431.775	1090.79
432.235	1148.19
432.694	1166.39
433.154	1100.19
433.614	1066.49
434.073	1030.89
434.533	938.64
434.993	904.79
435.452	911.84
435.912	896.49
436.371	892.19
436.83	887.69
437.29	897.29
437.749	855.19
438.209	846.24
438.668	853.34
439.127	865.64
439.587	846.79
440.046	812.74
440.505	832.89
440.964	832.19
441.424	848.99
441.883	864.14
442.342	813.54
442.801	790.94
443.26	807.39
443.719	804.44
444.178	799.39
444.637	807.59
445.096	803.99
445.555	826.89
446.014	826.99
446.473	804.99
446.932	793.44
447.391	807.34
447.849	828.49
448.308	822.54
448.767	834.04
449.226	859.79
449.685	862.64
450.143	900.49
450.602	902.49
451.061	866.24
451.519	880.89
451.978	901.24
452.436	936.19
452.895	883.99
453.353	853.69
453.812	865.24
454.27	854.39
454.729	830.24
455.187	837.59
455.646	840.19
456.104	854.24
456.562	843.69
457.021	840.49
457.479	803.19
457.937	832.29
458.395	851.74
458.854	843.24
459.312	832.04
459.77	841.24
460.228	847.59
460.686	866.84
461.144	864.34
461.602	854.19
462.06	855.89
462.518	881.64
462.976	877.09
463.434	888.39
463.892	892.24
464.35	913.19
464.808	928.29
465.266	932.94
465.724	943.39
466.181	947.94
466.639	941.34
467.097	978.34
467.555	1013.84
468.012	1008.59
468.47	1012.34
468.928	1047.69
469.385	1086.14
469.843	1094.09
470.3	1087.44
470.758	1113.49
471.215	1134.24
471.673	1161.04
472.13	1191.94
472.588	1215.39
473.045	1215.39
473.503	1232.54
473.96	1293.04
474.417	1304.49
474.875	1364.94
475.332	1411.59
475.789	1435.59
476.246	1480.09
476.704	1545.39
477.161	1590.59
477.618	1627.74
478.075	1733.69
478.532	1850.79
478.989	2013.69
479.446	2212.39
479.903	2342.49
480.36	2561.44
480.817	2737.49
481.274	2932.59
481.731	3224.74
482.188	3490.89
482.645	3760.64
483.102	3969.14
483.558	4279.09
484.015	4484.74
484.472	4502.79
484.929	4356.44
485.385	4173.39
485.842	4046.69
486.299	3842.49
486.755	3468.64
487.212	3112.29
487.668	2791.99
488.125	2589.79
488.582	2390.64
489.038	2282.79
489.494	2215.74
489.951	2139.24
490.407	2090.84
490.864	2060.89
491.32	2012.14
491.776	1972.49
492.233	1979.49
492.689	1955.04
493.145	1926.34
493.602	1920.74
494.058	1948.19
494.514	1974.94
494.97	1989.24
495.426	2006.64
495.882	2025.04
496.338	2023.69
496.794	2103.59
497.251	2119.99
497.707	2107.09
498.163	2124.94
498.618	2122.64
499.074	2137.44
499.53	2173.69
499.986	2218.29
500.442	2234.29
500.898	2248.19
501.354	2272.79
501.809	2291.39
502.265	2314.59
502.721	2437.64
503.177	2493.84
503.632	2369.04
504.088	2380.74
504.543	2616.14
504.999	2455.99
505.455	2165.69
505.91	2047.44
506.366	2033.44
506.821	2023.94
507.277	2012.19
507.732	2025.44
508.187	1995.09
508.643	2021.89
509.098	2027.24
509.553	2055.54
510.009	2087.09
510.464	2128.14
510.919	2140.04
511.375	2164.39
511.83	2199.09
512.285	2248.29
512.74	2285.94
513.195	2324.19
513.65	2354.44
514.105	2390.04
514.56	2396.04
515.015	2454.74
515.47	2480.59
515.925	2471.04
516.38	2458.64
516.835	2450.09
517.29	2440.69
517.745	2458.84
518.2	2427.79
518.655	2340.79
519.109	2305.49
519.564	2292.74
520.019	2283.44
520.474	2240.69
520.928	2215.89
521.383	2224.04
521.838	2224.64
522.292	2200.59
522.747	2159.74
523.201	2161.19
523.656	2127.74
524.11	2130.14
524.565	2115.69
525.019	2126.59
525.474	2146.24
525.928	2131.79
526.382	2123.14
526.837	2088.04
527.291	2105.29
527.745	2078.64
528.2	2082.39
528.654	2070.14
529.108	2073.59
529.562	2082.34
530.016	2078.84
530.47	2089.59
530.925	2079.24
531.379	2085.49
531.833	2120.79
532.287	2096.64
532.741	2094.94
533.195	2091.79
533.649	2090.19
534.103	2089.24
534.556	2072.49
535.01	2091.84
535.464	2091.44
535.918	2110.79
536.372	2098.04
536.826	2090.39
537.279	2080.09
537.733	2091.74
538.187	2094.64
538.64	2099.49
539.094	2117.69
539.548	2144.24
540.001	2126.09
540.455	2138.34
540.908	2146.34
541.362	2184.99
541.815	2189.24
542.269	2236.69
542.722	2237.04
543.175	2251.04
543.629	2276.04
544.082	2284.59
544.536	2306.84
544.989	2308.64
545.442	2330.49
545.895	2323.09
546.349	2304.94
546.802	2333.14
547.255	2325.39
547.708	2345.09
548.161	2354.94
548.614	2366.09
549.067	2373.19
549.52	2353.84
549.973	2337.84
550.426	2332.49
550.879	2304.14
551.332	2294.84
551.785	2311.34
552.238	2337.19
552.691	2330.44
553.144	2374.34
553.596	2409.39
554.049	2443.54
554.502	2496.44
554.955	2533.89
555.407	2568.34
555.86	2540.04
556.313	2506.54
556.765	2494.54
557.218	2459.99
557.67	2471.24
558.123	2422.04
558.576	2419.94
559.028	2413.89
559.48	2451.64
559.933	2418.24
560.385	2359.59
560.838	2271.99
561.29	2202.39
561.742	2192.74
562.195	2148.89
562.647	2152.89
563.099	2133.74
563.551	2127.74
564.004	2150.09
564.456	2135.34
564.908	2090.94
565.36	2031.34
565.812	2009.49
566.264	1998.09
566.716	1963.14
567.168	1933.64
567.62	1943.94
568.072	1926.84
568.524	1899.19
568.976	1897.44
569.428	1872.14
569.88	1861.49
570.332	1879.04
570.784	1877.29
571.235	1858.49
571.687	1888.94
572.139	1881.29
572.59	1902.04
573.042	1916.94
573.494	1918.34
573.945	1884.74
574.397	1846.19
574.849	1845.84
575.3	1841.54
575.752	1820.59
576.203	1810.49
576.655	1813.14
577.106	1791.54
577.557	1768.79
578.009	1766.09
578.46	1777.49
578.912	1759.99
579.363	1774.04
579.814	1767.49
580.265	1763.74
580.717	1769.44
581.168	1761.99
581.619	1772.09
582.07	1785.64
582.521	1792.44
582.972	1787.19
583.423	1807.39
583.875	1843.24
584.326	1942.74
584.777	2119.99
585.227	2323.89
585.678	2504.39
586.129	2542.79
586.58	2593.74
587.031	2629.99
587.482	2796.19
587.933	3292.39
588.384	3002.34
588.834	2464.79
589.285	2071.19
589.736	2019.04
590.186	2015.34
590.637	2007.29
591.088	1955.79
591.538	1924.59
591.989	1913.64
592.439	1904.24
592.89	1895.69
593.34	1900.44
593.791	1915.29
594.241	1917.74
594.692	1947.34
595.142	1924.29
595.593	1895.19
596.043	1890.34
596.493	1919.34
596.943	1964.79
597.394	1948.74
597.844	1921.64
598.294	1943.29
598.744	1998.34
599.195	2099.79
599.645	2217.39
600.095	2331.19
600.545	2439.99
600.995	2555.59
601.445	2618.94
601.895	2757.49
602.345	2847.74
602.795	2798.64
603.245	2689.09
603.695	2515.39
604.145	2378.94
604.594	2266.89
605.044	2155.84
605.494	2017.09
605.944	1916.64
606.393	1874.19
606.843	1852.54
607.293	1852.74
607.743	1854.39
608.192	1873.39
608.642	1870.29
609.091	1871.89
609.541	1870.94
609.99	1870.99
610.44	1824.94
610.889	1808.54
611.339	1782.54
611.788	1775.29
612.238	1794.29
612.687	1823.44
613.136	1840.59
613.586	1862.14
614.035	1870.79
614.484	1900.39
614.933	1904.69
615.383	1864.09
615.832	1800.09
616.281	1760.94
616.73	1710.84
617.179	1660.99
617.628	1636.54
618.077	1600.49
618.526	1570.94
618.975	1568.59
619.424	1533.99
619.873	1551.64
620.322	1525.84
620.771	1536.09
621.22	1502.94
621.669	1479.39
622.118	1458.79
622.567	1456.04
623.015	1429.69
623.464	1433.89
623.913	1404.39
624.361	1405.04
624.81	1402.24
625.259	1397.49
625.707	1377.14
626.156	1392.39
626.604	1403.59
627.053	1405.34
627.501	1401.19
627.95	1408.74
628.398	1429.49
628.847	1408.44
629.295	1418.04
629.744	1440.09
630.192	1470.69
630.64	1588.94
631.089	1747.64
631.537	1845.24
631.985	1841.49
632.433	1916.49
632.881	1916.19
633.33	2313.04
633.778	2524.94
634.226	1772.79
634.674	1630.54
635.122	1623.74
635.57	1639.99
636.018	1915.19
636.466	1544.04
636.914	1369.39
637.362	1368.69
637.81	1383.09
638.258	1423.99
638.705	1442.64
639.153	1488.64
639.601	1492.34
640.049	1515.09
640.497	1550.69
640.944	1602.74
641.392	1528.84
641.84	1448.04
642.287	1387.29
642.735	1370.49
643.182	1356.39
643.63	1354.39
644.078	1365.94
644.525	1382.19
644.973	1425.59
645.42	1443.99
645.867	1462.99
646.315	1495.69
646.762	1536.54
647.21	1572.64
647.657	1662.59
648.104	1740.99
648.551	1796.04
648.999	1945.84
649.446	2140.54
649.893	2421.19
650.34	2828.54
650.787	3535.49
651.234	4581.64
651.682	6393.34
652.129	9201.74
652.576	13140.19
653.023	15534.34
653.47	15537.54
653.917	15537.59
654.363	15537.49
654.81	15534.49
655.257	15535.14
655.704	15535.19
656.151	10024.24
656.598	6481.24
657.044	4593.74
657.491	3577.14
657.938	2900.89
658.385	2426.99
658.831	2151.44
659.278	1914.94
659.724	1755.34
660.171	1630.94
660.618	1499.84
661.064	1424.79
661.511	1382.14
661.957	1331.04
662.404	1301.74
662.85	1281.34
663.296	1270.84
663.743	1235.94
664.189	1228.14
664.635	1218.94
665.082	1196.84
665.528	1173.69
665.974	1144.19
666.42	1140.14
666.867	1160.59
667.313	1172.14
667.759	1223.24
668.205	1224.14
668.651	1238.44
669.097	1204.69
669.543	1314.64
669.989	1223.69
670.435	1073.74
670.881	1072.49
671.327	1110.89
671.773	1183.49
672.219	1266.54
672.665	1354.29
673.11	1395.19
673.556	1407.69
674.002	1446.84
674.448	1458.29
674.893	1244.54
675.339	1081.84
675.785	1003.94
676.23	956.99
676.676	917.79
677.122	897.89
677.567	870.39
678.013	843.29
678.458	844.74
678.904	840.94
679.349	827.39
679.794	829.39
680.24	824.34
680.685	816.84
681.131	818.94
681.576	822.29
682.021	826.74
682.466	832.34
682.912	841.49
683.357	881.94
683.802	956.24
684.247	1050.39
684.692	1111.39
685.137	1144.84
685.583	1167.49
686.028	1236.89
686.473	1168.19
686.918	1016.59
687.363	926.19
687.807	876.59
688.252	838.99
688.697	815.84
689.142	793.04
689.587	791.59
690.032	806.49
690.477	840.69
690.921	880.79
691.366	920.94
691.811	956.89
692.255	1045.19
692.7	1270.34
693.145	1838.14
693.589	2786.04
694.034	3311.64
694.478	3511.39
694.923	3207.79
695.367	4548.14
695.812	2771.89
696.256	1178.64
696.701	870.19
697.145	803.99
697.59	773.19
698.034	765.94
698.478	767.49
698.922	776.79
699.367	789.99
699.811	834.29
700.255	892.74
700.699	976.69
701.143	1053.34
701.588	1116.49
702.032	1169.94
702.476	1192.14
702.92	1257.64
703.364	1650.14
703.808	2552.99
704.252	3176.89
704.696	3328.64
705.14	3146.64
705.584	4314.04
706.027	2408.19
706.471	1209.29
706.915	900.94
707.359	805.44
707.803	759.34
708.246	732.74
708.69	732.59
709.134	723.69
709.577	715.44
710.021	717.89
710.465	730.34
710.908	718.59
711.352	746.24
711.795	829.64
712.239	892.19
712.682	920.99
713.126	906.94
713.569	1011.44
714.012	840.39
714.456	743.49
714.899	695.34
715.342	647.24
715.786	622.14
716.229	603.44
716.672	593.19
717.115	591.49
717.558	604.39
718.002	610.59
718.445	646.64
718.888	677.14
719.331	687.79
719.774	700.89
720.217	681.19
720.66	648.29
721.103	620.59
721.546	576.79
721.989	566.99
722.432	561.64
722.874	564.14
723.317	571.84
723.76	617.59
724.203	765.94
724.645	1012.14
725.088	1172.59
725.531	1150.09
725.974	1255.54
726.416	1128.74
726.859	702.74
727.301	578.54
727.744	552.14
728.187	551.04
728.629	564.04
729.071	586.39
729.514	608.24
729.956	640.84
730.399	652.44
730.841	651.69
731.283	633.44
731.726	620.14
732.168	626.99
732.61	658.09
733.053	711.99
733.495	793.69
733.937	877.24
734.379	1020.99
734.821	1317.49
735.263	2098.09
735.705	3764.24
736.148	5486.79
736.59	5490.14
737.032	5927.34
737.474	4883.59
737.916	1879.49
738.357	984.69
738.799	757.24
739.241	712.74
739.683	704.54
740.125	720.09
740.567	722.14
741.008	754.34
741.45	793.94
741.892	817.79
742.334	823.69
742.775	803.14
743.217	765.99
743.658	664.74
744.1	672.14
744.542	755.79
744.983	784.49
745.425	822.94
745.866	805.99
746.307	719.64
746.749	779.69
747.19	1132.84
747.632	2220.99
748.073	4122.84
748.514	5653.19
748.956	7505.64
749.397	8730.79
749.838	6023.19
750.279	5729.54
750.72	2961.09
751.162	1245.14
751.603	722.99
752.044	572.24
752.485	515.69
752.926	480.94
753.367	465.34
753.808	442.69
754.249	444.44
754.69	438.34
755.131	434.04
755.572	436.79
756.013	432.94
756.453	432.39
756.894	442.49
757.335	442.09
757.776	450.19
758.216	469.24
758.657	493.29
759.098	545.74
759.538	662.74
759.979	955.79
760.42	1946.64
760.86	5014.54
761.301	10278.89
761.741	11934.49
762.182	13660.49
762.622	8843.59
763.063	3201.74
763.503	1406.79
763.943	1066.54
764.384	1153.54
764.824	1091.24
765.264	1088.44
765.705	768.94
766.145	551.29
766.585	491.94
767.025	519.94
767.465	679.39
767.906	823.99
768.346	858.89
768.786	898.94
769.226	925.14
769.666	1597.64
770.106	3479.29
770.546	4852.94
770.986	5468.09
771.426	4119.39
771.866	1731.39
772.306	784.24
772.745	495.64
773.185	430.54
773.625	430.69
774.065	507.44
774.505	835.94
774.944	1688.94
775.384	2538.19
775.824	2883.14
776.263	2357.09
776.703	1144.74
777.142	581.89
777.582	395.89
778.021	351.49
778.461	333.19
778.9	334.19
779.34	300.99
779.779	287.44
780.219	275.49
780.658	277.94
781.097	272.74
781.537	264.34
781.976	261.69
782.415	260.99
782.855	257.09
783.294	259.89
783.733	257.04
784.172	262.34
784.611	258.49
785.05	262.69
785.489	269.14
785.928	275.89
786.367	283.94
786.806	299.94
787.245	319.49
787.684	329.39
788.123	332.24
788.562	316.39
789.001	301.74
789.44	291.14
789.879	296.59
790.317	298.94
790.756	318.89
791.195	363.74
791.634	488.39
792.072	892.94
792.511	2209.59
792.95	4026.54
793.388	4841.59
793.827	3122.44
794.265	1428.84
794.704	686.84
795.142	420.54
795.581	345.94
796.019	318.44
796.458	314.14
796.896	321.44
797.334	371.94
797.773	494.49
798.211	958.84
798.649	2006.14
799.087	3354.19
799.526	4728.39
799.964	4850.54
800.402	3307.54
800.84	1504.69
801.278	733.14
801.716	449.69
802.154	364.19
802.592	338.64
803.03	344.84
803.468	352.64
803.906	351.04
804.344	345.44
804.782	336.39
805.22	336.84
805.658	348.99
806.096	371.09
806.533	417.34
806.971	529.44
807.409	778.89
807.847	1557.39
808.284	4002.24
808.722	6965.59
809.16	9756.64
809.597	13170.94
810.035	15513.34
810.472	10529.79
810.91	4480.84
811.347	2001.49
811.785	945.44
812.222	592.79
812.66	454.54
813.097	388.34
813.535	339.64
813.972	301.64
814.409	279.94
814.846	266.89
815.284	256.69
815.721	259.29
816.158	280.99
816.595	356.84
817.032	432.79
817.47	405.99
817.907	317.74
818.344	278.69
818.781	272.29
819.218	312.34
819.655	450.34
820.092	579.24
820.529	533.44
820.966	438.69
821.403	326.34
821.839	279.39
822.276	300.64
822.713	339.39
823.15	323.29
823.587	361.64
824.023	646.19
824.46	1634.99
824.897	2838.14
825.333	2189.89
825.77	1000.54
826.206	525.14
826.643	309.14
827.08	234.49
827.516	204.49
827.953	190.09
828.389	183.49
828.825	169.54
829.262	168.64
829.698	157.59
830.135	150.84
830.571	154.14
831.007	155.04
831.443	156.94
831.88	160.19
832.316	166.89
832.752	160.09
833.188	159.94
833.624	163.89
834.06	168.04
834.497	166.19
834.933	167.64
835.369	187.54
835.805	190.94
836.241	195.94
836.677	219.79
837.112	264.89
837.548	324.49
837.984	479.69
838.42	1028.09
838.856	2877.54
839.292	5637.74
839.727	4147.89
840.163	2820.19
840.599	4279.99
841.034	6547.99
841.47	3247.24
841.906	1583.09
842.341	902.09
842.777	776.09
843.212	931.49
843.648	542.14
844.083	336.69
844.519	233.29
844.954	185.74
845.39	160.49
845.825	151.29
846.261	139.44
846.696	138.19
847.131	130.99
847.566	138.79
848.002	139.29
848.437	152.79
848.872	155.74
849.307	199.34
849.742	361.89
850.177	936.24
850.613	1997.49
851.048	1411.99
851.483	655.59
851.918	364.04
852.353	210.64
852.788	169.04
853.223	142.34
853.657	125.49
854.092	119.24
854.527	117.19
854.962	120.84
855.397	129.44
855.832	111.29
856.266	99.44
856.701	102.54
857.136	102.74
857.57	117.14
858.005	142.94
858.44	122.24
858.874	127.04
859.309	120.09
859.743	120.69
860.178	119.69
860.612	125.19
861.047	158.39
861.481	218.09
861.915	153.34
862.35	118.19
862.784	98.44
863.218	97.09
863.653	103.14
864.087	124.29
864.521	161.34
864.955	273.24
865.39	458.94
865.824	332.09
866.258	392.24
866.692	554.09
867.126	402.19
867.56	221.09
867.994	147.34
868.428	125.14
868.862	156.74
869.296	142.59
869.73	169.94
870.164	149.04
870.598	138.19
871.031	102.24
871.465	89.84
871.899	79.09
872.333	69.99
872.766	71.89
873.2	72.34
873.634	69.39
874.067	75.84
874.501	80.24
874.935	77.39
875.368	80.59
875.802	72.79
876.235	66.49
876.669	62.69
877.102	56.59
877.535	61.04
877.969	59.84
878.402	59.19
878.836	58.99
879.269	56.64
879.702	57.69
880.135	62.24
880.569	65.69
881.002	55.49
881.435	53.64
881.868	56.99
882.301	50.09
882.734	47.84
883.167	51.24
883.601	49.09
884.034	50.74
884.467	48.89
884.899	50.24
885.332	50.64
885.765	48.54
886.198	51.54
886.631	52.19
887.064	49.79
887.497	47.74
887.929	46.44
888.362	43.29
888.795	42.59
889.228	50.89
889.66	46.59
890.093	49.09
890.526	49.49
890.958	44.29
891.391	48.39
891.823	40.99
892.256	44.04
892.688	45.09
893.121	44.29
893.553	45.94
893.985	39.29
894.418	39.09
894.85	41.19
895.282	46.09
895.715	39.74
896.147	41.79
896.579	32.59
897.011	44.09
897.444	45.19
897.876	40.34
898.308	38.34
898.74	39.79
899.172	41.69
899.604	41.29
900.036	40.09
900.468	39.79
900.9	42.74
901.332	56.89
901.764	58.04
902.196	51.84
902.628	53.99
903.06	73.59
903.491	76.59
903.923	62.24
904.355	69.09
904.787	74.64
905.218	59.54
905.65	55.94
906.082	56.04
906.513	53.09
906.945	55.14
907.376	55.64
907.808	58.14
908.239	65.84
908.671	58.99
909.102	65.04
909.534	95.89
909.965	180.59
910.397	464.64
910.828	1333.69
911.259	808.24
911.691	436.39
912.122	250.14
912.553	133.09
912.984	75.04
913.415	64.59
913.847	57.59
914.278	53.64
914.709	51.44
915.14	39.19
915.571	45.09
916.002	41.69
916.433	41.39
916.864	38.94
917.295	41.39
917.726	54.69
918.157	64.74
918.587	59.89
919.018	57.09
919.449	56.54
919.88	67.84
920.311	103.04
920.741	276.64
921.172	491.59
921.603	246.44
922.033	154.19
922.464	97.89
922.895	69.74
923.325	50.19
923.756	52.34
924.186	66.94
924.617	108.79
925.047	170.84
925.478	157.24
925.908	105.49
926.338	75.44
926.769	54.24
927.199	53.54
927.629	41.49
928.06	44.24
928.49	39.34
928.92	36.74
929.35	36.59
929.78	23.09
930.21	27.14
930.641	21.54
931.071	23.99
931.501	22.04
931.931	20.59
932.361	25.39
932.791	29.44
933.221	29.34
933.651	42.09
934.08	65.59
934.51	41.49
934.94	32.79
935.37	24.54
935.8	24.04
936.229	18.19
936.659	22.54
937.089	32.94
937.519	46.69
937.948	65.84
938.378	38.59
938.807	26.04
939.237	22.04
939.666	18.24
940.096	15.09
940.525	7.64
940.955	13.49
941.384	14.54
941.814	11.19
942.243	13.79
942.672	9.14
943.102	9.94
943.531	5.74
943.96	8.04
944.39	10.84
944.819	10.54
945.248	6.74
945.677	7.74
946.106	10.84
946.535	11.19
946.964	11.39
947.393	10.79
947.822	9.24
948.251	14.34
948.68	15.19
949.109	9.89
949.538	6.59
949.967	9.74
950.396	11.49
950.825	10.09
951.254	14.39
951.682	3.44
952.111	4.29
952.54	7.99
952.969	4.89
953.397	3.14
953.826	5.89
954.254	14.59
954.683	5.29
955.112	8.69
955.54	3.79
955.969	7.44
956.397	11.34
956.826	8.09
957.254	6.49
957.682	9.24
958.111	8.59
958.539	9.84
958.967	10.69
959.396	13.99
959.824	6.69
960.252	8.14
960.68	6.34
961.109	8.34
961.537	9.74
961.965	3.09
962.393	4.44
962.821	10.49
963.249	9.29
963.677	13.39
964.105	82.14
964.533	142.09
964.961	69.24
965.389	38.19
965.817	16.74
966.245	10.54
966.672	9.34
967.1	10.84
967.528	4.04
967.956	3.99
968.383	8.69
968.811	2.49
969.239	8.24
969.666	5.14
970.094	6.44
970.522	2.19
970.949	4.69
971.377	0.74
971.804	2.19
972.232	5.24
972.659	3.29
973.087	8.74
973.514	3.49
973.941	0.34
974.369	-0.21
974.796	4.59
975.223	1.34
975.651	8.29
976.078	4.44
976.505	16.49
976.932	34.24
977.359	41.29
977.786	25.54
978.214	17.29
978.641	4.04
979.068	-0.06
979.495	9.19
979.922	7.44
980.349	6.49
980.776	7.14
981.202	5.69
981.629	11.49
982.056	8.14
982.483	-2.21
982.91	3.89
983.337	2.84
983.763	4.34
984.19	3.74
984.617	2.59
985.043	7.79
985.47	8.09
985.897	6.14
986.323	6.79
986.75	4.89
987.176	3.59
987.603	4.59
988.029	3.89
988.456	5.59
988.882	0.09
989.308	3.29
989.735	4.24
990.161	6.44
990.587	0.69
991.014	8.34
991.44	6.34
991.866	4.24
992.292	0.64
992.719	1.94
993.145	5.19
993.571	4.34
993.997	6.29
994.423	7.29
994.849	-2.71
995.275	2.99
995.701	8.54
996.127	-2.06
996.553	2.04
996.979	0.74
997.405	0.94
997.83	0.34
998.256	4.89
998.682	0.94
999.108	5.79
999.534	-2.46
999.959	3.94
1000.385	6.89
1000.811	-4.51
1001.236	-1.36
1001.662	1.04
1002.087	8.34
1002.513	3.94
1002.938	-0.86
1003.364	2.89
1003.789	7.49
1004.215	5.99
1004.64	1.14
1005.066	3.99
1005.491	6.09
1005.916	2.69
1006.342	3.14
1006.767	1.84
1007.192	2.99
1007.617	-0.01
1008.042	0.24
1008.468	2.39
1008.893	4.69
1009.318	7.09
1009.743	11.99
1010.168	23.44
1010.593	17.04
1011.018	11.34
1011.443	4.64
1011.868	7.99
1012.293	4.44
1012.718	-0.71
1013.143	-0.11
1013.567	8.69
1013.992	3.29
1014.417	3.94
1014.842	1.49
1015.267	0.59
1015.691	2.09
1016.116	2.89
1016.541	4.84
1016.965	2.24
1017.39	-0.46
1017.814	-3.41
1018.239	0.19
1018.663	-6.36
1019.088	-3.76
1019.512	3.14
1019.937	-2.11
1020.361	2.04
1020.785	-0.91
1021.21	-1.11
1021.634	-3.11
1022.058	-1.41
1022.483	-3.41
1022.907	-2.26
1023.331	-1.51
1023.755	0.59
1024.179	2.84
1024.604	5.54
1025.028	1.64
1025.452	1.69
1025.876	1.59
1026.3	-1.31
1026.724	-4.71
1027.148	-0.56
1027.572	0.74
1027.996	2.14
1028.42	1.34
1028.843	0.14
1029.267	-4.61
1029.691	3.14
1030.115	-2.31
1030.539	3.69
1030.962	-3.91
1031.386	-0.86
1031.81	-0.06
1032.233	1.04
1032.657	-2.91
1033.08	-0.61
1033.504	-3.31
1033.927	-0.36
1034.351	-3.01
1034.774	-0.11
1035.198	-3.16
1035.621	0.29
1036.045	-1.81
1036.468	2.89
1036.891	2.99
1037.315	3.74
1037.738	0.34
1038.161	-0.26
1038.584	-2.31
1039.008	-6.56
1039.431	-3.51
1039.854	-8.01
1040.277	1.59
1040.7	0.34
1041.123	-2.86
1041.546	1.34
1041.969	-0.31
1042.392	1.54
1042.815	-2.01
1043.238	-5.16
1043.661	-1.41
1044.084	-2.41
1044.507	-4.71
1044.93	0.99
1045.352	-3.41
1045.775	3.24
1046.198	4.64
1046.621	0.74
1047.043	-6.61
1047.466	0.09
1047.889	1.74
1048.311	5.64
1048.734	-2.91
1049.156	-0.86
1049.579	-2.66
1050.001	-2.86
1050.424	-2.01
1050.846	-2.56
1051.269	-5.51
1051.691	-2.91
1052.113	-1.16
1052.536	0.64
1052.958	-5.06
1053.38	0.84
1053.802	-0.06
1054.225	0.79
1054.647	0.14
1055.069	-1.96
1055.491	-1.11
1055.913	-1.16
1056.335	-5.91
1056.757	-3.11
1057.179	-4.46
1057.601	-4.31
1058.023	-0.06
1058.445	-6.76
1058.867	0.04
1059.289	-0.31
1059.711	-4.76
1060.133	2.29
1060.555	1.59
1060.976	-0.01
1061.398	-2.66
1061.82	-0.66
1062.241	-2.16
1062.663	-0.91
1063.085	-0.01
1063.506	-6.21
1063.928	-2.61
1064.35	0.14
1064.771	-3.16
1065.193	-8.06
1065.614	-3.91
1066.035	-0.91
1066.457	2.14
1066.878	-1.36
1067.3	-1.86
1067.721	3.19
1068.142	4.24
1068.564	5.04
1068.985	2.29
1069.406	-7.16
1069.827	-2.46
1070.248	-1.71
1070.67	-1.66
1071.091	-7.66
1071.512	-2.31
1071.933	-7.21
1072.354	-6.71
1072.775	-4.01
1073.196	6.34
1073.617	-4.11
1074.038	-3.26
1074.459	-5.56
1074.88	-6.61
1075.3	-6.01
1075.721	1.69
1076.142	-0.86
1076.563	-9.81
1076.983	-2.66
1077.404	-6.81
1077.825	-1.76
1078.246	-3.91
1078.666	-4.41
1079.087	-0.51
1079.507	-1.21
1079.928	-0.01
1080.348	-4.36
1080.769	-2.71
1081.189	-7.36
1081.61	-5.51
1082.03	-0.76
1082.451	-3.86
1082.871	-6.01
1083.291	-6.26
1083.711	-0.56
1084.132	-6.06
1084.552	-6.41
1084.972	-5.81
1085.392	-3.21
1085.813	-4.01
1086.233	-5.76
1086.653	3.14
1087.073	-3.66
1087.493	-5.66
1087.913	-6.36
1088.333	-3.06
1088.753	0.09
1089.173	-0.11
1089.593	1.64
1090.013	-4.61
1090.433	-6.56
1090.852	4.34
1091.272	-7.81
1091.692	-0.86
1092.112	-3.61
1092.531	-1.86
1092.951	-3.46
1093.371	-2.91
1093.79	-3.46
1094.21	-1.26
1094.63	-1.56
1095.049	-1.11
1095.469	-8.26
1095.888	0.59
1096.308	-0.66
1096.727	-4.66
1097.146	-5.61
1097.566	-1.96
1097.985	-3.61
1098.405	-1.91
1098.824	-1.71
1099.243	-8.16
1099.662	-0.76
1100.082	-4.46
1100.501	-3.01
1100.92	3.69
1101.339	2.44
1101.758	2.24
