Data from MSPlasma+Separation6_Subt14_10-15-15-335.txt Node
Date: Fri Jul 21 10:15:15 EDT 2017
User: Ender
Spectrometer: HR+D1039
Trigger mode: 0
Integration Time (sec): 6.430000E-3
Scans to average: 20
Electric dark correction enabled: true
Nonlinearity correction enabled: false
Boxcar width: 0
XAxis mode: Wavelengths
Number of Pixels in Spectrum: 2048
>>>>>Begin Spectral Data<<<<<
187.836	-3.19
188.309	-3.19
188.782	-3.19
189.255	1.66
189.728	2.16
190.201	-1.44
190.674	-2.09
191.147	2.96
191.619	1.46
192.092	0.26
192.565	-1.89
193.038	-0.69
193.511	1.46
193.984	1.41
194.456	2.31
194.929	-0.54
195.402	-4.84
195.874	1.06
196.347	2.56
196.82	2.96
197.292	-2.19
197.765	-1.24
198.237	-3.84
198.71	-4.64
199.182	2.26
199.655	6.76
200.127	2.26
200.6	-1.24
201.072	6.01
201.544	4.11
202.017	4.86
202.489	2.56
202.961	-1.49
203.433	0.76
203.906	2.26
204.378	5.21
204.85	6.16
205.322	-0.09
205.794	7.86
206.266	3.06
206.739	9.51
207.211	1.71
207.683	3.56
208.155	4.16
208.627	2.26
209.099	7.36
209.57	2.26
210.042	3.41
210.514	7.41
210.986	14.76
211.458	22.91
211.93	15.16
212.402	6.91
212.873	1.06
213.345	-1.79
213.817	4.06
214.288	0.11
214.76	6.61
215.232	3.81
215.703	3.11
216.175	8.06
216.646	4.11
217.118	2.56
217.589	1.86
218.061	4.51
218.532	6.01
219.004	7.96
219.475	15.56
219.946	28.51
220.418	37.96
220.889	24.66
221.36	15.76
221.832	11.16
222.303	9.41
222.774	7.51
223.245	5.31
223.717	6.01
224.188	4.86
224.659	9.06
225.13	5.36
225.601	5.21
226.072	3.76
226.543	8.86
227.014	11.71
227.485	9.56
227.956	12.11
228.427	13.51
228.898	15.66
229.369	18.01
229.839	12.46
230.31	14.46
230.781	16.66
231.252	20.26
231.722	26.01
232.193	32.81
232.664	36.76
233.135	51.01
233.605	60.96
234.076	44.56
234.546	38.06
235.017	47.06
235.487	40.91
235.958	45.41
236.428	59.91
236.899	101.16
237.369	113.21
237.84	85.76
238.31	104.81
238.78	101.91
239.251	102.66
239.721	104.16
240.191	78.66
240.662	46.11
241.132	42.21
241.602	50.81
242.072	70.06
242.542	85.66
243.013	62.11
243.483	56.76
243.953	41.31
244.423	38.01
244.893	44.51
245.363	54.91
245.833	55.11
246.303	57.31
246.773	79.16
247.243	76.76
247.712	92.21
248.182	103.56
248.652	105.61
249.122	160.81
249.592	298.41
250.061	450.36
250.531	718.36
251.001	544.71
251.471	452.06
251.94	346.01
252.41	187.66
252.879	123.51
253.349	102.81
253.818	82.51
254.288	71.96
254.757	71.31
255.227	100.06
255.696	80.21
256.166	71.11
256.635	76.46
257.105	96.61
257.574	122.46
258.043	123.66
258.513	222.26
258.982	282.66
259.451	196.76
259.92	197.16
260.389	183.81
260.859	133.96
261.328	160.76
261.797	229.56
262.266	200.56
262.735	94.41
263.204	65.06
263.673	58.61
264.142	53.21
264.611	56.46
265.08	57.61
265.549	62.26
266.018	55.36
266.487	53.06
266.955	56.61
267.424	60.66
267.893	64.81
268.362	66.01
268.83	60.46
269.299	66.81
269.768	78.11
270.236	88.81
270.705	92.41
271.174	92.26
271.642	100.51
272.111	113.61
272.579	185.86
273.048	274.36
273.516	356.11
273.985	359.31
274.453	271.86
274.922	171.11
275.39	108.46
275.858	102.36
276.327	88.06
276.795	87.81
277.263	99.46
277.731	130.56
278.2	243.06
278.668	314.21
279.136	237.96
279.604	161.01
280.072	103.26
280.54	92.01
281.008	94.41
281.477	92.51
281.945	92.36
282.413	99.36
282.881	101.71
283.348	97.61
283.816	100.56
284.284	112.41
284.752	106.21
285.22	108.06
285.688	119.36
286.156	199.01
286.623	512.36
287.091	1005.66
287.559	523.26
288.026	207.61
288.494	134.61
288.962	113.41
289.429	110.01
289.897	103.11
290.364	97.66
290.832	99.71
291.3	100.21
291.767	104.11
292.234	109.01
292.702	107.36
293.169	117.06
293.637	133.06
294.104	121.21
294.571	112.11
295.039	113.06
295.506	109.51
295.973	124.46
296.44	114.76
296.908	125.46
297.375	143.86
297.842	142.46
298.309	123.56
298.776	124.16
299.243	127.76
299.71	119.71
300.177	122.81
300.644	135.16
301.111	148.01
301.578	138.91
302.045	128.01
302.512	124.96
302.979	133.01
303.446	137.06
303.913	138.76
304.379	151.91
304.846	165.66
305.313	181.46
305.78	209.31
306.246	249.76
306.713	267.86
307.18	237.06
307.646	258.46
308.113	227.56
308.579	186.16
309.046	180.41
309.512	181.26
309.979	165.41
310.445	158.86
310.912	163.86
311.378	165.51
311.845	165.31
312.311	157.76
312.777	160.51
313.244	168.21
313.71	170.06
314.176	189.11
314.642	214.61
315.109	246.21
315.575	234.71
316.041	210.26
316.507	205.71
316.973	224.16
317.439	220.91
317.905	244.36
318.371	236.31
318.837	225.06
319.303	239.66
319.769	218.96
320.235	239.16
320.701	274.91
321.167	289.26
321.633	346.26
322.099	479.06
322.564	641.66
323.03	501.56
323.496	356.36
323.962	338.71
324.427	317.96
324.893	277.96
325.359	268.16
325.824	234.76
326.29	247.16
326.755	250.06
327.221	254.56
327.686	263.71
328.152	241.26
328.617	232.91
329.083	234.56
329.548	247.06
330.014	254.16
330.479	273.81
330.944	316.06
331.41	358.21
331.875	349.21
332.34	355.31
332.805	407.96
333.271	518.46
333.736	680.81
334.201	617.21
334.666	456.86
335.131	520.16
335.596	416.66
336.061	433.51
336.526	445.86
336.991	394.01
337.456	422.51
337.921	337.31
338.386	278.96
338.851	256.86
339.316	242.26
339.781	234.21
340.246	239.46
340.711	242.01
341.175	242.21
341.64	252.46
342.105	255.26
342.569	266.61
343.034	285.26
343.499	292.91
343.963	280.71
344.428	278.26
344.893	287.16
345.357	293.46
345.822	285.41
346.286	293.11
346.751	305.61
347.215	301.71
347.679	310.81
348.144	332.16
348.608	325.71
349.073	344.01
349.537	373.31
350.001	367.06
350.465	341.01
350.93	330.26
351.394	340.31
351.858	338.51
352.322	350.61
352.786	353.51
353.25	350.86
353.715	343.86
354.179	370.26
354.643	382.16
355.107	391.61
355.571	406.41
356.035	419.26
356.498	402.96
356.962	432.21
357.426	422.36
357.89	379.01
358.354	367.51
358.818	363.91
359.281	375.01
359.745	385.36
360.209	382.01
360.673	382.21
361.136	388.26
361.6	397.11
362.064	411.96
362.527	419.56
362.991	418.46
363.454	421.71
363.918	420.31
364.381	419.66
364.845	410.31
365.308	405.81
365.772	405.41
366.235	409.46
366.698	429.36
367.162	511.26
367.625	561.36
368.088	462.46
368.552	426.01
369.015	434.91
369.478	459.31
369.941	469.21
370.404	477.01
370.867	504.01
371.331	508.66
371.794	514.86
372.257	574.56
372.72	596.76
373.183	578.11
373.646	579.71
374.109	576.16
374.572	660.91
375.035	775.06
375.497	601.61
375.96	495.31
376.423	476.61
376.886	472.86
377.349	480.56
377.811	488.36
378.274	490.76
378.737	496.81
379.199	509.51
379.662	522.91
380.125	557.96
380.587	608.76
381.05	647.06
381.512	635.66
381.975	629.96
382.437	620.81
382.9	624.71
383.362	620.26
383.825	665.96
384.287	817.41
384.75	909.51
385.212	806.01
385.674	670.86
386.136	624.11
386.599	616.11
387.061	640.61
387.523	664.41
387.985	665.56
388.447	687.11
388.91	761.66
389.372	922.31
389.834	853.41
390.296	719.11
390.758	733.56
391.22	749.86
391.682	909.71
392.144	1369.06
392.606	1291.81
393.068	782.91
393.529	726.46
393.991	712.26
394.453	693.61
394.915	721.76
395.377	862.76
395.838	1047.21
396.3	771.61
396.762	607.81
397.224	584.96
397.685	574.86
398.147	582.61
398.608	587.31
399.07	599.51
399.531	583.11
399.993	595.61
400.454	603.11
400.916	601.51
401.377	620.71
401.839	624.26
402.3	631.96
402.762	657.61
403.223	713.46
403.684	729.46
404.145	671.91
404.607	660.66
405.068	658.16
405.529	669.96
405.99	681.71
406.451	685.76
406.913	669.71
407.374	681.21
407.835	684.66
408.296	709.56
408.757	705.81
409.218	736.06
409.679	746.06
410.14	757.41
410.601	784.31
411.062	811.06
411.522	930.46
411.983	1011.41
412.444	875.96
412.905	784.36
413.366	785.51
413.826	820.46
414.287	909.56
414.748	1087.71
415.208	1111.61
415.669	928.96
416.13	848.76
416.59	824.41
417.051	852.36
417.511	899.66
417.972	964.76
418.432	1029.06
418.893	1141.91
419.353	1088.61
419.814	845.31
420.274	758.41
420.734	750.16
421.195	799.21
421.655	822.26
422.115	800.76
422.576	773.76
423.036	783.76
423.496	807.01
423.956	852.51
424.416	903.71
424.876	1021.11
425.336	1013.66
425.797	1015.31
426.257	1011.86
426.717	942.41
427.177	883.51
427.637	916.31
428.097	962.11
428.556	1009.26
429.016	1097.71
429.476	1081.76
429.936	1029.51
430.396	1008.21
430.856	1017.41
431.315	1048.51
431.775	1128.31
432.235	1195.41
432.694	1206.81
433.154	1137.11
433.614	1108.16
434.073	1068.61
434.533	971.86
434.993	935.81
435.452	948.61
435.912	936.71
436.371	928.26
436.83	922.46
437.29	940.71
437.749	897.31
438.209	886.71
438.668	903.21
439.127	906.81
439.587	890.51
440.046	862.91
440.505	883.16
440.964	876.36
441.424	904.76
441.883	914.66
442.342	866.61
442.801	842.71
443.26	860.21
443.719	852.91
444.178	843.96
444.637	861.66
445.096	862.01
445.555	877.56
446.014	870.11
446.473	848.71
446.932	846.31
447.391	868.26
447.849	881.26
448.308	867.96
448.767	891.76
449.226	910.16
449.685	914.16
450.143	965.11
450.602	957.16
451.061	913.96
451.519	922.71
451.978	943.11
452.436	967.66
452.895	935.01
453.353	906.11
453.812	919.66
454.27	913.66
454.729	887.71
455.187	894.86
455.646	900.26
456.104	904.06
456.562	894.56
457.021	897.21
457.479	865.36
457.937	890.96
458.395	909.11
458.854	900.91
459.312	894.91
459.77	903.26
460.228	904.21
460.686	920.56
461.144	911.81
461.602	906.21
462.06	908.71
462.518	933.46
462.976	930.11
463.434	939.41
463.892	954.16
464.35	974.06
464.808	979.16
465.266	1000.36
465.724	1004.81
466.181	1012.11
466.639	1008.51
467.097	1048.31
467.555	1076.01
468.012	1073.86
468.47	1085.16
468.928	1115.46
469.385	1141.96
469.843	1161.16
470.3	1156.56
470.758	1187.61
471.215	1213.06
471.673	1225.01
472.13	1272.96
472.588	1290.91
473.045	1282.51
473.503	1301.06
473.96	1364.86
474.417	1387.01
474.875	1440.66
475.332	1497.81
475.789	1516.31
476.246	1558.91
476.704	1617.06
477.161	1671.46
477.618	1721.31
478.075	1805.91
478.532	1937.91
478.989	2075.91
479.446	2293.56
479.903	2406.26
480.36	2637.61
480.817	2799.31
481.274	2990.51
481.731	3271.81
482.188	3529.61
482.645	3783.71
483.102	4017.36
483.558	4299.01
484.015	4503.41
484.472	4512.06
484.929	4378.26
485.385	4189.06
485.842	4091.01
486.299	3880.91
486.755	3543.06
487.212	3163.01
487.668	2861.06
488.125	2667.21
488.582	2469.96
489.038	2371.31
489.494	2307.41
489.951	2246.11
490.407	2185.31
490.864	2162.71
491.32	2114.81
491.776	2091.46
492.233	2084.56
492.689	2051.21
493.145	2032.86
493.602	2011.36
494.058	2064.16
494.514	2084.86
494.97	2095.91
495.426	2116.21
495.882	2130.01
496.338	2138.46
496.794	2207.21
497.251	2215.96
497.707	2214.41
498.163	2231.91
498.618	2220.31
499.074	2231.31
499.53	2266.31
499.986	2313.36
500.442	2340.71
500.898	2341.36
501.354	2374.61
501.809	2385.96
502.265	2423.91
502.721	2540.51
503.177	2592.06
503.632	2469.66
504.088	2498.96
504.543	2705.71
504.999	2550.66
505.455	2285.76
505.91	2177.41
506.366	2160.26
506.821	2148.66
507.277	2137.26
507.732	2126.46
508.187	2131.61
508.643	2153.71
509.098	2159.91
509.553	2191.31
510.009	2209.36
510.464	2252.81
510.919	2270.21
511.375	2298.51
511.83	2341.01
512.285	2379.41
512.74	2429.21
513.195	2458.91
513.65	2502.06
514.105	2534.86
514.56	2552.61
515.015	2592.06
515.47	2632.71
515.925	2616.26
516.38	2598.76
516.835	2596.21
517.29	2589.81
517.745	2612.21
518.2	2564.16
518.655	2487.76
519.109	2458.61
519.564	2415.96
520.019	2424.21
520.474	2384.46
520.928	2360.71
521.383	2362.71
521.838	2355.76
522.292	2316.16
522.747	2283.61
523.201	2284.61
523.656	2254.26
524.11	2254.66
524.565	2235.36
525.019	2251.11
525.474	2262.86
525.928	2256.61
526.382	2236.76
526.837	2219.86
527.291	2229.16
527.745	2215.11
528.2	2210.51
528.654	2203.26
529.108	2203.76
529.562	2207.76
530.016	2207.41
530.47	2212.66
530.925	2206.21
531.379	2225.56
531.833	2241.31
532.287	2222.61
532.741	2209.31
533.195	2215.31
533.649	2220.36
534.103	2224.31
534.556	2203.81
535.01	2239.21
535.464	2224.46
535.918	2235.36
536.372	2235.56
536.826	2233.06
537.279	2214.51
537.733	2209.91
538.187	2227.26
538.64	2221.61
539.094	2232.11
539.548	2264.31
540.001	2263.76
540.455	2266.66
540.908	2284.11
541.362	2308.71
541.815	2322.86
542.269	2372.51
542.722	2368.71
543.175	2395.66
543.629	2399.91
544.082	2435.81
544.536	2447.46
544.989	2448.71
545.442	2471.16
545.895	2461.21
546.349	2464.76
546.802	2472.46
547.255	2471.61
547.708	2489.86
548.161	2511.36
548.614	2515.26
549.067	2539.26
549.52	2511.01
549.973	2476.96
550.426	2468.11
550.879	2438.96
551.332	2445.96
551.785	2468.01
552.238	2486.31
552.691	2474.61
553.144	2528.36
553.596	2566.51
554.049	2600.46
554.502	2654.11
554.955	2702.11
555.407	2745.06
555.86	2704.96
556.313	2673.76
556.765	2643.61
557.218	2615.01
557.67	2612.96
558.123	2576.11
558.576	2565.26
559.028	2554.76
559.48	2588.71
559.933	2566.41
560.385	2498.96
560.838	2414.66
561.29	2344.76
561.742	2330.71
562.195	2282.41
562.647	2274.71
563.099	2263.96
563.551	2262.76
564.004	2281.46
564.456	2260.96
564.908	2217.41
565.36	2168.86
565.812	2128.26
566.264	2116.31
566.716	2081.36
567.168	2042.56
567.62	2054.01
568.072	2032.56
568.524	2016.36
568.976	1999.81
569.428	1981.06
569.88	1985.81
570.332	1991.96
570.784	1988.31
571.235	1987.76
571.687	2006.11
572.139	2007.81
572.59	2010.91
573.042	2038.11
573.494	2016.86
573.945	1997.21
574.397	1952.26
574.849	1949.46
575.3	1953.86
575.752	1929.31
576.203	1916.11
576.655	1936.71
577.106	1898.61
577.557	1880.96
578.009	1882.21
578.46	1887.61
578.912	1869.66
579.363	1880.21
579.814	1877.61
580.265	1866.96
580.717	1877.01
581.168	1875.71
581.619	1877.81
582.07	1900.46
582.521	1891.56
582.972	1898.21
583.423	1907.31
583.875	1940.66
584.326	2044.51
584.777	2214.06
585.227	2401.81
585.678	2564.46
586.129	2605.71
586.58	2653.61
587.031	2680.11
587.482	2854.16
587.933	3294.56
588.384	3059.96
588.834	2553.01
589.285	2194.81
589.736	2142.26
590.186	2145.76
590.637	2126.16
591.088	2064.06
591.538	2044.41
591.989	2020.81
592.439	2009.91
592.89	2008.21
593.34	2009.16
593.791	2011.51
594.241	2011.36
594.692	2040.26
595.142	2014.61
595.593	1982.46
596.043	1986.81
596.493	2031.81
596.943	2055.76
597.394	2061.56
597.844	2021.51
598.294	2060.36
598.744	2129.46
599.195	2224.96
599.645	2351.66
600.095	2475.56
600.545	2590.91
600.995	2701.96
601.445	2811.61
601.895	2949.86
602.345	3033.46
602.795	2984.31
603.245	2842.06
603.695	2672.51
604.145	2529.96
604.594	2403.36
605.044	2288.06
605.494	2144.56
605.944	2043.61
606.393	1991.66
606.843	1966.61
607.293	1971.11
607.743	1963.31
608.192	1982.36
608.642	1982.81
609.091	1992.01
609.541	1981.41
609.99	1979.31
610.44	1935.86
610.889	1911.41
611.339	1890.36
611.788	1874.61
612.238	1899.31
612.687	1907.41
613.136	1945.86
613.586	1973.81
614.035	1965.31
614.484	2001.56
614.933	1998.66
615.383	1957.66
615.832	1895.96
616.281	1860.51
616.73	1820.21
617.179	1749.46
617.628	1709.31
618.077	1690.46
618.526	1667.01
618.975	1650.41
619.424	1629.16
619.873	1633.46
620.322	1617.36
620.771	1619.16
621.22	1594.96
621.669	1557.46
622.118	1545.61
622.567	1535.26
623.015	1503.36
623.464	1495.46
623.913	1477.71
624.361	1481.91
624.81	1483.56
625.259	1481.21
625.707	1460.26
626.156	1476.56
626.604	1483.71
627.053	1488.36
627.501	1483.11
627.95	1486.96
628.398	1515.31
628.847	1503.46
629.295	1503.66
629.744	1504.11
630.192	1542.31
630.64	1647.01
631.089	1801.61
631.537	1873.41
631.985	1865.46
632.433	1955.96
632.881	1946.91
633.33	2317.76
633.778	2505.46
634.226	1800.26
634.674	1681.26
635.122	1658.36
635.57	1693.71
636.018	1955.36
636.466	1622.76
636.914	1446.91
637.362	1443.01
637.81	1466.81
638.258	1506.26
638.705	1520.31
639.153	1569.36
639.601	1570.46
640.049	1597.81
640.497	1655.46
640.944	1700.96
641.392	1609.86
641.84	1523.06
642.287	1459.16
642.735	1435.26
643.182	1424.51
643.63	1421.46
644.078	1415.61
644.525	1441.86
644.973	1480.56
645.42	1496.51
645.867	1514.36
646.315	1547.51
646.762	1591.06
647.21	1639.06
647.657	1725.41
648.104	1782.66
648.551	1842.01
648.999	1985.46
649.446	2171.41
649.893	2428.46
650.34	2853.01
650.787	3508.91
651.234	4544.36
651.682	6317.91
652.129	9005.51
652.576	12860.91
653.023	15537.56
653.47	15540.76
653.917	15540.81
654.363	15540.71
654.81	15537.71
655.257	15538.36
655.704	15517.21
656.151	9754.26
656.598	6366.46
657.044	4544.11
657.491	3556.71
657.938	2886.56
658.385	2464.31
658.831	2176.51
659.278	1943.56
659.724	1798.56
660.171	1673.61
660.618	1557.41
661.064	1476.21
661.511	1432.76
661.957	1383.81
662.404	1345.96
662.85	1342.46
663.296	1318.46
663.743	1290.26
664.189	1282.66
664.635	1275.36
665.082	1242.56
665.528	1236.56
665.974	1211.01
666.42	1206.31
666.867	1215.76
667.313	1220.31
667.759	1268.31
668.205	1251.96
668.651	1265.11
669.097	1234.01
669.543	1343.21
669.989	1262.16
670.435	1131.21
670.881	1126.31
671.327	1167.16
671.773	1242.71
672.219	1347.16
672.665	1436.06
673.11	1483.66
673.556	1500.86
674.002	1530.46
674.448	1543.36
674.893	1320.06
675.339	1147.11
675.785	1061.96
676.23	1007.91
676.676	973.51
677.122	945.66
677.567	924.86
678.013	888.96
678.458	888.56
678.904	880.81
679.349	874.56
679.794	874.16
680.24	872.36
680.685	866.96
681.131	863.21
681.576	871.56
682.021	871.11
682.466	883.21
682.912	899.41
683.357	937.81
683.802	1016.56
684.247	1107.36
684.692	1174.71
685.137	1220.51
685.583	1246.01
686.028	1314.21
686.473	1247.36
686.918	1073.76
687.363	980.96
687.807	935.11
688.252	888.51
688.697	860.51
689.142	839.71
689.587	843.31
690.032	865.56
690.477	888.96
690.921	935.36
691.366	983.31
691.811	1020.51
692.255	1108.96
692.7	1357.96
693.145	1963.46
693.589	2984.66
694.034	3540.31
694.478	3754.11
694.923	3425.16
695.367	4856.81
695.812	2943.31
696.256	1246.21
696.701	925.61
697.145	853.26
697.59	822.26
698.034	811.36
698.478	808.81
698.922	819.36
699.367	846.66
699.811	880.86
700.255	958.61
700.699	1044.26
701.143	1131.11
701.588	1181.46
702.032	1239.51
702.476	1269.61
702.92	1343.81
703.364	1777.11
703.808	2752.01
704.252	3402.76
704.696	3571.06
705.14	3355.91
705.584	4613.51
706.027	2552.16
706.471	1280.71
706.915	959.71
707.359	851.91
707.803	794.86
708.246	773.16
708.69	767.11
709.134	765.41
709.577	768.06
710.021	765.91
710.465	760.36
710.908	766.26
711.352	790.61
711.795	880.46
712.239	951.86
712.682	971.51
713.126	961.11
713.569	1075.51
714.012	882.31
714.456	778.51
714.899	729.26
715.342	687.41
715.786	654.81
716.229	641.71
716.672	627.16
717.115	622.56
717.558	632.56
718.002	654.26
718.445	679.06
718.888	722.46
719.331	729.96
719.774	743.21
720.217	725.86
720.66	680.31
721.103	656.31
721.546	622.16
721.989	605.51
722.432	594.86
722.874	599.26
723.317	607.41
723.76	656.71
724.203	811.81
724.645	1078.51
725.088	1256.26
725.531	1223.51
725.974	1331.36
726.416	1213.61
726.859	753.96
727.301	618.36
727.744	584.66
728.187	586.21
728.629	599.26
729.071	634.71
729.514	661.81
729.956	681.01
730.399	688.76
730.841	687.11
731.283	673.76
731.726	662.26
732.168	661.16
732.61	706.11
733.053	757.66
733.495	835.96
733.937	928.86
734.379	1095.41
734.821	1401.86
735.263	2253.91
735.705	4053.16
736.148	5902.61
736.59	5812.36
737.032	6304.66
737.474	5184.66
737.916	1986.06
738.357	1054.06
738.799	809.66
739.241	749.96
739.683	751.71
740.125	763.91
740.567	766.31
741.008	805.31
741.45	830.06
741.892	860.86
742.334	865.81
742.775	859.36
743.217	814.91
743.658	706.86
744.1	716.86
744.542	795.66
744.983	825.46
745.425	852.11
745.866	851.66
746.307	757.06
746.749	827.91
747.19	1210.31
747.632	2386.51
748.073	4437.91
748.514	6043.11
748.956	7999.56
749.397	9321.61
749.838	6399.51
750.279	6087.81
750.72	3141.96
751.162	1325.41
751.603	764.91
752.044	613.16
752.485	548.36
752.926	513.76
753.367	491.41
753.808	478.71
754.249	469.46
754.69	464.71
755.131	464.56
755.572	459.51
756.013	462.91
756.453	463.56
756.894	473.86
757.335	469.81
757.776	474.51
758.216	498.26
758.657	519.91
759.098	582.46
759.538	704.41
759.979	1031.66
760.42	2089.06
760.86	5374.91
761.301	10960.01
761.741	12685.36
762.182	14389.26
762.622	9365.76
763.063	3391.21
763.503	1479.86
763.943	1097.96
764.384	1151.81
764.824	1083.11
765.264	1072.96
765.705	774.56
766.145	569.01
766.585	511.86
767.025	540.46
767.465	686.86
767.906	824.51
768.346	857.71
768.786	899.16
769.226	955.21
769.666	1699.71
770.106	3701.56
770.546	5182.91
770.986	5823.86
771.426	4359.61
771.866	1828.01
772.306	837.81
772.745	530.81
773.185	460.36
773.625	452.86
774.065	524.71
774.505	856.71
774.944	1685.36
775.384	2512.31
775.824	2857.51
776.263	2321.86
776.703	1155.46
777.142	591.26
777.582	411.91
778.021	369.61
778.461	354.01
778.9	340.46
779.34	317.36
779.779	303.76
780.219	294.61
780.658	286.01
781.097	289.21
781.537	277.56
781.976	280.81
782.415	274.86
782.855	279.16
783.294	278.11
783.733	268.61
784.172	271.71
784.611	272.66
785.05	275.86
785.489	287.81
785.928	292.41
786.367	304.71
786.806	319.61
787.245	341.91
787.684	353.51
788.123	354.51
788.562	332.86
789.001	326.56
789.44	312.61
789.879	315.11
790.317	321.36
790.756	332.76
791.195	387.01
791.634	531.06
792.072	958.71
792.511	2366.06
792.95	4291.66
793.388	5130.26
793.827	3301.31
794.265	1513.71
794.704	725.16
795.142	445.66
795.581	369.01
796.019	329.61
796.458	330.86
796.896	341.71
797.334	398.66
797.773	534.46
798.211	1035.96
798.649	2145.31
799.087	3594.91
799.526	5039.66
799.964	5159.86
800.402	3511.36
800.84	1587.66
801.278	784.56
801.716	473.76
802.154	388.61
802.592	372.01
803.03	369.11
803.468	371.36
803.906	375.61
804.344	367.36
804.782	359.86
805.22	359.01
805.658	370.61
806.096	399.41
806.533	444.06
806.971	574.26
807.409	823.46
807.847	1669.61
808.284	4296.41
808.722	7388.31
809.16	10398.96
809.597	13971.51
810.035	15542.71
810.472	11082.01
810.91	4749.11
811.347	2103.16
811.785	1001.66
812.222	624.21
812.66	484.51
813.097	413.36
813.535	359.76
813.972	321.91
814.409	305.26
814.846	290.11
815.284	276.01
815.721	275.66
816.158	300.36
816.595	381.96
817.032	462.41
817.47	418.91
817.907	331.76
818.344	295.21
818.781	281.91
819.218	333.31
819.655	466.86
820.092	600.81
820.529	552.91
820.966	458.16
821.403	335.86
821.839	299.36
822.276	319.81
822.713	363.11
823.15	349.41
823.587	387.76
824.023	697.36
824.46	1747.56
824.897	3020.51
825.333	2310.41
825.77	1059.81
826.206	558.51
826.643	326.71
827.08	251.91
827.516	222.51
827.953	206.46
828.389	196.11
828.825	186.96
829.262	173.96
829.698	171.01
830.135	165.16
830.571	165.21
831.007	162.11
831.443	166.16
831.88	168.41
832.316	178.66
832.752	174.96
833.188	172.81
833.624	172.16
834.06	177.71
834.497	182.16
834.933	181.21
835.369	197.81
835.805	209.31
836.241	221.51
836.677	239.61
837.112	276.56
837.548	340.31
837.984	510.66
838.42	1099.76
838.856	3083.66
839.292	5988.66
839.727	4379.56
840.163	3001.56
840.599	4584.71
841.034	6922.41
841.47	3413.01
841.906	1675.81
842.341	940.01
842.777	797.91
843.212	925.91
843.648	547.01
844.083	348.61
844.519	244.51
844.954	197.56
845.39	171.21
845.825	160.76
846.261	156.86
846.696	150.61
847.131	142.51
847.566	147.66
848.002	153.41
848.437	161.96
848.872	161.91
849.307	211.21
849.742	391.51
850.177	1004.16
850.613	2126.96
851.048	1491.61
851.483	692.16
851.918	387.51
852.353	231.81
852.788	180.36
853.223	149.11
853.657	130.21
854.092	125.76
854.527	120.71
854.962	126.66
855.397	135.81
855.832	124.21
856.266	108.56
856.701	111.06
857.136	109.86
857.57	134.71
858.005	155.46
858.44	133.36
858.874	130.56
859.309	136.61
859.743	128.46
860.178	126.66
860.612	140.26
861.047	175.61
861.481	223.91
861.915	155.66
862.35	123.36
862.784	109.71
863.218	103.16
863.653	109.51
864.087	133.51
864.521	179.56
864.955	294.46
865.39	491.41
865.824	350.86
866.258	411.76
866.692	576.56
867.126	419.61
867.56	234.86
867.994	153.71
868.428	140.61
868.862	166.66
869.296	152.91
869.73	183.81
870.164	155.46
870.598	141.61
871.031	101.46
871.465	98.56
871.899	85.76
872.333	76.31
872.766	75.31
873.2	80.56
873.634	77.61
874.067	85.11
874.501	81.71
874.935	86.01
875.368	84.26
875.802	75.71
876.235	70.01
876.669	73.96
877.102	65.91
877.535	63.96
877.969	65.81
878.402	65.91
878.836	66.51
879.269	66.06
879.702	64.21
880.135	69.81
880.569	75.16
881.002	66.51
881.435	65.71
881.868	63.46
882.301	57.21
882.734	59.81
883.167	58.01
883.601	58.26
884.034	56.26
884.467	51.56
884.899	54.36
885.332	50.41
885.765	53.51
886.198	50.66
886.631	53.21
887.064	52.36
887.497	53.06
887.929	53.16
888.362	50.41
888.795	48.86
889.228	56.36
889.66	54.26
890.093	51.16
890.526	52.96
890.958	49.71
891.391	51.11
891.823	46.06
892.256	54.31
892.688	54.21
893.121	45.21
893.553	52.46
893.985	45.71
894.418	47.86
894.85	51.16
895.282	49.66
895.715	44.41
896.147	44.21
896.579	43.81
897.011	46.06
897.444	48.26
897.876	38.41
898.308	40.76
898.74	44.61
899.172	50.06
899.604	42.51
900.036	45.66
900.468	44.01
900.9	48.66
901.332	62.41
901.764	58.31
902.196	56.66
902.628	56.71
903.06	79.86
903.491	83.16
903.923	73.21
904.355	72.56
904.787	81.01
905.218	66.76
905.65	61.96
906.082	57.86
906.513	54.86
906.945	54.61
907.376	56.91
907.808	64.06
908.239	67.51
908.671	75.01
909.102	78.01
909.534	102.71
909.965	195.06
910.397	494.61
910.828	1423.46
911.259	850.51
911.691	464.51
912.122	269.81
912.553	138.76
912.984	79.11
913.415	71.91
913.847	59.86
914.278	53.76
914.709	50.81
915.14	49.16
915.571	53.31
916.002	49.71
916.433	45.66
916.864	48.86
917.295	49.76
917.726	54.26
918.157	71.91
918.587	68.81
919.018	64.11
919.449	61.41
919.88	69.21
920.311	109.51
920.741	296.91
921.172	516.51
921.603	260.26
922.033	163.66
922.464	108.91
922.895	68.36
923.325	54.51
923.756	48.36
924.186	68.21
924.617	112.16
925.047	167.81
925.478	154.26
925.908	107.56
926.338	79.36
926.769	63.21
927.199	51.06
927.629	44.71
928.06	47.16
928.49	45.91
928.92	38.41
929.35	37.91
929.78	28.56
930.21	28.26
930.641	23.16
931.071	28.06
931.501	27.51
931.931	25.26
932.361	25.31
932.791	31.26
933.221	31.81
933.651	48.26
934.08	74.66
934.51	41.81
934.94	35.01
935.37	26.66
935.8	26.06
936.229	22.26
936.659	21.06
937.089	34.11
937.519	50.21
937.948	68.81
938.378	39.31
938.807	28.01
939.237	16.91
939.666	20.81
940.096	16.56
940.525	11.06
940.955	19.11
941.384	17.26
941.814	12.86
942.243	13.66
942.672	13.31
943.102	12.11
943.531	9.86
943.96	11.41
944.39	13.51
944.819	17.46
945.248	13.26
945.677	10.81
946.106	14.01
946.535	13.01
946.964	12.56
947.393	8.86
947.822	10.26
948.251	18.71
948.68	18.06
949.109	13.06
949.538	12.56
949.967	14.91
950.396	10.81
950.825	15.31
951.254	13.16
951.682	5.66
952.111	4.46
952.54	11.01
952.969	13.96
953.397	8.51
953.826	8.31
954.254	13.41
954.683	9.66
955.112	13.21
955.54	9.51
955.969	9.11
956.397	14.86
956.826	11.16
957.254	10.01
957.682	12.56
958.111	9.51
958.539	19.61
958.967	12.21
959.396	12.86
959.824	11.76
960.252	13.91
960.68	14.86
961.109	12.46
961.537	13.56
961.965	5.76
962.393	9.16
962.821	10.01
963.249	13.01
963.677	17.46
964.105	86.66
964.533	148.76
964.961	76.56
965.389	44.11
965.817	24.71
966.245	14.46
966.672	10.61
967.1	9.86
967.528	6.26
967.956	6.06
968.383	12.76
968.811	8.31
969.239	6.51
969.666	5.81
970.094	5.76
970.522	3.86
970.949	13.01
971.377	7.01
971.804	8.31
972.232	5.36
972.659	4.36
973.087	9.16
973.514	6.21
973.941	5.66
974.369	3.11
974.796	6.96
975.223	7.46
975.651	8.21
976.078	6.76
976.505	13.71
976.932	39.56
977.359	41.86
977.786	25.96
978.214	19.66
978.641	8.61
979.068	7.01
979.495	9.36
979.922	8.41
980.349	6.96
980.776	10.96
981.202	5.71
981.629	13.16
982.056	6.01
982.483	4.11
982.91	5.61
983.337	1.76
983.763	2.46
984.19	6.16
984.617	5.36
985.043	10.01
985.47	15.56
985.897	9.66
986.323	10.16
986.75	1.26
987.176	5.61
987.603	5.51
988.029	7.56
988.456	11.01
988.882	2.26
989.308	0.96
989.735	1.61
990.161	4.56
990.587	4.51
991.014	8.06
991.44	5.76
991.866	4.26
992.292	-2.24
992.719	2.36
993.145	11.81
993.571	6.56
993.997	8.76
994.423	8.06
994.849	2.61
995.275	2.61
995.701	9.61
996.127	-3.04
996.553	2.41
996.979	2.91
997.405	6.71
997.83	1.46
998.256	7.96
998.682	3.81
999.108	8.51
999.534	-3.24
999.959	-1.64
1000.385	9.51
1000.811	1.26
1001.236	-0.99
1001.662	1.31
1002.087	9.96
1002.513	7.11
1002.938	0.11
1003.364	3.11
1003.789	7.41
1004.215	8.26
1004.64	3.56
1005.066	5.96
1005.491	7.96
1005.916	6.26
1006.342	7.31
1006.767	6.86
1007.192	8.61
1007.617	6.31
1008.042	3.36
1008.468	2.66
1008.893	7.41
1009.318	10.26
1009.743	14.96
1010.168	28.81
1010.593	24.76
1011.018	10.11
1011.443	5.91
1011.868	11.31
1012.293	7.31
1012.718	3.01
1013.143	1.36
1013.567	6.71
1013.992	6.11
1014.417	8.91
1014.842	4.66
1015.267	0.71
1015.691	4.61
1016.116	5.71
1016.541	6.51
1016.965	1.31
1017.39	2.71
1017.814	-1.59
1018.239	0.91
1018.663	-6.14
1019.088	-2.44
1019.512	4.86
1019.937	-2.49
1020.361	6.31
1020.785	0.91
1021.21	-3.84
1021.634	1.46
1022.058	4.16
1022.483	0.51
1022.907	-0.09
1023.331	2.26
1023.755	-0.99
1024.179	-0.64
1024.604	1.56
1025.028	0.16
1025.452	1.61
1025.876	6.66
1026.3	4.76
1026.724	-1.54
1027.148	3.26
1027.572	6.21
1027.996	2.41
1028.42	1.41
1028.843	-0.64
1029.267	-4.19
1029.691	1.31
1030.115	2.41
1030.539	-0.79
1030.962	-1.84
1031.386	5.41
1031.81	4.66
1032.233	0.31
1032.657	-5.64
1033.08	2.06
1033.504	-0.69
1033.927	-1.44
1034.351	1.01
1034.774	-0.04
1035.198	-2.84
1035.621	2.41
1036.045	4.46
1036.468	3.96
1036.891	-0.74
1037.315	2.31
1037.738	2.86
1038.161	2.01
1038.584	2.61
1039.008	-1.04
1039.431	-0.19
1039.854	-5.89
1040.277	5.76
1040.7	0.01
1041.123	3.81
1041.546	1.06
1041.969	4.81
1042.392	3.71
1042.815	-6.44
1043.238	1.61
1043.661	0.81
1044.084	-1.69
1044.507	-3.29
1044.93	-1.39
1045.352	1.66
1045.775	6.76
1046.198	4.11
1046.621	7.01
1047.043	5.51
1047.466	6.96
1047.889	0.46
1048.311	0.01
1048.734	-4.19
1049.156	-3.24
1049.579	1.21
1050.001	1.71
1050.424	-2.09
1050.846	-1.89
1051.269	-4.44
1051.691	-0.49
1052.113	0.36
1052.536	0.71
1052.958	-4.29
1053.38	0.81
1053.802	1.91
1054.225	3.41
1054.647	4.46
1055.069	0.96
1055.491	5.41
1055.913	-1.59
1056.335	-9.09
1056.757	-1.89
1057.179	-0.34
1057.601	-5.14
1058.023	0.56
1058.445	0.06
1058.867	3.96
1059.289	-1.39
1059.711	-6.34
1060.133	2.41
1060.555	1.96
1060.976	5.06
1061.398	-0.64
1061.82	3.06
1062.241	2.26
1062.663	-3.79
1063.085	0.46
1063.506	-4.54
1063.928	-2.69
1064.35	-0.44
1064.771	1.26
1065.193	0.01
1065.614	-1.94
1066.035	3.41
1066.457	3.21
1066.878	5.56
1067.3	-1.59
1067.721	-3.04
1068.142	3.26
1068.564	1.46
1068.985	2.36
1069.406	-6.04
1069.827	-0.94
1070.248	-0.09
1070.67	-1.89
1071.091	-8.09
1071.512	-0.99
1071.933	1.26
1072.354	-1.04
1072.775	0.11
1073.196	-1.59
1073.617	-5.49
1074.038	-0.39
1074.459	-5.84
1074.88	-3.94
1075.3	-0.49
1075.721	4.66
1076.142	0.41
1076.563	-5.84
1076.983	-3.74
1077.404	-3.94
1077.825	2.46
1078.246	-0.84
1078.666	-5.14
1079.087	-0.34
1079.507	-1.89
1079.928	-3.29
1080.348	-1.74
1080.769	2.11
1081.189	-1.39
1081.61	-6.39
1082.03	0.81
1082.451	2.56
1082.871	-0.89
1083.291	-1.14
1083.711	1.26
1084.132	1.26
1084.552	-3.29
1084.972	-1.74
1085.392	-0.64
1085.813	-1.89
1086.233	-2.64
1086.653	-1.24
1087.073	-2.74
1087.493	-1.54
1087.913	-2.49
1088.333	0.26
1088.753	-2.64
1089.173	0.56
1089.593	1.66
1090.013	0.76
1090.433	-8.69
1090.852	3.61
1091.272	-5.34
1091.692	-1.94
1092.112	-4.79
1092.531	-4.39
1092.951	-2.69
1093.371	1.06
1093.79	-3.19
1094.21	-4.49
1094.63	-3.29
1095.049	-4.09
1095.469	-5.24
1095.888	0.26
1096.308	-0.69
1096.727	-1.19
1097.146	-0.49
1097.566	-0.99
1097.985	-2.04
1098.405	1.96
1098.824	-0.04
1099.243	-0.44
1099.662	0.21
1100.082	-6.34
1100.501	-4.89
1100.92	3.11
1101.339	1.56
1101.758	2.06
