Data from MSPlasma+Separation6_Subt14_10-15-56-051.txt Node
Date: Fri Jul 21 10:15:56 EDT 2017
User: Ender
Spectrometer: HR+D1039
Trigger mode: 0
Integration Time (sec): 2.510000E-3
Scans to average: 20
Electric dark correction enabled: true
Nonlinearity correction enabled: false
Boxcar width: 0
XAxis mode: Wavelengths
Number of Pixels in Spectrum: 2048
>>>>>Begin Spectral Data<<<<<
187.836	-0.62
188.309	-0.62
188.782	-0.62
189.255	0.78
189.728	1.53
190.201	-0.92
190.674	0.38
191.147	-0.77
191.619	0.18
192.092	-1.22
192.565	2.08
193.038	2.48
193.511	1.48
193.984	-1.62
194.456	-0.57
194.929	-0.32
195.402	-5.47
195.874	2.68
196.347	0.78
196.82	2.98
197.292	-0.92
197.765	-0.67
198.237	-1.92
198.71	-5.27
199.182	-0.67
199.655	0.33
200.127	4.38
200.6	0.88
201.072	1.23
201.544	0.08
202.017	1.33
202.489	-0.42
202.961	2.28
203.433	-2.62
203.906	-0.32
204.378	5.23
204.85	0.83
205.322	-2.52
205.794	2.23
206.266	-1.47
206.739	-2.02
207.211	-0.87
207.683	-3.47
208.155	-0.97
208.627	-0.52
209.099	1.62
209.57	5.33
210.042	5.43
210.514	-0.82
210.986	7.03
211.458	5.38
211.93	6.43
212.402	1.33
212.873	-1.32
213.345	-6.07
213.817	3.33
214.288	-3.37
214.76	0.83
215.232	-1.32
215.703	-1.27
216.175	-0.72
216.646	0.93
217.118	3.23
217.589	-4.17
218.061	-4.62
218.532	-3.22
219.004	3.23
219.475	2.53
219.946	7.98
220.418	9.33
220.889	7.38
221.36	3.98
221.832	5.83
222.303	-0.32
222.774	-0.37
223.245	-1.12
223.717	-1.37
224.188	2.48
224.659	1.88
225.13	-2.12
225.601	1.08
226.072	-1.72
226.543	2.38
227.014	-0.62
227.485	1.48
227.956	0.78
228.427	6.63
228.898	5.03
229.369	2.88
229.839	5.38
230.31	-1.12
230.781	3.83
231.252	7.23
231.722	8.33
232.193	12.68
232.664	10.48
233.135	20.43
233.605	22.93
234.076	20.38
234.546	12.18
235.017	19.88
235.487	15.23
235.958	12.63
236.428	23.88
236.899	36.08
237.369	44.68
237.84	33.23
238.31	40.12
238.78	34.88
239.251	40.23
239.721	35.73
240.191	25.78
240.662	18.13
241.132	11.03
241.602	17.38
242.072	26.18
242.542	31.93
243.013	16.33
243.483	23.43
243.953	10.88
244.423	15.03
244.893	18.33
245.363	21.18
245.833	19.68
246.303	19.83
246.773	30.18
247.243	27.68
247.712	34.73
248.182	37.38
248.652	39.08
249.122	66.33
249.592	127.73
250.061	193.83
250.531	301.38
251.001	230.33
251.471	194.43
251.94	143.78
252.41	77.78
252.879	48.73
253.349	41.78
253.818	32.28
254.288	28.08
254.757	26.53
255.227	43.83
255.696	29.18
256.166	26.23
256.635	31.38
257.105	34.53
257.574	46.28
258.043	48.73
258.513	97.83
258.982	117.98
259.451	87.98
259.92	84.48
260.389	76.73
260.859	55.93
261.328	68.88
261.797	97.53
262.266	82.83
262.735	38.33
263.204	23.93
263.673	22.93
264.142	12.78
264.611	15.63
265.08	19.28
265.549	20.93
266.018	20.83
266.487	17.68
266.955	18.63
267.424	26.33
267.893	25.78
268.362	24.53
268.83	22.48
269.299	24.38
269.768	25.33
270.236	35.73
270.705	38.68
271.174	38.58
271.642	34.62
272.111	46.43
272.579	80.43
273.048	123.98
273.516	161.18
273.985	161.03
274.453	124.03
274.922	69.62
275.39	42.98
275.858	36.83
276.327	34.83
276.795	36.18
277.263	41.43
277.731	52.68
278.2	105.43
278.668	136.03
279.136	108.13
279.604	69.98
280.072	35.93
280.54	37.83
281.008	39.78
281.477	38.08
281.945	38.63
282.413	34.33
282.881	38.43
283.348	37.58
283.816	42.38
284.284	43.03
284.752	43.08
285.22	46.73
285.688	43.38
286.156	83.58
286.623	239.18
287.091	470.58
287.559	244.62
288.026	92.83
288.494	55.53
288.962	46.13
289.429	41.73
289.897	37.78
290.364	32.98
290.832	38.48
291.3	45.18
291.767	40.48
292.234	43.33
292.702	38.33
293.169	47.98
293.637	53.93
294.104	47.43
294.571	43.78
295.039	43.18
295.506	38.78
295.973	48.68
296.44	45.78
296.908	51.23
297.375	58.13
297.842	61.08
298.309	48.33
298.776	46.53
299.243	50.33
299.71	47.48
300.177	45.18
300.644	51.98
301.111	60.03
301.578	54.33
302.045	45.33
302.512	47.78
302.979	49.98
303.446	49.18
303.913	60.58
304.379	61.88
304.846	71.48
305.313	75.12
305.78	91.43
306.246	113.73
306.713	120.58
307.18	102.93
307.646	115.68
308.113	97.73
308.579	74.78
309.046	76.23
309.512	77.83
309.979	66.63
310.445	58.73
310.912	64.73
311.378	66.38
311.845	63.88
312.311	60.53
312.777	61.88
313.244	67.73
313.71	67.28
314.176	78.48
314.642	90.58
315.109	105.78
315.575	99.58
316.041	86.28
316.507	82.43
316.973	98.13
317.439	94.03
317.905	102.53
318.371	98.48
318.837	92.98
319.303	101.23
319.769	90.53
320.235	105.43
320.701	119.88
321.167	128.53
321.633	160.53
322.099	225.33
322.564	301.83
323.03	230.52
323.496	156.93
323.962	147.58
324.427	138.68
324.893	119.83
325.359	110.58
325.824	93.33
326.29	103.23
326.755	105.08
327.221	105.33
327.686	113.28
328.152	99.88
328.617	95.98
329.083	100.63
329.548	108.18
330.014	105.63
330.479	123.88
330.944	141.13
331.41	163.83
331.875	155.68
332.34	155.28
332.805	185.08
333.271	240.73
333.736	316.42
334.201	283.68
334.666	214.93
335.131	234.98
335.596	189.33
336.061	197.43
336.526	200.08
336.991	174.48
337.456	189.08
337.921	149.58
338.386	113.43
338.851	103.83
339.316	96.08
339.781	93.83
340.246	90.53
340.711	95.63
341.175	98.63
341.64	97.73
342.105	104.18
342.569	112.78
343.034	117.68
343.499	114.23
343.963	116.48
344.428	116.68
344.893	119.68
345.357	126.93
345.822	120.53
346.286	122.38
346.751	121.68
347.215	118.18
347.679	128.18
348.144	140.28
348.608	131.38
349.073	138.93
349.537	157.53
350.001	153.58
350.465	148.58
350.93	131.93
351.394	135.78
351.858	135.33
352.322	145.18
352.786	146.23
353.25	140.03
353.715	141.08
354.179	151.78
354.643	155.98
355.107	163.23
355.571	171.48
356.035	176.33
356.498	173.13
356.962	185.58
357.426	177.18
357.89	162.58
358.354	149.23
358.818	144.53
359.281	150.18
359.745	162.23
360.209	160.23
360.673	160.03
361.136	162.78
361.6	159.93
362.064	173.28
362.527	182.73
362.991	177.68
363.454	178.68
363.918	184.48
364.381	174.53
364.845	177.23
365.308	168.18
365.772	168.43
366.235	172.13
366.698	175.58
367.162	222.28
367.625	245.53
368.088	200.98
368.552	173.63
369.015	178.43
369.478	191.12
369.941	199.48
370.404	204.93
370.867	214.33
371.331	223.48
371.794	222.68
372.257	255.88
372.72	268.38
373.183	259.38
373.646	260.12
374.109	255.13
374.572	302.38
375.035	361.68
375.497	263.27
375.96	213.38
376.423	197.33
376.886	195.53
377.349	201.28
377.811	205.03
378.274	211.28
378.737	213.08
379.199	214.28
379.662	223.23
380.125	243.52
380.587	265.48
381.05	280.63
381.512	285.08
381.975	273.28
382.437	266.73
382.9	269.53
383.362	261.78
383.825	289.93
384.287	369.98
384.75	421.23
385.212	363.38
385.674	300.13
386.136	270.38
386.599	263.33
387.061	280.38
387.523	293.23
387.985	291.98
388.447	303.93
388.91	344.78
389.372	422.88
389.834	395.13
390.296	320.53
390.758	319.98
391.22	328.28
391.682	405.62
392.144	630.98
392.606	582.62
393.068	349.58
393.529	308.02
393.991	301.88
394.453	299.43
394.915	317.53
395.377	388.33
395.838	466.38
396.3	333.02
396.762	254.98
397.224	251.38
397.685	240.13
398.147	240.98
398.608	239.98
399.07	245.18
399.531	240.88
399.993	245.08
400.454	249.03
400.916	244.48
401.377	254.88
401.839	258.63
402.3	255.63
402.762	269.27
403.223	301.08
403.684	300.73
404.145	281.53
404.607	275.23
405.068	276.18
405.529	283.83
405.99	285.53
406.451	292.88
406.913	288.38
407.374	285.43
407.835	291.78
408.296	303.58
408.757	303.73
409.218	312.43
409.679	311.08
410.14	318.93
410.601	333.83
411.062	345.88
411.522	404.38
411.983	445.02
412.444	369.08
412.905	322.38
413.366	326.98
413.826	330.62
414.287	370.78
414.748	435.48
415.208	440.63
415.669	371.18
416.13	344.42
416.59	335.98
417.051	352.12
417.511	363.68
417.972	382.52
418.432	414.38
418.893	457.83
419.353	438.88
419.814	340.28
420.274	304.33
420.734	306.33
421.195	324.73
421.655	338.28
422.115	330.53
422.576	324.03
423.036	318.08
423.496	337.13
423.956	348.03
424.416	377.17
424.876	417.83
425.336	413.68
425.797	415.98
426.257	422.88
426.717	399.52
427.177	378.73
427.637	397.23
428.097	416.28
428.556	429.18
429.016	471.88
429.476	469.38
429.936	457.18
430.396	439.38
430.856	447.68
431.315	459.03
431.775	487.13
432.235	508.08
432.694	524.88
433.154	494.43
433.614	474.48
434.073	456.78
434.533	420.33
434.993	397.98
435.452	407.08
435.912	390.28
436.371	388.43
436.83	398.43
437.29	398.83
437.749	378.13
438.209	371.48
438.668	376.92
439.127	374.48
439.587	368.62
440.046	348.88
440.505	355.92
440.964	359.73
441.424	367.73
441.883	371.38
442.342	354.98
442.801	334.28
443.26	356.18
443.719	350.78
444.178	348.23
444.637	347.43
445.096	344.53
445.555	358.73
446.014	353.58
446.473	349.68
446.932	340.33
447.391	350.18
447.849	352.03
448.308	348.78
448.767	360.08
449.226	366.08
449.685	377.33
450.143	392.33
450.602	391.52
451.061	372.73
451.519	378.93
451.978	385.83
452.436	408.03
452.895	388.73
453.353	369.73
453.812	375.58
454.27	366.88
454.729	356.62
455.187	361.53
455.646	362.08
456.104	365.73
456.562	361.48
457.021	359.68
457.479	346.78
457.937	347.23
458.395	357.38
458.854	356.68
459.312	351.28
459.77	359.48
460.228	362.48
460.686	367.62
461.144	366.98
461.602	356.73
462.06	363.08
462.518	371.08
462.976	374.78
463.434	373.68
463.892	387.23
464.35	385.13
464.808	384.88
465.266	395.38
465.724	408.28
466.181	405.98
466.639	400.58
467.097	420.53
467.555	429.33
468.012	431.83
468.47	425.42
468.928	444.88
469.385	461.73
469.843	455.53
470.3	459.03
470.758	471.58
471.215	486.68
471.673	493.38
472.13	505.98
472.588	514.63
473.045	513.33
473.503	528.02
473.96	552.12
474.417	557.18
474.875	581.98
475.332	606.58
475.789	616.67
476.246	641.33
476.704	666.98
477.161	694.62
477.618	708.03
478.075	754.38
478.532	820.53
478.989	886.53
479.446	986.88
479.903	1060.97
480.36	1172.18
480.817	1262.48
481.274	1355.73
481.731	1495.67
482.188	1606.38
482.645	1746.02
483.102	1851.23
483.558	1984.33
484.015	2074.18
484.472	2073.23
484.929	2010.33
485.385	1922.08
485.842	1871.43
486.299	1751.23
486.755	1562.47
487.212	1388.23
487.668	1249.23
488.125	1139.43
488.582	1050.18
489.038	999.13
489.494	956.88
489.951	926.83
490.407	898.98
490.864	887.03
491.32	858.03
491.776	844.68
492.233	842.27
492.689	827.13
493.145	822.48
493.602	814.18
494.058	831.18
494.514	850.78
494.97	844.93
495.426	858.48
495.882	856.67
496.338	866.28
496.794	892.83
497.251	901.62
497.707	901.08
498.163	903.33
498.618	906.73
499.074	913.33
499.53	932.73
499.986	946.13
500.442	963.62
500.898	954.43
501.354	981.23
501.809	980.33
502.265	994.23
502.721	1045.28
503.177	1070.38
503.632	1011.28
504.088	1014.42
504.543	1125.12
504.999	1029.38
505.455	911.63
505.91	852.43
506.366	857.53
506.821	845.88
507.277	830.93
507.732	841.63
508.187	834.23
508.643	850.83
509.098	849.63
509.553	857.93
510.009	874.53
510.464	893.63
510.919	890.67
511.375	904.08
511.83	918.83
512.285	929.53
512.74	958.27
513.195	958.58
513.65	984.93
514.105	1004.08
514.56	1003.58
515.015	1021.53
515.47	1036.48
515.925	1032.68
516.38	1028.23
516.835	1022.52
517.29	1016.18
517.745	1027.18
518.2	998.23
518.655	971.33
519.109	961.78
519.564	959.23
520.019	951.48
520.474	941.13
520.928	930.73
521.383	924.93
521.838	923.03
522.292	911.18
522.747	906.03
523.201	903.18
523.656	888.88
524.11	890.77
524.565	875.18
525.019	885.58
525.474	887.73
525.928	899.33
526.382	875.33
526.837	872.08
527.291	872.67
527.745	865.62
528.2	870.48
528.654	857.53
529.108	869.73
529.562	866.28
530.016	859.93
530.47	871.63
530.925	868.83
531.379	876.08
531.833	890.18
532.287	879.42
532.741	868.53
533.195	872.28
533.649	870.18
534.103	878.68
534.556	859.83
535.01	879.73
535.464	871.62
535.918	872.73
536.372	881.48
536.826	871.73
537.279	867.03
537.733	862.73
538.187	869.17
538.64	872.73
539.094	872.93
539.548	887.83
540.001	892.88
540.455	898.78
540.908	891.48
541.362	903.48
541.815	920.78
542.269	941.28
542.722	927.68
543.175	945.02
543.629	948.78
544.082	954.48
544.536	964.98
544.989	964.62
545.442	968.12
545.895	970.18
546.349	971.53
546.802	963.33
547.255	971.52
547.708	973.48
548.161	988.42
548.614	981.43
549.067	990.28
549.52	974.48
549.973	971.23
550.426	965.18
550.879	951.92
551.332	952.23
551.785	972.73
552.238	968.83
552.691	976.18
553.144	987.93
553.596	1004.18
554.049	1013.78
554.502	1027.53
554.955	1047.58
555.407	1059.93
555.86	1051.28
556.313	1034.53
556.765	1028.78
557.218	1018.83
557.67	1029.08
558.123	1005.93
558.576	1005.33
559.028	996.27
559.48	1010.98
559.933	1001.68
560.385	976.28
560.838	946.63
561.29	916.52
561.742	919.27
562.195	899.27
562.647	895.78
563.099	900.78
563.551	884.53
564.004	895.08
564.456	884.83
564.908	874.58
565.36	852.58
565.812	847.68
566.264	833.83
566.716	827.18
567.168	812.83
567.62	812.73
568.072	798.23
568.524	791.08
568.976	791.88
569.428	778.38
569.88	777.08
570.332	781.58
570.784	783.38
571.235	778.93
571.687	781.93
572.139	779.48
572.59	790.67
573.042	801.48
573.494	798.83
573.945	789.13
574.397	763.93
574.849	762.83
575.3	775.98
575.752	761.58
576.203	754.28
576.655	758.12
577.106	748.93
577.557	744.48
578.009	740.83
578.46	742.77
578.912	739.12
579.363	745.93
579.814	738.28
580.265	750.33
580.717	745.23
581.168	739.28
581.619	750.43
582.07	756.68
582.521	748.08
582.972	748.53
583.423	755.88
583.875	772.83
584.326	826.88
584.777	903.48
585.227	1002.83
585.678	1065.88
586.129	1083.58
586.58	1113.62
587.031	1114.68
587.482	1184.83
587.933	1389.83
588.384	1273.07
588.834	1034.18
589.285	867.38
589.736	850.88
590.186	848.23
590.637	834.93
591.088	819.58
591.538	811.48
591.989	804.58
592.439	799.68
592.89	792.93
593.34	802.68
593.791	806.23
594.241	809.18
594.692	829.18
595.142	812.13
595.593	803.38
596.043	802.12
596.493	814.93
596.943	828.78
597.394	818.13
597.844	804.83
598.294	818.73
598.744	841.58
599.195	879.63
599.645	932.63
600.095	978.23
600.545	1023.78
600.995	1064.43
601.445	1099.73
601.895	1148.08
602.345	1172.53
602.795	1159.83
603.245	1102.12
603.695	1038.97
604.145	977.23
604.594	949.98
605.044	888.42
605.494	839.83
605.944	801.23
606.393	793.58
606.843	783.73
607.293	781.98
607.743	777.38
608.192	784.88
608.642	795.93
609.091	789.33
609.541	790.83
609.99	784.43
610.44	767.62
610.889	766.98
611.339	755.43
611.788	749.63
612.238	763.33
612.687	778.03
613.136	786.43
613.586	802.88
614.035	796.38
614.484	813.83
614.933	820.83
615.383	797.33
615.832	763.93
616.281	750.73
616.73	726.03
617.179	706.48
617.628	689.53
618.077	682.68
618.526	675.78
618.975	669.98
619.424	653.88
619.873	659.13
620.322	648.48
620.771	652.08
621.22	646.08
621.669	634.03
622.118	633.53
622.567	622.38
623.015	610.48
623.464	608.83
623.913	603.38
624.361	599.78
624.81	599.73
625.259	599.93
625.707	587.18
626.156	592.83
626.604	599.03
627.053	603.18
627.501	596.63
627.95	600.28
628.398	607.28
628.847	599.88
629.295	615.13
629.744	616.12
630.192	636.28
630.64	690.38
631.089	780.08
631.537	816.08
631.985	819.73
632.433	851.62
632.881	852.13
633.33	1024.22
633.778	1121.68
634.226	782.28
634.674	703.88
635.122	704.03
635.57	711.38
636.018	838.02
636.466	676.88
636.914	593.42
637.362	590.67
637.81	592.58
638.258	608.88
638.705	615.38
639.153	630.13
639.601	639.03
640.049	650.88
640.497	672.12
640.944	688.78
641.392	652.68
641.84	619.03
642.287	603.28
642.735	590.08
643.182	579.08
643.63	587.63
644.078	592.33
644.525	607.88
644.973	617.73
645.42	631.83
645.867	636.92
646.315	657.68
646.762	678.63
647.21	698.77
647.657	734.88
648.104	770.33
648.551	808.33
648.999	881.12
649.446	984.18
649.893	1128.53
650.34	1332.88
650.787	1663.47
651.234	2197.68
651.682	3092.97
652.129	4515.12
652.576	6552.03
653.023	8789.33
653.47	10218.53
653.917	10985.27
654.363	11329.08
654.81	11966.17
655.257	12005.13
655.704	8158.33
656.151	4724.67
656.598	3043.03
657.044	2156.62
657.491	1661.12
657.938	1335.17
658.385	1121.38
658.831	981.68
659.278	874.93
659.724	787.93
660.171	739.08
660.618	680.98
661.064	630.08
661.511	610.58
661.957	584.38
662.404	571.23
662.85	557.98
663.296	553.73
663.743	539.38
664.189	536.08
664.635	532.13
665.082	516.98
665.528	515.43
665.974	497.38
666.42	502.88
666.867	506.63
667.313	519.08
667.759	553.28
668.205	543.98
668.651	555.53
669.097	530.53
669.543	588.73
669.989	547.53
670.435	465.78
670.881	461.48
671.327	484.48
671.773	510.08
672.219	556.73
672.665	576.38
673.11	593.53
673.556	595.23
674.002	611.78
674.448	612.83
674.893	523.48
675.339	453.23
675.785	425.83
676.23	411.63
676.676	394.83
677.122	385.18
677.567	373.98
678.013	364.73
678.458	360.23
678.904	358.78
679.349	352.02
679.794	357.68
680.24	355.43
680.685	350.28
681.131	349.63
681.576	353.38
682.021	361.73
682.466	363.98
682.912	361.62
683.357	382.58
683.802	412.98
684.247	449.42
684.692	480.73
685.137	491.17
685.583	497.78
686.028	516.38
686.473	497.58
686.918	426.48
687.363	395.43
687.807	379.63
688.252	365.98
688.697	349.77
689.142	336.83
689.587	340.03
690.032	349.23
690.477	357.62
690.921	378.58
691.366	395.33
691.811	408.33
692.255	443.27
692.7	544.28
693.145	784.03
693.589	1167.23
694.034	1371.13
694.478	1439.58
694.923	1302.43
695.367	1777.13
695.812	1142.67
696.256	498.27
696.701	371.18
697.145	343.08
697.59	328.98
698.034	323.33
698.478	329.88
698.922	329.48
699.367	339.68
699.811	357.18
700.255	382.93
700.699	424.33
701.143	449.73
701.588	475.73
702.032	485.43
702.476	503.33
702.92	535.08
703.364	719.28
703.808	1076.43
704.252	1318.17
704.696	1370.47
705.14	1266.68
705.584	1694.28
706.027	983.68
706.471	513.73
706.915	385.88
707.359	346.63
707.803	324.23
708.246	313.88
708.69	311.63
709.134	304.68
709.577	309.48
710.021	313.73
710.465	309.33
710.908	305.58
711.352	323.68
711.795	362.58
712.239	383.92
712.682	391.03
713.126	388.98
713.569	428.52
714.012	354.03
714.456	315.62
714.899	294.98
715.342	276.98
715.786	264.08
716.229	257.43
716.672	254.73
717.115	246.38
717.558	255.23
718.002	259.83
718.445	271.78
718.888	284.23
719.331	297.53
719.774	294.73
720.217	291.33
720.66	270.33
721.103	265.23
721.546	249.53
721.989	240.68
722.432	238.08
722.874	238.23
723.317	242.58
723.76	265.88
724.203	333.48
724.645	435.52
725.088	497.73
725.531	474.48
725.974	517.33
726.416	468.33
726.859	303.53
727.301	245.73
727.744	240.38
728.187	236.28
728.629	243.28
729.071	254.13
729.514	262.88
729.956	269.98
730.399	276.43
730.841	274.78
731.283	266.23
731.726	260.98
732.168	261.18
732.61	284.98
733.053	300.12
733.495	337.18
733.937	368.63
734.379	431.63
734.821	567.08
735.263	884.08
735.705	1548.43
736.148	2206.98
736.59	2162.62
737.032	2291.88
737.474	1920.68
737.916	789.03
738.357	413.33
738.799	319.93
739.241	292.67
739.683	301.12
740.125	301.28
740.567	303.67
741.008	319.53
741.45	328.08
741.892	345.28
742.334	339.48
742.775	328.38
743.217	312.73
743.658	282.93
744.1	285.53
744.542	320.13
744.983	316.28
745.425	339.23
745.866	334.83
746.307	304.12
746.749	333.58
747.19	487.13
747.632	938.63
748.073	1694.08
748.514	2265.12
748.956	2986.73
749.397	3424.32
749.838	2391.23
750.279	2228.57
750.72	1205.92
751.162	516.93
751.603	304.03
752.044	244.43
752.485	220.18
752.926	207.63
753.367	193.98
753.808	190.78
754.249	186.58
754.69	193.73
755.131	177.98
755.572	184.98
756.013	180.43
756.453	181.83
756.894	189.23
757.335	187.17
757.776	185.28
758.216	197.38
758.657	214.53
759.098	231.38
759.538	278.63
759.979	412.52
760.42	841.68
760.86	2060.48
761.301	4144.47
761.741	4706.33
762.182	5293.82
762.622	3442.28
763.063	1344.68
763.503	607.33
763.943	478.78
764.384	526.18
764.824	492.48
765.264	490.73
765.705	352.52
766.145	240.38
766.585	218.73
767.025	231.67
767.465	312.63
767.906	383.83
768.346	399.08
768.786	409.38
769.226	410.68
769.666	683.48
770.106	1428.72
770.546	1931.43
770.986	2116.12
771.426	1617.57
771.866	723.63
772.306	330.83
772.745	211.73
773.185	187.33
773.625	192.78
774.065	227.38
774.505	386.68
774.944	772.53
775.384	1138.78
775.824	1266.88
776.263	1032.58
776.703	520.98
777.142	253.18
777.582	174.58
778.021	158.18
778.461	144.28
778.9	140.23
779.34	129.73
779.779	124.68
780.219	121.98
780.658	114.73
781.097	115.63
781.537	113.43
781.976	114.33
782.415	109.98
782.855	113.43
783.294	113.38
783.733	105.68
784.172	110.08
784.611	103.98
785.05	114.12
785.489	113.93
785.928	118.53
786.367	121.68
786.806	128.18
787.245	136.83
787.684	140.93
788.123	141.13
788.562	136.33
789.001	128.68
789.44	134.18
789.879	124.83
790.317	127.62
790.756	134.93
791.195	155.38
791.634	210.03
792.072	380.68
792.511	938.68
792.95	1616.28
793.388	1873.28
793.827	1240.93
794.265	597.53
794.704	287.48
795.142	179.43
795.581	141.93
796.019	132.08
796.458	133.63
796.896	137.78
797.334	156.08
797.773	213.93
798.211	412.98
798.649	834.38
799.087	1357.07
799.526	1867.42
799.964	1887.03
800.402	1305.33
800.84	620.28
801.278	304.58
801.716	191.92
802.154	155.88
802.592	146.53
803.03	142.23
803.468	148.83
803.906	148.63
804.344	143.83
804.782	142.73
805.22	141.73
805.658	148.18
806.096	156.73
806.533	172.93
806.971	226.48
807.409	334.08
807.847	661.43
808.284	1621.73
808.722	2730.77
809.16	3851.68
809.597	5294.43
810.035	6328.03
810.472	4026.83
810.91	1807.42
811.347	827.62
811.785	395.13
812.222	245.53
812.66	190.03
813.097	165.68
813.535	144.53
813.972	122.53
814.409	118.53
814.846	114.28
815.284	106.38
815.721	107.98
816.158	123.48
816.595	153.68
817.032	171.68
817.47	160.78
817.907	133.98
818.344	113.58
818.781	112.68
819.218	124.58
819.655	181.73
820.092	226.33
820.529	215.77
820.966	177.53
821.403	135.73
821.839	117.68
822.276	121.08
822.713	135.03
823.15	137.43
823.587	147.48
824.023	276.63
824.46	679.53
824.897	1125.68
825.333	860.43
825.77	409.73
826.206	221.78
826.643	130.08
827.08	100.08
827.516	85.48
827.953	80.68
828.389	76.93
828.825	73.23
829.262	69.88
829.698	70.33
830.135	66.13
830.571	58.98
831.007	67.38
831.443	63.33
831.88	67.78
832.316	71.08
832.752	68.78
833.188	70.38
833.624	70.13
834.06	71.18
834.497	68.08
834.933	68.12
835.369	79.58
835.805	85.12
836.241	84.18
836.677	90.43
837.112	109.18
837.548	134.28
837.984	208.38
838.42	439.78
838.856	1165.23
839.292	2166.72
839.727	1613.23
840.163	1160.28
840.599	1710.98
841.034	2504.93
841.47	1291.33
841.906	654.93
842.341	381.58
842.777	345.33
843.212	408.43
843.648	234.52
844.083	146.23
844.519	98.88
844.954	82.33
845.39	65.13
845.825	65.98
846.261	58.73
846.696	62.48
847.131	57.93
847.566	55.78
848.002	56.33
848.437	62.83
848.872	64.78
849.307	82.58
849.742	157.38
850.177	391.08
850.613	799.23
851.048	563.38
851.483	272.53
851.918	155.58
852.353	90.83
852.788	70.38
853.223	60.53
853.657	53.18
854.092	45.98
854.527	44.03
854.962	48.03
855.397	53.33
855.832	50.48
856.266	40.63
856.701	43.58
857.136	44.28
857.57	48.53
858.005	51.78
858.44	52.78
858.874	48.13
859.309	49.78
859.743	55.13
860.178	48.93
860.612	54.73
861.047	64.98
861.481	84.63
861.915	58.23
862.35	48.53
862.784	37.48
863.218	38.53
863.653	45.93
864.087	47.98
864.521	66.68
864.955	111.38
865.39	186.83
865.824	136.53
866.258	154.03
866.692	209.73
867.126	152.28
867.56	92.43
867.994	54.58
868.428	51.98
868.862	60.48
869.296	57.93
869.73	62.12
870.164	59.73
870.598	52.88
871.031	40.63
871.465	42.73
871.899	31.03
872.333	27.88
872.766	28.43
873.2	32.58
873.634	33.38
874.067	35.23
874.501	32.98
874.935	26.68
875.368	31.43
875.802	25.88
876.235	25.03
876.669	30.13
877.102	23.78
877.535	25.53
877.969	24.53
878.402	27.43
878.836	19.93
879.269	25.48
879.702	22.88
880.135	27.38
880.569	29.68
881.002	24.73
881.435	25.68
881.868	25.18
882.301	20.88
882.734	18.12
883.167	21.58
883.601	23.63
884.034	23.98
884.467	20.13
884.899	20.78
885.332	16.53
885.765	23.33
886.198	18.13
886.631	17.98
887.064	21.33
887.497	19.28
887.929	22.48
888.362	19.18
888.795	19.03
889.228	20.03
889.66	19.78
890.093	21.43
890.526	21.58
890.958	19.88
891.391	19.83
891.823	19.48
892.256	17.13
892.688	23.83
893.121	19.38
893.553	20.98
893.985	18.73
894.418	12.78
894.85	22.08
895.282	22.62
895.715	16.38
896.147	15.33
896.579	10.83
897.011	23.33
897.444	21.18
897.876	14.23
898.308	13.18
898.74	18.03
899.172	18.13
899.604	19.78
900.036	16.68
900.468	10.68
900.9	20.18
901.332	23.58
901.764	21.33
902.196	22.63
902.628	18.78
903.06	30.93
903.491	28.23
903.923	23.48
904.355	25.43
904.787	30.63
905.218	22.73
905.65	21.98
906.082	18.58
906.513	21.63
906.945	23.58
907.376	22.63
907.808	24.48
908.239	27.28
908.671	32.03
909.102	30.12
909.534	41.48
909.965	71.73
910.397	188.33
910.828	525.23
911.259	321.43
911.691	175.03
912.122	104.58
912.553	54.43
912.984	26.53
913.415	25.83
913.847	22.53
914.278	22.98
914.709	18.83
915.14	15.13
915.571	17.63
916.002	17.33
916.433	12.13
916.864	11.08
917.295	17.58
917.726	15.98
918.157	25.13
918.587	24.18
919.018	21.08
919.449	21.73
919.88	22.63
920.311	41.13
920.741	118.78
921.172	193.73
921.603	95.73
922.033	64.48
922.464	37.53
922.895	27.38
923.325	16.78
923.756	16.78
924.186	28.18
924.617	46.23
925.047	72.83
925.478	64.13
925.908	45.78
926.338	26.83
926.769	19.48
927.199	24.33
927.629	15.73
928.06	14.83
928.49	20.18
928.92	15.53
929.35	16.08
929.78	7.38
930.21	10.98
930.641	5.13
931.071	11.63
931.501	7.58
931.931	8.48
932.361	6.58
932.791	14.88
933.221	14.23
933.651	17.48
934.08	25.98
934.51	13.83
934.94	12.28
935.37	12.68
935.8	8.43
936.229	5.78
936.659	3.88
937.089	11.03
937.519	20.58
937.948	28.28
938.378	13.33
938.807	4.43
939.237	6.23
939.666	12.03
940.096	2.43
940.525	-1.02
940.955	7.38
941.384	3.13
941.814	6.48
942.243	0.03
942.672	4.48
943.102	2.23
943.531	2.78
943.96	1.38
944.39	1.13
944.819	2.03
945.248	3.53
945.677	5.73
946.106	-2.32
946.535	2.33
946.964	0.68
947.393	3.83
947.822	0.98
948.251	5.98
948.68	4.73
949.109	1.58
949.538	1.43
949.967	-1.62
950.396	6.38
950.825	5.98
951.254	3.98
951.682	1.43
952.111	-2.22
952.54	-0.32
952.969	-0.07
953.397	1.03
953.826	1.28
954.254	5.38
954.683	1.73
955.112	3.23
955.54	1.88
955.969	0.68
956.397	3.73
956.826	0.48
957.254	5.08
957.682	1.98
958.111	3.83
958.539	1.68
958.967	1.48
959.396	7.93
959.824	0.88
960.252	3.13
960.68	-0.92
961.109	5.43
961.537	5.43
961.965	-1.42
962.393	-1.57
962.821	1.88
963.249	3.78
963.677	3.23
964.105	34.68
964.533	52.88
964.961	24.18
965.389	14.43
965.817	6.23
966.245	5.98
966.672	0.13
967.1	3.18
967.528	-3.77
967.956	1.83
968.383	3.13
968.811	3.28
969.239	4.93
969.666	4.48
970.094	4.03
970.522	-0.37
970.949	3.38
971.377	-5.47
971.804	-3.12
972.232	0.98
972.659	3.43
973.087	-0.37
973.514	-4.37
973.941	-0.32
974.369	-2.67
974.796	0.03
975.223	-1.07
975.651	2.28
976.078	-2.22
976.505	5.18
976.932	10.53
977.359	14.03
977.786	11.13
978.214	8.88
978.641	-0.97
979.068	-0.12
979.495	2.98
979.922	2.43
980.349	4.03
980.776	-2.17
981.202	-1.52
981.629	6.28
982.056	1.58
982.483	-4.37
982.91	0.73
983.337	-0.62
983.763	-0.42
984.19	-1.27
984.617	-5.02
985.043	-1.82
985.47	3.98
985.897	-1.27
986.323	5.38
986.75	-0.62
987.176	-1.77
987.603	-2.62
988.029	0.08
988.456	5.03
988.882	-0.62
989.308	-7.72
989.735	-2.97
990.161	0.13
990.587	-3.62
991.014	-0.77
991.44	-0.57
991.866	-0.07
992.292	-3.22
992.719	-2.62
993.145	2.68
993.571	3.62
993.997	5.93
994.423	2.28
994.849	-6.62
995.275	-1.67
995.701	2.63
996.127	-3.97
996.553	1.63
996.979	-2.97
997.405	4.03
997.83	4.03
998.256	-0.82
998.682	2.53
999.108	3.18
999.534	-7.38
999.959	-3.77
1000.385	1.73
1000.811	-6.02
1001.236	-3.97
1001.662	0.98
1002.087	6.68
1002.513	2.58
1002.938	-4.42
1003.364	-2.62
1003.789	-0.77
1004.215	-1.92
1004.64	0.53
1005.066	3.28
1005.491	5.73
1005.916	-0.62
1006.342	-1.92
1006.767	3.33
1007.192	-0.47
1007.617	1.13
1008.042	-1.62
1008.468	-1.97
1008.893	-3.12
1009.318	3.12
1009.743	3.63
1010.168	13.28
1010.593	8.13
1011.018	8.08
1011.443	2.28
1011.868	3.08
1012.293	5.88
1012.718	-3.12
1013.143	-1.67
1013.567	4.28
1013.992	0.58
1014.417	0.23
1014.842	-5.32
1015.267	-5.07
1015.691	3.13
1016.116	0.63
1016.541	2.73
1016.965	-0.32
1017.39	1.03
1017.814	-6.72
1018.239	-5.67
1018.663	-10.02
1019.088	-5.77
1019.512	-0.47
1019.937	-1.52
1020.361	-5.12
1020.785	-0.77
1021.21	-5.12
1021.634	3.68
1022.058	1.53
1022.483	-3.37
1022.907	-3.02
1023.331	-4.17
1023.755	-3.27
1024.179	1.93
1024.604	0.93
1025.028	-0.38
1025.452	0.88
1025.876	7.18
1026.3	-3.32
1026.724	-3.17
1027.148	2.53
1027.572	-4.92
1027.996	3.48
1028.42	-0.02
1028.843	-2.77
1029.267	-1.42
1029.691	5.43
1030.115	-5.77
1030.539	-0.37
1030.962	-6.22
1031.386	1.43
1031.81	0.13
1032.233	0.08
1032.657	-5.47
1033.08	0.88
1033.504	0.53
1033.927	-2.88
1034.351	0.48
1034.774	-2.88
1035.198	-3.77
1035.621	-2.82
1036.045	-0.52
1036.468	4.03
1036.891	-2.62
1037.315	3.93
1037.738	-1.57
1038.161	-1.82
1038.584	-4.67
1039.008	-2.72
1039.431	-2.97
1039.854	-4.67
1040.277	0.78
1040.7	-2.82
1041.123	1.58
1041.546	2.68
1041.969	0.83
1042.392	2.03
1042.815	-8.07
1043.238	-2.42
1043.661	-1.27
1044.084	-2.57
1044.507	-5.62
1044.93	2.43
1045.352	-4.87
1045.775	-0.88
1046.198	-1.67
1046.621	1.88
1047.043	-5.67
1047.466	1.68
1047.889	-0.42
1048.311	2.13
1048.734	-3.22
1049.156	-5.32
1049.579	0.23
1050.001	-3.57
1050.424	-7.32
1050.846	-3.12
1051.269	-4.42
1051.691	-3.12
1052.113	-0.27
1052.536	-3.52
1052.958	-1.82
1053.38	0.03
1053.802	1.08
1054.225	-1.77
1054.647	-0.02
1055.069	1.83
1055.491	2.28
1055.913	-2.17
1056.335	-11.12
1056.757	-6.38
1057.179	-2.27
1057.601	-3.77
1058.023	3.03
1058.445	-6.67
1058.867	3.73
1059.289	5.73
1059.711	-0.62
1060.133	1.18
1060.555	-3.32
1060.976	3.78
1061.398	-0.07
1061.82	-2.57
1062.241	-6.82
1062.663	-1.07
1063.085	-2.77
1063.506	-7.47
1063.928	-3.67
1064.35	0.88
1064.771	-1.52
1065.193	-4.07
1065.614	-5.87
1066.035	0.68
1066.457	-1.07
1066.878	0.53
1067.3	-4.87
1067.721	-0.17
1068.142	1.83
1068.564	2.43
1068.985	1.28
1069.406	-4.22
1069.827	-3.27
1070.248	-5.12
1070.67	-3.77
1071.091	-8.82
1071.512	-0.82
1071.933	-6.77
1072.354	-5.97
1072.775	-3.42
1073.196	1.33
1073.617	-3.82
1074.038	-2.47
1074.459	-6.77
1074.88	-5.27
1075.3	-3.72
1075.721	-0.92
1076.142	-3.37
1076.563	-4.87
1076.983	3.03
1077.404	-6.07
1077.825	2.93
1078.246	-7.42
1078.666	-6.42
1079.087	-2.02
1079.507	-4.27
1079.928	-1.57
1080.348	-2.37
1080.769	-3.42
1081.189	-5.82
1081.61	-9.57
1082.03	1.28
1082.451	-3.27
1082.871	-4.57
1083.291	-6.97
1083.711	1.28
1084.132	-5.02
1084.552	-6.77
1084.972	-3.97
1085.392	-3.52
1085.813	1.28
1086.233	-5.32
1086.653	-2.07
1087.073	-3.82
1087.493	-5.92
1087.913	-2.87
1088.333	-4.67
1088.753	-1.27
1089.173	0.48
1089.593	-2.12
1090.013	-1.52
1090.433	-6.72
1090.852	-1.92
1091.272	-8.97
1091.692	-1.62
1092.112	-2.82
1092.531	-1.02
1092.951	-1.17
1093.371	-0.22
1093.79	-3.97
1094.21	-5.07
1094.63	0.88
1095.049	-4.47
1095.469	-9.12
1095.888	1.88
1096.308	2.13
1096.727	-4.22
1097.146	-6.02
1097.566	-5.67
1097.985	-0.02
1098.405	-2.12
1098.824	-0.92
1099.243	-3.77
1099.662	0.18
1100.082	-5.32
1100.501	-1.77
1100.92	5.83
1101.339	0.78
1101.758	3.28
