Data from MSPlasma+Separation6_Subt14_10-15-09-015.txt Node
Date: Fri Jul 21 10:15:09 EDT 2017
User: Ender
Spectrometer: HR+D1039
Trigger mode: 0
Integration Time (sec): 6.430000E-3
Scans to average: 20
Electric dark correction enabled: true
Nonlinearity correction enabled: false
Boxcar width: 0
XAxis mode: Wavelengths
Number of Pixels in Spectrum: 2048
>>>>>Begin Spectral Data<<<<<
187.836	3.41
188.309	3.41
188.782	3.41
189.255	-0.94
189.728	2.96
190.201	-1.44
190.674	0.36
191.147	-3.79
191.619	2.51
192.092	-0.99
192.565	-3.29
193.038	2.76
193.511	-1.39
193.984	3.36
194.456	0.96
194.929	-2.44
195.402	-3.74
195.874	1.71
196.347	2.96
196.82	-0.74
197.292	-2.34
197.765	-2.94
198.237	-1.64
198.71	-4.54
199.182	3.36
199.655	3.96
200.127	1.41
200.6	4.51
201.072	5.91
201.544	0.36
202.017	5.91
202.489	1.16
202.961	1.41
203.433	-1.24
203.906	0.56
204.378	-0.24
204.85	1.36
205.322	5.41
205.794	7.61
206.266	0.56
206.739	7.36
207.211	0.06
207.683	0.36
208.155	3.86
208.627	-0.19
209.099	8.36
209.57	4.46
210.042	3.51
210.514	7.16
210.986	14.56
211.458	28.66
211.93	14.46
212.402	8.06
212.873	2.46
213.345	-1.99
213.817	6.86
214.288	0.81
214.76	3.31
215.232	-3.74
215.703	4.06
216.175	6.31
216.646	5.01
217.118	5.61
217.589	-3.39
218.061	2.61
218.532	5.06
219.004	11.36
219.475	15.01
219.946	32.91
220.418	41.01
220.889	32.36
221.36	10.46
221.832	8.86
222.303	8.01
222.774	3.56
223.245	3.41
223.717	3.11
224.188	7.56
224.659	8.11
225.13	-0.14
225.601	3.61
226.072	9.86
226.543	10.66
227.014	3.76
227.485	14.16
227.956	9.26
228.427	14.26
228.898	10.96
229.369	11.21
229.839	13.91
230.31	16.96
230.781	14.81
231.252	20.96
231.722	28.66
232.193	36.61
232.664	46.46
233.135	61.16
233.605	62.91
234.076	49.11
234.546	45.11
235.017	47.41
235.487	48.61
235.958	49.91
236.428	71.76
236.899	115.11
237.369	130.11
237.84	95.01
238.31	123.41
238.78	123.11
239.251	118.66
239.721	123.76
240.191	90.36
240.662	53.51
241.132	47.16
241.602	56.81
242.072	81.81
242.542	99.56
243.013	63.21
243.483	59.66
243.953	41.21
244.423	50.86
244.893	53.71
245.363	64.71
245.833	61.01
246.303	69.61
246.773	88.11
247.243	87.11
247.712	103.01
248.182	119.31
248.652	125.61
249.122	185.06
249.592	346.46
250.061	517.51
250.531	835.16
251.001	630.11
251.471	524.36
251.94	394.01
252.41	217.66
252.879	151.76
253.349	114.46
253.818	94.71
254.288	81.46
254.757	80.86
255.227	110.76
255.696	92.26
256.166	81.66
256.635	85.96
257.105	104.61
257.574	139.26
258.043	142.91
258.513	256.31
258.982	331.66
259.451	227.06
259.92	231.71
260.389	214.51
260.859	151.36
261.328	176.81
261.797	266.71
262.266	229.06
262.735	109.41
263.204	68.91
263.673	61.91
264.142	51.91
264.611	56.56
265.08	62.01
265.549	71.81
266.018	63.66
266.487	61.91
266.955	64.31
267.424	66.96
267.893	70.36
268.362	72.56
268.83	67.41
269.299	67.71
269.768	80.71
270.236	96.11
270.705	102.31
271.174	101.76
271.642	110.31
272.111	128.41
272.579	204.36
273.048	315.96
273.516	405.56
273.985	420.66
274.453	314.21
274.922	187.46
275.39	127.06
275.858	109.61
276.327	96.96
276.795	100.56
277.263	111.31
277.731	140.61
278.2	274.26
278.668	367.46
279.136	277.51
279.604	178.21
280.072	110.61
280.54	98.76
281.008	99.16
281.477	103.61
281.945	102.61
282.413	105.66
282.881	108.91
283.348	108.41
283.816	111.41
284.284	123.71
284.752	116.31
285.22	119.31
285.688	132.81
286.156	209.96
286.623	578.11
287.091	1126.71
287.559	596.01
288.026	228.21
288.494	146.11
288.962	123.81
289.429	113.06
289.897	107.66
290.364	106.36
290.832	102.91
291.3	110.91
291.767	112.06
292.234	115.76
292.702	118.66
293.169	132.56
293.637	134.31
294.104	133.06
294.571	126.56
295.039	126.76
295.506	125.96
295.973	129.11
296.44	122.11
296.908	136.26
297.375	159.01
297.842	156.26
298.309	131.81
298.776	130.56
299.243	141.41
299.71	132.51
300.177	128.41
300.644	148.61
301.111	159.01
301.578	149.51
302.045	135.41
302.512	136.16
302.979	140.51
303.446	148.41
303.913	153.86
304.379	161.96
304.846	180.66
305.313	195.51
305.78	231.91
306.246	280.91
306.713	295.61
307.18	262.61
307.646	288.61
308.113	253.76
308.579	199.36
309.046	197.01
309.512	198.16
309.979	186.46
310.445	171.66
310.912	174.16
311.378	173.46
311.845	171.96
312.311	170.96
312.777	171.81
313.244	183.81
313.71	188.16
314.176	209.91
314.642	234.31
315.109	272.96
315.575	259.81
316.041	234.31
316.507	228.41
316.973	241.46
317.439	236.46
317.905	261.11
318.371	261.31
318.837	247.76
319.303	259.56
319.769	238.11
320.235	262.01
320.701	304.46
321.167	326.76
321.633	398.46
322.099	543.01
322.564	734.96
323.03	569.36
323.496	400.16
323.962	374.26
324.427	353.76
324.893	305.96
325.359	296.31
325.824	260.21
326.29	273.56
326.755	279.36
327.221	273.76
327.686	293.86
328.152	260.96
328.617	252.01
329.083	258.41
329.548	262.21
330.014	273.56
330.479	295.51
330.944	351.06
331.41	396.66
331.875	384.06
332.34	394.26
332.805	452.81
333.271	580.36
333.736	770.61
334.201	700.51
334.666	518.56
335.131	586.36
335.596	461.71
336.061	481.51
336.526	495.21
336.991	433.71
337.456	475.46
337.921	373.41
338.386	302.61
338.851	281.36
339.316	263.51
339.781	258.01
340.246	255.01
340.711	258.41
341.175	257.81
341.64	274.56
342.105	272.76
342.569	288.46
343.034	306.71
343.499	318.11
343.963	303.41
344.428	309.06
344.893	310.76
345.357	319.41
345.822	306.36
346.286	311.81
346.751	331.46
347.215	331.01
347.679	334.71
348.144	359.11
348.608	353.26
349.073	370.71
349.537	412.71
350.001	401.21
350.465	380.86
350.93	363.76
351.394	366.31
351.858	366.96
352.322	377.16
352.786	378.56
353.25	372.91
353.715	372.11
354.179	394.76
354.643	409.21
355.107	423.76
355.571	445.46
356.035	448.66
356.498	435.51
356.962	468.56
357.426	459.16
357.89	415.86
358.354	396.26
358.818	388.21
359.281	397.61
359.745	420.01
360.209	411.91
360.673	414.26
361.136	413.96
361.6	422.61
362.064	442.96
362.527	452.46
362.991	451.61
363.454	451.66
363.918	460.56
364.381	450.21
364.845	444.41
365.308	441.06
365.772	437.71
366.235	446.01
366.698	468.41
367.162	560.71
367.625	626.91
368.088	502.86
368.552	461.11
369.015	465.41
369.478	500.01
369.941	506.06
370.404	515.26
370.867	546.26
371.331	554.46
371.794	556.41
372.257	624.71
372.72	658.11
373.183	634.81
373.646	639.86
374.109	640.41
374.572	733.21
375.035	872.21
375.497	661.76
375.96	534.21
376.423	507.71
376.886	503.66
377.349	513.51
377.811	522.31
378.274	530.31
378.737	536.16
379.199	553.56
379.662	566.36
380.125	606.71
380.587	660.81
381.05	701.21
381.512	702.71
381.975	681.06
382.437	674.01
382.9	672.66
383.362	670.16
383.825	723.31
384.287	907.01
384.75	1002.01
385.212	897.56
385.674	738.96
386.136	670.51
386.599	661.46
387.061	691.96
387.523	714.06
387.985	724.01
388.447	745.96
388.91	834.86
389.372	1004.26
389.834	942.76
390.296	789.76
390.758	799.41
391.22	820.51
391.682	1008.86
392.144	1595.71
392.606	1493.71
393.068	860.16
393.529	787.96
393.991	778.46
394.453	755.56
394.915	788.31
395.377	972.51
395.838	1202.26
396.3	851.46
396.762	658.11
397.224	628.51
397.685	619.31
398.147	626.31
398.608	631.16
399.07	637.26
399.531	630.46
399.993	641.51
400.454	645.46
400.916	646.71
401.377	661.16
401.839	666.51
402.3	675.01
402.762	691.56
403.223	771.06
403.684	784.11
404.145	721.46
404.607	699.46
405.068	700.31
405.529	717.26
405.99	727.56
406.451	739.46
406.913	716.91
407.374	732.26
407.835	736.96
408.296	760.06
408.757	769.36
409.218	784.41
409.679	793.21
410.14	803.46
410.601	842.41
411.062	876.06
411.522	998.71
411.983	1120.01
412.444	952.76
412.905	836.96
413.366	837.56
413.826	868.91
414.287	973.16
414.748	1163.91
415.208	1187.16
415.669	977.46
416.13	900.21
416.59	882.16
417.051	911.41
417.511	950.01
417.972	1031.61
418.432	1099.51
418.893	1231.41
419.353	1166.61
419.814	893.21
420.274	802.36
420.734	801.41
421.195	843.61
421.655	886.26
422.115	865.46
422.576	825.46
423.036	836.06
423.496	860.11
423.956	905.36
424.416	967.06
424.876	1092.21
425.336	1094.91
425.797	1082.61
426.257	1082.46
426.717	1008.56
427.177	946.31
427.637	971.66
428.097	1018.01
428.556	1068.66
429.016	1168.36
429.476	1156.41
429.936	1110.91
430.396	1083.86
430.856	1090.96
431.315	1124.76
431.775	1205.06
432.235	1284.21
432.694	1297.11
433.154	1223.46
433.614	1187.06
434.073	1156.81
434.533	1041.16
434.993	1004.86
435.452	1010.96
435.912	990.26
436.371	993.16
436.83	999.71
437.29	1007.26
437.749	956.01
438.209	941.61
438.668	956.46
439.127	964.86
439.587	947.86
440.046	905.01
440.505	932.56
440.964	927.61
441.424	962.01
441.883	978.21
442.342	918.91
442.801	891.01
443.26	915.11
443.719	911.31
444.178	900.36
444.637	908.06
445.096	916.06
445.555	927.11
446.014	929.01
446.473	893.66
446.932	897.11
447.391	911.26
447.849	933.31
448.308	922.11
448.767	934.61
449.226	962.81
449.685	970.76
450.143	1020.31
450.602	1003.41
451.061	971.26
451.519	983.16
451.978	1015.86
452.436	1046.46
452.895	998.01
453.353	961.01
453.812	976.71
454.27	965.56
454.729	931.51
455.187	941.31
455.646	953.66
456.104	960.96
456.562	953.01
457.021	937.86
457.479	904.06
457.937	934.11
458.395	956.81
458.854	947.66
459.312	933.11
459.77	951.11
460.228	958.96
460.686	967.86
461.144	973.61
461.602	953.06
462.06	963.26
462.518	980.21
462.976	985.51
463.434	999.26
463.892	1006.76
464.35	1018.06
464.808	1038.01
465.266	1042.76
465.724	1057.81
466.181	1062.71
466.639	1054.31
467.097	1107.06
467.555	1138.11
468.012	1136.01
468.47	1136.46
468.928	1178.36
469.385	1200.86
469.843	1219.46
470.3	1203.66
470.758	1251.36
471.215	1272.21
471.673	1298.06
472.13	1326.71
472.588	1355.01
473.045	1356.01
473.503	1378.71
473.96	1431.61
474.417	1454.86
474.875	1523.31
475.332	1570.01
475.789	1598.06
476.246	1641.36
476.704	1706.26
477.161	1761.01
477.618	1795.36
478.075	1898.66
478.532	2037.46
478.989	2191.66
479.446	2412.46
479.903	2529.26
480.36	2764.61
480.817	2949.81
481.274	3140.61
481.731	3444.76
482.188	3709.96
482.645	4015.21
483.102	4258.26
483.558	4563.56
484.015	4810.51
484.472	4817.06
484.929	4684.51
485.385	4492.21
485.842	4364.71
486.299	4176.21
486.755	3783.01
487.212	3378.36
487.668	3044.86
488.125	2826.51
488.582	2608.31
489.038	2510.11
489.494	2436.36
489.951	2361.91
490.407	2311.31
490.864	2274.41
491.32	2225.76
491.776	2199.81
492.233	2198.86
492.689	2172.56
493.145	2131.16
493.602	2121.56
494.058	2161.56
494.514	2192.71
494.97	2193.36
495.426	2210.91
495.882	2228.46
496.338	2237.76
496.794	2320.96
497.251	2339.56
497.707	2334.71
498.163	2350.26
498.618	2337.66
499.074	2366.91
499.53	2394.06
499.986	2438.81
500.442	2460.06
500.898	2479.01
501.354	2508.86
501.809	2524.76
502.265	2563.16
502.721	2680.81
503.177	2753.51
503.632	2620.71
504.088	2642.66
504.543	2891.26
504.999	2710.41
505.455	2401.51
505.91	2284.31
506.366	2263.51
506.821	2252.26
507.277	2233.96
507.732	2245.46
508.187	2234.91
508.643	2264.21
509.098	2268.66
509.553	2289.51
510.009	2305.66
510.464	2356.21
510.919	2380.01
511.375	2408.16
511.83	2447.76
512.285	2491.11
512.74	2534.51
513.195	2574.81
513.65	2626.36
514.105	2662.11
514.56	2659.31
515.015	2722.76
515.47	2759.46
515.925	2740.71
516.38	2728.71
516.835	2701.96
517.29	2711.31
517.745	2735.36
518.2	2697.11
518.655	2613.91
519.109	2572.31
519.564	2540.16
520.019	2525.91
520.474	2488.01
520.928	2479.16
521.383	2475.21
521.838	2455.26
522.292	2444.16
522.747	2400.36
523.201	2398.61
523.656	2376.21
524.11	2359.01
524.565	2358.91
525.019	2368.11
525.474	2368.51
525.928	2361.56
526.382	2335.46
526.837	2325.01
527.291	2327.76
527.745	2310.26
528.2	2310.21
528.654	2289.16
529.108	2298.56
529.562	2311.56
530.016	2293.86
530.47	2312.56
530.925	2303.01
531.379	2320.11
531.833	2334.91
532.287	2324.66
532.741	2314.11
533.195	2308.31
533.649	2312.06
534.103	2322.61
534.556	2287.76
535.01	2323.71
535.464	2326.31
535.918	2340.21
536.372	2331.16
536.826	2314.41
537.279	2295.91
537.733	2306.66
538.187	2323.31
538.64	2318.26
539.094	2337.51
539.548	2372.16
540.001	2362.51
540.455	2368.46
540.908	2380.01
541.362	2398.66
541.815	2427.16
542.269	2487.11
542.722	2472.76
543.175	2486.81
543.629	2509.96
544.082	2522.96
544.536	2558.06
544.989	2550.96
545.442	2578.21
545.895	2567.16
546.349	2562.76
546.802	2576.86
547.255	2575.16
547.708	2600.01
548.161	2608.86
548.614	2611.36
549.067	2636.01
549.52	2622.61
549.973	2593.86
550.426	2567.06
550.879	2537.61
551.332	2533.01
551.785	2558.06
552.238	2589.91
552.691	2587.16
553.144	2626.51
553.596	2659.31
554.049	2701.16
554.502	2764.76
554.955	2810.11
555.407	2844.26
555.86	2820.16
556.313	2789.91
556.765	2748.06
557.218	2723.66
557.67	2722.56
558.123	2687.31
558.576	2677.11
559.028	2675.06
559.48	2703.46
559.933	2686.51
560.385	2610.86
560.838	2505.81
561.29	2439.91
561.742	2432.01
562.195	2374.51
562.647	2363.86
563.099	2356.51
563.551	2342.11
564.004	2372.46
564.456	2356.76
564.908	2304.51
565.36	2250.76
565.812	2216.51
566.264	2203.76
566.716	2164.16
567.168	2127.06
567.62	2146.26
568.072	2114.46
568.524	2096.26
568.976	2078.46
569.428	2065.76
569.88	2055.81
570.332	2064.91
570.784	2064.11
571.235	2047.81
571.687	2080.81
572.139	2076.76
572.59	2083.06
573.042	2105.11
573.494	2098.56
573.945	2066.21
574.397	2032.96
574.849	2020.46
575.3	2034.71
575.752	2009.26
576.203	1985.51
576.655	2008.36
577.106	1955.76
577.557	1963.41
578.009	1948.76
578.46	1959.21
578.912	1935.56
579.363	1951.96
579.814	1939.51
580.265	1938.31
580.717	1943.06
581.168	1947.11
581.619	1944.26
582.07	1970.61
582.521	1954.46
582.972	1956.01
583.423	1979.61
583.875	2022.26
584.326	2104.81
584.777	2291.46
585.227	2499.01
585.678	2656.51
586.129	2693.71
586.58	2762.51
587.031	2793.36
587.482	2986.31
587.933	3467.16
588.384	3201.51
588.834	2657.06
589.285	2261.06
589.736	2219.51
590.186	2219.86
590.637	2218.81
591.088	2157.36
591.538	2125.16
591.989	2105.01
592.439	2090.26
592.89	2079.91
593.34	2084.21
593.791	2091.81
594.241	2089.31
594.692	2128.26
595.142	2107.21
595.593	2071.16
596.043	2073.66
596.493	2105.96
596.943	2157.41
597.394	2128.31
597.844	2101.41
598.294	2130.56
598.744	2203.41
599.195	2303.26
599.645	2428.91
600.095	2549.36
600.545	2662.51
600.995	2793.56
601.445	2901.26
601.895	3048.71
602.345	3152.46
602.795	3102.96
603.245	2963.86
603.695	2790.46
604.145	2627.91
604.594	2512.41
605.044	2371.91
605.494	2223.76
605.944	2110.61
606.393	2061.16
606.843	2045.76
607.293	2037.11
607.743	2029.91
608.192	2050.16
608.642	2049.06
609.091	2059.01
609.541	2053.16
609.99	2053.36
610.44	2002.71
610.889	1973.46
611.339	1972.56
611.788	1943.26
612.238	1970.16
612.687	1982.86
613.136	1994.66
613.586	2036.06
614.035	2045.41
614.484	2066.26
614.933	2066.46
615.383	2031.61
615.832	1970.71
616.281	1928.81
616.73	1878.71
617.179	1821.96
617.628	1782.06
618.077	1756.51
618.526	1726.81
618.975	1712.66
619.424	1683.46
619.873	1706.06
620.322	1674.16
620.771	1666.21
621.22	1644.36
621.669	1620.36
622.118	1603.01
622.567	1593.86
623.015	1564.51
623.464	1559.06
623.913	1535.16
624.361	1536.96
624.81	1534.46
625.259	1520.81
625.707	1510.36
626.156	1512.11
626.604	1530.66
627.053	1540.56
627.501	1526.11
627.95	1539.76
628.398	1570.66
628.847	1550.16
629.295	1553.51
629.744	1569.61
630.192	1589.21
630.64	1712.01
631.089	1877.01
631.537	1958.16
631.985	1956.61
632.433	2042.81
632.881	2050.61
633.33	2474.61
633.778	2702.56
634.226	1889.81
634.674	1748.91
635.122	1745.21
635.57	1781.56
636.018	2080.61
636.466	1686.21
636.914	1502.61
637.362	1498.61
637.81	1515.16
638.258	1564.31
638.705	1562.06
639.153	1605.51
639.601	1626.31
640.049	1657.21
640.497	1703.36
640.944	1756.61
641.392	1669.21
641.84	1581.61
642.287	1509.31
642.735	1482.41
643.182	1465.16
643.63	1468.41
644.078	1472.21
644.525	1493.11
644.973	1531.01
645.42	1548.76
645.867	1569.06
646.315	1596.01
646.762	1660.36
647.21	1686.76
647.657	1773.86
648.104	1844.01
648.551	1899.36
648.999	2044.46
649.446	2255.36
649.893	2513.06
650.34	2942.56
650.787	3611.61
651.234	4687.71
651.682	6483.61
652.129	9245.36
652.576	13180.11
653.023	15535.76
653.47	15538.96
653.917	15539.01
654.363	15538.91
654.81	15535.91
655.257	15536.56
655.704	15540.36
656.151	10309.31
656.598	6711.31
657.044	4778.66
657.491	3725.91
657.938	3034.21
658.385	2567.91
658.831	2260.36
659.278	2038.31
659.724	1872.81
660.171	1738.16
660.618	1610.26
661.064	1514.11
661.511	1483.46
661.957	1427.31
662.404	1394.61
662.85	1380.76
663.296	1363.46
663.743	1329.41
664.189	1329.81
664.635	1317.96
665.082	1292.91
665.528	1279.46
665.974	1252.11
666.42	1241.41
666.867	1254.76
667.313	1245.21
667.759	1311.21
668.205	1304.11
668.651	1323.66
669.097	1279.11
669.543	1392.81
669.989	1324.66
670.435	1179.91
670.881	1159.16
671.327	1195.66
671.773	1273.96
672.219	1383.91
672.665	1459.81
673.11	1523.26
673.556	1541.26
674.002	1586.31
674.448	1616.91
674.893	1360.61
675.339	1177.61
675.785	1096.96
676.23	1041.66
676.676	1005.86
677.122	977.36
677.567	948.46
678.013	926.96
678.458	918.31
678.904	911.36
679.349	900.91
679.794	902.71
680.24	894.06
680.685	885.51
681.131	897.66
681.576	900.81
682.021	907.96
682.466	911.41
682.912	917.66
683.357	962.91
683.802	1040.66
684.247	1141.71
684.692	1211.21
685.137	1265.86
685.583	1288.96
686.028	1360.51
686.473	1286.11
686.918	1109.21
687.363	1014.36
687.807	968.61
688.252	908.66
688.697	888.36
689.142	861.46
689.587	867.96
690.032	887.16
690.477	921.21
690.921	957.91
691.366	1014.41
691.811	1054.01
692.255	1140.61
692.7	1391.16
693.145	1999.06
693.589	3031.76
694.034	3616.31
694.478	3878.11
694.923	3572.56
695.367	5141.61
695.812	3079.46
696.256	1293.21
696.701	949.56
697.145	883.06
697.59	847.96
698.034	832.36
698.478	841.96
698.922	844.06
699.367	863.06
699.811	902.26
700.255	980.71
700.699	1070.81
701.143	1160.66
701.588	1227.96
702.032	1276.81
702.476	1315.81
702.92	1387.66
703.364	1810.71
703.808	2788.21
704.252	3485.91
704.696	3701.66
705.14	3495.61
705.584	4870.51
706.027	2658.66
706.471	1326.61
706.915	987.01
707.359	882.61
707.803	836.51
708.246	796.76
708.69	796.91
709.134	787.06
709.577	778.21
710.021	796.01
710.465	795.81
710.908	789.96
711.352	817.36
711.795	909.61
712.239	975.21
712.682	998.51
713.126	997.66
713.569	1115.51
714.012	916.66
714.456	812.71
714.899	759.96
715.342	710.11
715.786	677.86
716.229	664.56
716.672	647.11
717.115	643.36
717.558	654.26
718.002	671.26
718.445	706.61
718.888	735.51
719.331	755.76
719.774	769.81
720.217	754.21
720.66	710.56
721.103	672.16
721.546	637.51
721.989	623.26
722.432	618.76
722.874	617.06
723.317	618.51
723.76	677.11
724.203	829.26
724.645	1098.36
725.088	1293.61
725.531	1265.46
725.974	1405.06
726.416	1253.66
726.859	765.66
727.301	637.41
727.744	605.26
728.187	610.31
728.629	625.91
729.071	649.61
729.514	675.01
729.956	700.86
730.399	710.56
730.841	716.61
731.283	691.51
731.726	670.26
732.168	687.11
732.61	721.36
733.053	776.26
733.495	857.16
733.937	963.06
734.379	1132.06
734.821	1444.11
735.263	2306.01
735.705	4146.46
736.148	6074.71
736.59	6075.81
737.032	6661.51
737.474	5493.46
737.916	2066.51
738.357	1087.31
738.799	842.31
739.241	778.91
739.683	780.26
740.125	795.26
740.567	796.11
741.008	846.31
741.45	862.71
741.892	896.76
742.334	903.56
742.775	890.16
743.217	848.46
743.658	729.46
744.1	734.06
744.542	823.16
744.983	856.86
745.425	897.26
745.866	882.66
746.307	783.91
746.749	850.16
747.19	1239.86
747.632	2427.21
748.073	4519.26
748.514	6252.01
748.956	8315.61
749.397	9740.56
749.838	6705.61
750.279	6473.11
750.72	3272.06
751.162	1381.26
751.603	784.56
752.044	636.81
752.485	561.11
752.926	530.11
753.367	509.41
753.808	491.91
754.249	484.96
754.69	480.81
755.131	470.11
755.572	477.61
756.013	477.31
756.453	474.36
756.894	483.01
757.335	484.11
757.776	498.66
758.216	510.21
758.657	544.11
759.098	598.76
759.538	724.61
759.979	1049.96
760.42	2119.01
760.86	5470.86
761.301	11269.16
761.741	13193.26
762.182	15120.91
762.622	9868.01
763.063	3504.01
763.503	1521.71
763.943	1126.11
764.384	1187.86
764.824	1125.56
765.264	1119.31
765.705	795.91
766.145	593.11
766.585	526.26
767.025	553.51
767.465	707.86
767.906	851.41
768.346	896.21
768.786	933.86
769.226	988.86
769.666	1741.16
770.106	3825.16
770.546	5377.31
770.986	6120.21
771.426	4627.41
771.866	1898.66
772.306	861.76
772.745	543.51
773.185	471.71
773.625	462.86
774.065	537.56
774.505	874.71
774.944	1726.01
775.384	2608.51
775.824	3021.61
776.263	2456.66
776.703	1201.96
777.142	610.96
777.582	424.91
778.021	383.61
778.461	360.56
778.9	348.41
779.34	331.86
779.779	319.56
780.219	303.11
780.658	297.61
781.097	295.26
781.537	293.26
781.976	288.81
782.415	292.26
782.855	291.11
783.294	288.41
783.733	280.31
784.172	284.96
784.611	280.46
785.05	287.41
785.489	296.36
785.928	303.61
786.367	310.91
786.806	333.41
787.245	359.71
787.684	366.91
788.123	360.81
788.562	343.16
789.001	333.46
789.44	324.96
789.879	324.86
790.317	331.41
790.756	347.51
791.195	398.11
791.634	538.96
792.072	973.46
792.511	2419.46
792.95	4449.66
793.388	5419.76
793.827	3484.16
794.265	1570.16
794.704	755.76
795.142	457.71
795.581	382.66
796.019	346.26
796.458	349.91
796.896	359.06
797.334	409.86
797.773	544.41
798.211	1051.51
798.649	2206.16
799.087	3730.11
799.526	5250.41
799.964	5447.26
800.402	3722.41
800.84	1654.76
801.278	806.26
801.716	497.51
802.154	400.96
802.592	377.46
803.03	374.76
803.468	386.56
803.906	384.41
804.344	375.86
804.782	368.81
805.22	374.56
805.658	381.76
806.096	404.71
806.533	458.66
806.971	587.71
807.409	853.21
807.847	1719.61
808.284	4432.86
808.722	7725.26
809.16	10871.91
809.597	14492.86
810.035	15540.91
810.472	11747.26
810.91	4952.81
811.347	2201.06
811.785	1033.51
812.222	648.56
812.66	500.61
813.097	425.21
813.535	371.26
813.972	330.81
814.409	301.66
814.846	292.86
815.284	275.21
815.721	284.61
816.158	308.86
816.595	394.41
817.032	482.36
817.47	442.66
817.907	338.91
818.344	300.86
818.781	297.86
819.218	341.71
819.655	489.91
820.092	626.71
820.529	578.76
820.966	476.96
821.403	356.31
821.839	311.51
822.276	327.41
822.713	374.41
823.15	357.01
823.587	398.16
824.023	714.31
824.46	1812.91
824.897	3186.26
825.333	2446.76
825.77	1112.21
826.206	579.26
826.643	343.16
827.08	260.61
827.516	226.61
827.953	212.26
828.389	203.71
828.825	189.86
829.262	183.66
829.698	181.36
830.135	165.26
830.571	170.86
831.007	171.91
831.443	174.41
831.88	177.21
832.316	180.46
832.752	175.31
833.188	181.31
833.624	178.36
834.06	184.36
834.497	186.11
834.933	184.26
835.369	203.66
835.805	211.31
836.241	220.81
836.677	249.81
837.112	286.36
837.548	355.91
837.984	530.46
838.42	1137.31
838.856	3206.16
839.292	6343.61
839.727	4647.21
840.163	3112.16
840.599	4764.61
841.034	7303.41
841.47	3595.46
841.906	1742.31
842.341	971.11
842.777	828.21
843.212	973.06
843.648	576.86
844.083	361.41
844.519	250.51
844.954	201.71
845.39	174.86
845.825	169.61
846.261	163.26
846.696	153.91
847.131	145.61
847.566	150.51
848.002	153.31
848.437	169.86
848.872	170.01
849.307	214.96
849.742	396.11
850.177	1043.41
850.613	2217.96
851.048	1579.06
851.483	715.71
851.918	399.41
852.353	234.26
852.788	187.41
853.223	157.06
853.657	137.26
854.092	132.16
854.527	120.91
854.962	126.71
855.397	137.81
855.832	118.61
856.266	116.11
856.701	111.96
857.136	118.61
857.57	133.86
858.005	164.26
858.44	135.16
858.874	138.61
859.309	144.41
859.743	132.61
860.178	131.16
860.612	139.86
861.047	182.71
861.481	234.86
861.915	166.01
862.35	131.31
862.784	109.16
863.218	102.06
863.653	113.56
864.087	138.01
864.521	179.41
864.955	301.21
865.39	509.66
865.824	370.56
866.258	428.46
866.692	614.06
867.126	441.61
867.56	246.81
867.994	166.16
868.428	140.16
868.862	171.96
869.296	154.16
869.73	188.66
870.164	165.11
870.598	146.36
871.031	110.61
871.465	97.86
871.899	84.46
872.333	77.06
872.766	83.11
873.2	86.61
873.634	83.91
874.067	84.86
874.501	86.31
874.935	89.76
875.368	87.26
875.802	74.51
876.235	70.16
876.669	73.21
877.102	61.91
877.535	67.96
877.969	64.16
878.402	64.41
878.836	70.06
879.269	64.26
879.702	64.76
880.135	66.71
880.569	79.01
881.002	66.26
881.435	66.71
881.868	63.06
882.301	61.31
882.734	57.71
883.167	61.66
883.601	57.71
884.034	58.66
884.467	54.11
884.899	56.96
885.332	49.66
885.765	57.36
886.198	51.91
886.631	50.71
887.064	51.01
887.497	52.66
887.929	51.76
888.362	47.86
888.795	52.01
889.228	57.41
889.66	52.71
890.093	53.21
890.526	53.26
890.958	51.01
891.391	60.66
891.823	52.01
892.256	49.91
892.688	48.96
893.121	44.66
893.553	52.11
893.985	41.91
894.418	47.51
894.85	51.46
895.282	49.31
895.715	41.86
896.147	40.81
896.579	40.21
897.011	46.56
897.444	47.76
897.876	46.16
898.308	42.46
898.74	48.31
899.172	49.91
899.604	51.16
900.036	47.46
900.468	40.66
900.9	50.81
901.332	57.21
901.764	54.81
902.196	59.16
902.628	56.76
903.06	87.31
903.491	85.41
903.923	77.21
904.355	72.21
904.787	81.11
905.218	67.76
905.65	59.41
906.082	56.16
906.513	59.01
906.945	59.41
907.376	57.46
907.808	63.21
908.239	68.36
908.671	72.81
909.102	74.81
909.534	105.66
909.965	199.66
910.397	516.71
910.828	1500.51
911.259	904.46
911.691	482.21
912.122	277.41
912.553	142.91
912.984	82.16
913.415	69.71
913.847	65.86
914.278	60.56
914.709	56.76
915.14	46.56
915.571	47.71
916.002	47.06
916.433	44.66
916.864	45.71
917.295	52.26
917.726	59.41
918.157	70.66
918.587	74.91
919.018	71.11
919.449	67.11
919.88	73.26
920.311	113.46
920.741	318.96
921.172	551.31
921.603	273.46
922.033	174.96
922.464	112.26
922.895	72.96
923.325	52.01
923.756	54.91
924.186	70.71
924.617	119.21
925.047	175.06
925.478	164.71
925.908	109.36
926.338	78.11
926.769	57.31
927.199	52.26
927.629	44.76
928.06	45.51
928.49	44.66
928.92	39.46
929.35	35.56
929.78	28.06
930.21	30.16
930.641	26.31
931.071	30.76
931.501	27.16
931.931	27.06
932.361	26.76
932.791	29.46
933.221	31.61
933.651	45.51
934.08	69.31
934.51	45.46
934.94	38.01
935.37	29.96
935.8	21.96
936.229	23.11
936.659	23.16
937.089	38.01
937.519	56.86
937.948	72.01
938.378	48.76
938.807	31.21
939.237	23.16
939.666	16.61
940.096	16.16
940.525	10.76
940.955	18.21
941.384	14.26
941.814	16.61
942.243	8.06
942.672	12.66
943.102	10.86
943.531	10.41
943.96	8.56
944.39	13.06
944.819	12.06
945.248	10.51
945.677	12.91
946.106	13.31
946.535	14.96
946.964	11.61
947.393	7.56
947.822	12.41
948.251	15.31
948.68	17.36
949.109	11.81
949.538	10.51
949.967	12.06
950.396	10.76
950.825	13.91
951.254	11.81
951.682	5.06
952.111	7.96
952.54	12.66
952.969	8.21
953.397	3.86
953.826	9.71
954.254	11.96
954.683	10.51
955.112	10.21
955.54	9.31
955.969	8.46
956.397	13.51
956.826	9.11
957.254	11.76
957.682	10.71
958.111	10.96
958.539	8.31
958.967	6.41
959.396	13.26
959.824	7.91
960.252	7.81
960.68	10.56
961.109	7.66
961.537	16.01
961.965	5.06
962.393	12.91
962.821	10.16
963.249	12.36
963.677	20.51
964.105	95.51
964.533	159.01
964.961	77.81
965.389	42.76
965.817	23.61
966.245	15.36
966.672	8.06
967.1	8.46
967.528	6.81
967.956	8.16
968.383	10.66
968.811	8.61
969.239	7.86
969.666	6.26
970.094	10.86
970.522	5.21
970.949	7.66
971.377	-1.89
971.804	3.26
972.232	2.41
972.659	4.46
973.087	6.51
973.514	1.01
973.941	4.36
974.369	5.31
974.796	4.66
975.223	5.21
975.651	9.86
976.078	6.51
976.505	12.96
976.932	42.51
977.359	47.01
977.786	31.11
978.214	22.11
978.641	13.21
979.068	5.56
979.495	3.41
979.922	8.56
980.349	5.91
980.776	8.31
981.202	4.51
981.629	10.06
982.056	6.31
982.483	-2.54
982.91	10.81
983.337	1.91
983.763	7.26
984.19	4.31
984.617	4.26
985.043	4.96
985.47	10.61
985.897	8.91
986.323	7.11
986.75	0.81
987.176	5.76
987.603	4.81
988.029	6.06
988.456	7.51
988.882	2.86
989.308	5.16
989.735	3.16
990.161	8.81
990.587	5.51
991.014	4.36
991.44	8.76
991.866	3.91
992.292	3.76
992.719	0.56
993.145	9.96
993.571	8.01
993.997	10.41
994.423	6.66
994.849	-1.99
995.275	1.46
995.701	3.71
996.127	2.56
996.553	3.76
996.979	2.61
997.405	5.86
997.83	6.71
998.256	6.26
998.682	1.46
999.108	4.46
999.534	-5.24
999.959	6.66
1000.385	5.61
1000.811	-1.79
1001.236	-0.39
1001.662	2.46
1002.087	9.21
1002.513	1.56
1002.938	-0.79
1003.364	4.91
1003.789	9.16
1004.215	5.76
1004.64	6.61
1005.066	7.01
1005.491	6.46
1005.916	7.06
1006.342	4.81
1006.767	5.66
1007.192	5.96
1007.617	2.71
1008.042	5.06
1008.468	5.51
1008.893	6.56
1009.318	9.46
1009.743	17.21
1010.168	24.26
1010.593	22.96
1011.018	13.46
1011.443	7.31
1011.868	10.51
1012.293	6.66
1012.718	0.36
1013.143	-1.64
1013.567	5.76
1013.992	4.66
1014.417	5.96
1014.842	1.61
1015.267	4.96
1015.691	5.11
1016.116	5.61
1016.541	3.76
1016.965	4.66
1017.39	2.46
1017.814	-3.34
1018.239	-0.09
1018.663	-3.54
1019.088	-1.29
1019.512	4.11
1019.937	-3.74
1020.361	0.31
1020.785	1.61
1021.21	2.16
1021.634	-1.89
1022.058	3.36
1022.483	-6.64
1022.907	-3.34
1023.331	-4.29
1023.755	-1.94
1024.179	0.31
1024.604	-0.59
1025.028	3.11
1025.452	3.26
1025.876	4.56
1026.3	3.31
1026.724	1.66
1027.148	4.11
1027.572	3.51
1027.996	2.56
1028.42	1.81
1028.843	0.41
1029.267	-0.04
1029.691	2.51
1030.115	0.91
1030.539	-0.64
1030.962	-1.64
1031.386	1.16
1031.81	-1.44
1032.233	-3.44
1032.657	-2.84
1033.08	2.11
1033.504	-0.69
1033.927	-0.69
1034.351	0.06
1034.774	-1.24
1035.198	-4.49
1035.621	2.01
1036.045	-5.24
1036.468	7.81
1036.891	2.66
1037.315	4.66
1037.738	-1.39
1038.161	-2.44
1038.584	1.76
1039.008	-3.49
1039.431	-2.59
1039.854	-4.59
1040.277	4.61
1040.7	-0.79
1041.123	2.41
1041.546	-2.54
1041.969	3.16
1042.392	1.36
1042.815	-5.99
1043.238	-1.99
1043.661	2.76
1044.084	2.01
1044.507	-1.59
1044.93	2.56
1045.352	-2.54
1045.775	-1.54
1046.198	3.41
1046.621	3.36
1047.043	1.71
1047.466	1.66
1047.889	3.91
1048.311	2.96
1048.734	-1.29
1049.156	0.61
1049.579	-3.79
1050.001	0.96
1050.424	1.06
1050.846	-2.54
1051.269	-1.54
1051.691	0.16
1052.113	1.76
1052.536	-0.79
1052.958	-5.84
1053.38	-3.24
1053.802	-4.39
1054.225	-0.09
1054.647	2.11
1055.069	-6.04
1055.491	-1.29
1055.913	-0.94
1056.335	-7.54
1056.757	-7.94
1057.179	1.51
1057.601	-0.19
1058.023	-2.29
1058.445	-5.94
1058.867	1.56
1059.289	-1.34
1059.711	2.31
1060.133	3.46
1060.555	-4.49
1060.976	-3.29
1061.398	0.01
1061.82	1.01
1062.241	-0.69
1062.663	0.96
1063.085	-5.34
1063.506	-5.34
1063.928	-2.49
1064.35	-2.74
1064.771	1.11
1065.193	-8.84
1065.614	-1.79
1066.035	2.66
1066.457	5.01
1066.878	4.21
1067.3	0.81
1067.721	-2.89
1068.142	1.06
1068.564	1.86
1068.985	3.21
1069.406	-11.84
1069.827	1.56
1070.248	-3.89
1070.67	-2.89
1071.091	-4.59
1071.512	-3.04
1071.933	-1.04
1072.354	-6.79
1072.775	-3.59
1073.196	-3.29
1073.617	-6.24
1074.038	-2.44
1074.459	-5.94
1074.88	-3.69
1075.3	-0.64
1075.721	-0.19
1076.142	-3.74
1076.563	-5.94
1076.983	0.46
1077.404	-7.49
1077.825	-0.24
1078.246	-7.29
1078.666	-5.59
1079.087	-2.54
1079.507	-5.34
1079.928	-1.24
1080.348	1.56
1080.769	0.31
1081.189	1.21
1081.61	-7.39
1082.03	-2.59
1082.451	-0.59
1082.871	-8.64
1083.291	-6.34
1083.711	-2.24
1084.132	-0.79
1084.552	-3.94
1084.972	-3.19
1085.392	-8.29
1085.813	-1.29
1086.233	-3.94
1086.653	-3.34
1087.073	-7.84
1087.493	-5.19
1087.913	-3.34
1088.333	-1.84
1088.753	-1.54
1089.173	1.31
1089.593	-1.19
1090.013	-5.14
1090.433	-5.39
1090.852	2.56
1091.272	-4.89
1091.692	0.61
1092.112	-0.54
1092.531	-3.04
1092.951	-4.29
1093.371	-1.99
1093.79	-5.44
1094.21	-1.64
1094.63	1.81
1095.049	-0.24
1095.469	-8.54
1095.888	0.91
1096.308	-1.04
1096.727	-4.44
1097.146	-3.84
1097.566	-2.49
1097.985	-3.54
1098.405	2.51
1098.824	-0.84
1099.243	-6.84
1099.662	-6.19
1100.082	-5.69
1100.501	-1.79
1100.92	0.76
1101.339	-0.74
1101.758	-1.79
