Data from MSPlasma+Separation6_Subt14_10-15-00-786.txt Node
Date: Fri Jul 21 10:15:00 EDT 2017
User: Ender
Spectrometer: HR+D1039
Trigger mode: 0
Integration Time (sec): 6.430000E-3
Scans to average: 20
Electric dark correction enabled: true
Nonlinearity correction enabled: false
Boxcar width: 0
XAxis mode: Wavelengths
Number of Pixels in Spectrum: 2048
>>>>>Begin Spectral Data<<<<<
187.836	-0.4
188.309	-0.4
188.782	-0.4
189.255	3.7
189.728	4.65
190.201	-1.45
190.674	2.05
191.147	-3.15
191.619	-3.65
192.092	-1.9
192.565	0.65
193.038	2.3
193.511	1.9
193.984	4.85
194.456	-1
194.929	2.1
195.402	-5.15
195.874	-5.45
196.347	1.1
196.82	2.75
197.292	-0.05
197.765	1.2
198.237	0.15
198.71	-3.85
199.182	0.6
199.655	2.45
200.127	0.75
200.6	0.55
201.072	1.5
201.544	-1.1
202.017	0.6
202.489	4.1
202.961	-0.1
203.433	-1.9
203.906	-1
204.378	3.7
204.85	7.15
205.322	2
205.794	7.4
206.266	2.55
206.739	7.95
207.211	1
207.683	1.75
208.155	3.6
208.627	-0.55
209.099	6.15
209.57	0.3
210.042	3.7
210.514	4.45
210.986	19.7
211.458	24.8
211.93	12.9
212.402	7.1
212.873	0.95
213.345	-2.5
213.817	4.85
214.288	2.95
214.76	3.2
215.232	-2.15
215.703	3.55
216.175	4.3
216.646	3.75
217.118	2.6
217.589	-4.5
218.061	5
218.532	3.15
219.004	6.35
219.475	13.05
219.946	28.6
220.418	42.95
220.889	28.95
221.36	14.05
221.832	12.7
222.303	4.5
222.774	8.05
223.245	3.1
223.717	5.35
224.188	8.4
224.659	9.6
225.13	1.15
225.601	3.5
226.072	8.45
226.543	10.7
227.014	6.8
227.485	7.55
227.956	10.2
228.427	15.15
228.898	10.75
229.369	13.15
229.839	11.9
230.31	14.5
230.781	16.85
231.252	18.15
231.722	26.25
232.193	33.4
232.664	42.95
233.135	60.75
233.605	69
234.076	51.85
234.546	42.7
235.017	46.6
235.487	47.1
235.958	39.35
236.428	66.45
236.899	114.25
237.369	120.2
237.84	94
238.31	112.85
238.78	110.35
239.251	113.55
239.721	117.2
240.191	88.4
240.662	53.95
241.132	44.1
241.602	51.35
242.072	76.2
242.542	92.95
243.013	64.65
243.483	54.45
243.953	45.95
244.423	47.8
244.893	51.05
245.363	62.05
245.833	54.85
246.303	63
246.773	84.35
247.243	85.45
247.712	91.8
248.182	118.35
248.652	125.8
249.122	180.05
249.592	337.45
250.061	507.9
250.531	809.35
251.001	612.2
251.471	514.25
251.94	389.6
252.41	205.4
252.879	144.05
253.349	112.1
253.818	87.5
254.288	73.8
254.757	76.2
255.227	100.45
255.696	78.75
256.166	75.25
256.635	74.35
257.105	100.7
257.574	131.95
258.043	136.9
258.513	242.95
258.982	305.45
259.451	211.8
259.92	222.65
260.389	199.65
260.859	143.4
261.328	173.2
261.797	254.2
262.266	222.7
262.735	99.9
263.204	64.75
263.673	59.5
264.142	47.55
264.611	47.1
265.08	55.6
265.549	61.25
266.018	54.7
266.487	56.1
266.955	50.75
267.424	60.85
267.893	61.2
268.362	60.05
268.83	58.75
269.299	61.3
269.768	69.5
270.236	84.8
270.705	97.4
271.174	93.95
271.642	104.35
272.111	114.7
272.579	190.8
273.048	292.65
273.516	376.35
273.985	382.6
274.453	287.35
274.922	173.35
275.39	110.9
275.858	100.2
276.327	83.65
276.795	83.95
277.263	97.3
277.731	131.7
278.2	256.3
278.668	332.95
279.136	256.75
279.604	161.8
280.072	100.5
280.54	87.8
281.008	90.5
281.477	89.5
281.945	92.95
282.413	94.55
282.881	98.55
283.348	94.9
283.816	103.15
284.284	110.2
284.752	103.15
285.22	100.85
285.688	115.55
286.156	193.7
286.623	542.95
287.091	1083
287.559	560.05
288.026	209.45
288.494	129.85
288.962	107.8
289.429	104.1
289.897	93.9
290.364	91.05
290.832	94.55
291.3	94.55
291.767	98.05
292.234	101.2
292.702	105.5
293.169	110.2
293.637	115.9
294.104	115.15
294.571	114.5
295.039	111.7
295.506	110.15
295.973	116.55
296.44	107.65
296.908	117.6
297.375	141.75
297.842	134.75
298.309	119.95
298.776	116.4
299.243	119.05
299.71	116
300.177	115.9
300.644	125.85
301.111	140.05
301.578	133.7
302.045	116.7
302.512	118.5
302.979	120.5
303.446	129.7
303.913	127.95
304.379	144.25
304.846	154.85
305.313	176.05
305.78	212.65
306.246	260.35
306.713	278.25
307.18	238.4
307.646	263.3
308.113	230.2
308.579	177.25
309.046	168.85
309.512	175
309.979	163
310.445	153.8
310.912	156
311.378	151.85
311.845	156.2
312.311	150.35
312.777	147.5
313.244	153.8
313.71	162.9
314.176	181.15
314.642	203.8
315.109	246.2
315.575	229.5
316.041	206.15
316.507	195.35
316.973	215.95
317.439	214.7
317.905	237.35
318.371	234.45
318.837	223.05
319.303	232.4
319.769	213.85
320.235	237.05
320.701	274.3
321.167	298.35
321.633	356.95
322.099	498.95
322.564	682.3
323.03	530.9
323.496	367.45
323.962	344.5
324.427	319.3
324.893	278.35
325.359	257.1
325.824	226.15
326.29	237.5
326.755	241.1
327.221	243.5
327.686	261.15
328.152	233.7
328.617	214.2
329.083	219.6
329.548	236.1
330.014	241.35
330.479	264.1
330.944	318.3
331.41	364.2
331.875	352.15
332.34	359.45
332.805	414.8
333.271	539.5
333.736	727.7
334.201	648.6
334.666	473.95
335.131	546.75
335.596	423.35
336.061	456.2
336.526	450.75
336.991	389.35
337.456	426.35
337.921	339.9
338.386	274.15
338.851	250.15
339.316	224
339.781	225.1
340.246	218.8
340.711	225.1
341.175	228.7
341.64	235.1
342.105	240.1
342.569	250.55
343.034	269.9
343.499	281.9
343.963	266.25
344.428	264.35
344.893	269.4
345.357	278.35
345.822	269.6
346.286	272.4
346.751	285.15
347.215	284.9
347.679	293.6
348.144	313.7
348.608	307.8
349.073	314.05
349.537	356.9
350.001	352.9
350.465	329.4
350.93	312.65
351.394	310.55
351.858	314.9
352.322	327.55
352.786	328.75
353.25	326.45
353.715	321.95
354.179	344.1
354.643	356.15
355.107	373.35
355.571	390.5
356.035	402.5
356.498	386.35
356.962	414.65
357.426	409.35
357.89	369.9
358.354	344.95
358.818	337.95
359.281	345.65
359.745	364.4
360.209	359.8
360.673	367.7
361.136	372.1
361.6	363.85
362.064	393.9
362.527	400.15
362.991	402.35
363.454	404
363.918	408.7
364.381	397.2
364.845	390.6
365.308	383.6
365.772	385.5
366.235	384.3
366.698	411.5
367.162	509.85
367.625	569.35
368.088	452.95
368.552	406.75
369.015	412.8
369.478	446.55
369.941	456.6
370.404	462.5
370.867	497.65
371.331	503.65
371.794	506
372.257	572.85
372.72	597.2
373.183	573.75
373.646	578.7
374.109	583.45
374.572	678.8
375.035	809.6
375.497	608.35
375.96	475.3
376.423	443.85
376.886	445.2
377.349	457.8
377.811	462.85
378.274	470.8
378.737	478.8
379.199	494.4
379.662	500
380.125	544.7
380.587	601.75
381.05	641.95
381.512	640.9
381.975	612.25
382.437	609.75
382.9	608.4
383.362	604.9
383.825	648.7
384.287	822.2
384.75	923.85
385.212	814.7
385.674	668.4
386.136	601.95
386.599	604.65
387.061	628.45
387.523	649.9
387.985	654.75
388.447	680.2
388.91	761.75
389.372	933.75
389.834	871.2
390.296	719.3
390.758	720.55
391.22	736
391.682	911.25
392.144	1432.2
392.606	1339.95
393.068	774.3
393.529	703.95
393.991	690.75
394.453	675.1
394.915	706.2
395.377	870.4
395.838	1073.05
396.3	753.3
396.762	584.15
397.224	556.35
397.685	545.05
398.147	549.15
398.608	560.95
399.07	556.25
399.531	547.5
399.993	562.35
400.454	566.4
400.916	564.45
401.377	583.95
401.839	584.65
402.3	582.7
402.762	616.1
403.223	681
403.684	692.9
404.145	630.85
404.607	614.55
405.068	624.1
405.529	640.3
405.99	644.9
406.451	653.3
406.913	645.05
407.374	646.55
407.835	645.8
408.296	676.25
408.757	677.5
409.218	702.75
409.679	697.75
410.14	713.25
410.601	743.1
411.062	772.9
411.522	898.55
411.983	994.55
412.444	843.8
412.905	742.7
413.366	738.25
413.826	757.85
414.287	851.8
414.748	1009.75
415.208	1029.55
415.669	861.4
416.13	788.7
416.59	765.95
417.051	790.95
417.511	834.45
417.972	891.95
418.432	963.15
418.893	1064.85
419.353	1011.45
419.814	781.65
420.274	706.25
420.734	700.85
421.195	749
421.655	779.35
422.115	752.85
422.576	726.7
423.036	734.55
423.496	756.35
423.956	786.5
424.416	848.85
424.876	958.15
425.336	957.1
425.797	953.1
426.257	954.45
426.717	904.85
427.177	836.4
427.637	869
428.097	918
428.556	961.9
429.016	1053.3
429.476	1041.6
429.936	994.5
430.396	973
430.856	981.15
431.315	1009.1
431.775	1087.45
432.235	1129.8
432.694	1166.75
433.154	1090.45
433.614	1057.85
434.073	1018
434.533	929.6
434.993	897.85
435.452	904.95
435.912	895.9
436.371	885.4
436.83	885.4
437.29	899.5
437.749	848.1
438.209	834.15
438.668	845.9
439.127	857.75
439.587	834.65
440.046	802.6
440.505	816.2
440.964	817.05
441.424	841.8
441.883	851.65
442.342	803.2
442.801	783
443.26	806.7
443.719	797.9
444.178	797.85
444.637	799.95
445.096	794.25
445.555	817.65
446.014	815.05
446.473	784.2
446.932	789.15
447.391	800.95
447.849	811.75
448.308	817.8
448.767	834.6
449.226	853.9
449.685	864.7
450.143	894.55
450.602	893
451.061	860.75
451.519	879.7
451.978	904.05
452.436	934.5
452.895	887.55
453.353	845.3
453.812	863.15
454.27	845.45
454.729	828
455.187	833.75
455.646	838.6
456.104	842.45
456.562	827.95
457.021	830.75
457.479	794.8
457.937	822.95
458.395	840.55
458.854	826.65
459.312	815.75
459.77	827.3
460.228	840.05
460.686	847.4
461.144	858.2
461.602	845.6
462.06	842.1
462.518	867.15
462.976	862.35
463.434	873
463.892	872.65
464.35	888.7
464.808	910.95
465.266	915.4
465.724	932.7
466.181	934.25
466.639	930.2
467.097	973.45
467.555	998.4
468.012	996.4
468.47	1003.9
468.928	1037.6
469.385	1058.5
469.843	1075.3
470.3	1063.85
470.758	1092.95
471.215	1114.9
471.673	1146
472.13	1171.25
472.588	1195
473.045	1196.05
473.503	1215.35
473.96	1279.5
474.417	1285.05
474.875	1347.85
475.332	1398.2
475.789	1415.9
476.246	1451.6
476.704	1520.05
477.161	1555.75
477.618	1602.95
478.075	1699.7
478.532	1818.3
478.989	1983.2
479.446	2199.25
479.903	2315.45
480.36	2555.85
480.817	2717.4
481.274	2923.95
481.731	3192.05
482.188	3451.45
482.645	3743.2
483.102	3980.4
483.558	4253.8
484.015	4490.75
484.472	4495.8
484.929	4347.4
485.385	4150.95
485.842	4052.65
486.299	3840.2
486.755	3438.35
487.212	3079.15
487.668	2753.6
488.125	2556.3
488.582	2344.15
489.038	2254.55
489.494	2184.05
489.951	2097.15
490.407	2054
490.864	2035
491.32	1974.85
491.776	1950.75
492.233	1945.25
492.689	1923.3
493.145	1886.2
493.602	1880.05
494.058	1918.8
494.514	1961.25
494.97	1972.95
495.426	1992.5
495.882	1984.5
496.338	2003.6
496.794	2095.35
497.251	2104.3
497.707	2112.45
498.163	2108.65
498.618	2109.05
499.074	2125.95
499.53	2161.15
499.986	2199.95
500.442	2226.45
500.898	2226.9
501.354	2264.25
501.809	2267.15
502.265	2309.9
502.721	2424.7
503.177	2468.95
503.632	2336.3
504.088	2358.8
504.543	2590.1
504.999	2410.9
505.455	2129.55
505.91	2021.6
506.366	1978.45
506.821	1990.7
507.277	1973.2
507.732	1976.2
508.187	1967.95
508.643	1986.75
509.098	2003.55
509.553	2009.4
510.009	2043.4
510.464	2082.95
510.919	2100.8
511.375	2126.7
511.83	2154.8
512.285	2196.8
512.74	2244.5
513.195	2272.8
513.65	2317.2
514.105	2351.8
514.56	2361
515.015	2406.5
515.47	2436.4
515.925	2419.65
516.38	2421.9
516.835	2403.45
517.29	2400.55
517.745	2411.6
518.2	2375.45
518.655	2296.9
519.109	2264.5
519.564	2261.3
520.019	2240.9
520.474	2202.25
520.928	2184
521.383	2186.7
521.838	2185.3
522.292	2159.25
522.747	2116.25
523.201	2126.3
523.656	2089.3
524.11	2088.15
524.565	2078.55
525.019	2087.5
525.474	2097.9
525.928	2101.45
526.382	2066.8
526.837	2033
527.291	2060.05
527.745	2045.25
528.2	2048.2
528.654	2024.8
529.108	2044.6
529.562	2044.15
530.016	2039.35
530.47	2042.8
530.925	2034.4
531.379	2052.8
531.833	2079.5
532.287	2064.55
532.741	2045.45
533.195	2054.1
533.649	2041.5
534.103	2050.7
534.556	2042
535.01	2050.6
535.464	2051.95
535.918	2056.9
536.372	2062.45
536.826	2054.55
537.279	2050.8
537.733	2039.6
538.187	2048.95
538.64	2054.2
539.094	2077.4
539.548	2104.65
540.001	2093.35
540.455	2106.7
540.908	2113.4
541.362	2136.05
541.815	2144.15
542.269	2195.35
542.722	2182.9
543.175	2212
543.629	2232.9
544.082	2246.2
544.536	2261
544.989	2255.9
545.442	2272.65
545.895	2283.55
546.349	2272.6
546.802	2288.15
547.255	2281.6
547.708	2304.95
548.161	2316.65
548.614	2322.25
549.067	2326.05
549.52	2325.15
549.973	2286.4
550.426	2288.7
550.879	2257.75
551.332	2259.7
551.785	2282.8
552.238	2291.95
552.691	2306.5
553.144	2329.15
553.596	2363.55
554.049	2393.3
554.502	2438.95
554.955	2484.95
555.407	2524.5
555.86	2498.65
556.313	2458.9
556.765	2436.2
557.218	2427.1
557.67	2417.7
558.123	2387.65
558.576	2361.4
559.028	2355.3
559.48	2399.1
559.933	2381.75
560.385	2318.15
560.838	2229.15
561.29	2170.45
561.742	2160.65
562.195	2113.15
562.647	2105.75
563.099	2090.1
563.551	2088.95
564.004	2113.25
564.456	2100.65
564.908	2044.75
565.36	2002.9
565.812	1975.15
566.264	1946
566.716	1929.7
567.168	1894.7
567.62	1898.8
568.072	1892.6
568.524	1867.1
568.976	1851.8
569.428	1830.9
569.88	1828.1
570.332	1852.65
570.784	1841.6
571.235	1820.1
571.687	1847.4
572.139	1848.7
572.59	1853.05
573.042	1870.8
573.494	1874
573.945	1843.55
574.397	1807.25
574.849	1809.85
575.3	1809.95
575.752	1794.1
576.203	1774.5
576.655	1785.65
577.106	1758.8
577.557	1750.25
578.009	1740
578.46	1747.15
578.912	1721.85
579.363	1739.3
579.814	1726.15
580.265	1735.3
580.717	1727.45
581.168	1730.1
581.619	1744.7
582.07	1770.6
582.521	1758
582.972	1752.25
583.423	1773.1
583.875	1815.1
584.326	1929.6
584.777	2115.1
585.227	2340.15
585.678	2526.25
586.129	2576.1
586.58	2608.85
587.031	2640.35
587.482	2822.2
587.933	3362.5
588.384	3058.65
588.834	2476.15
589.285	2053.35
589.736	1985
590.186	1989.6
590.637	1974.3
591.088	1927.5
591.538	1901.75
591.989	1886.1
592.439	1867.2
592.89	1855.5
593.34	1861.65
593.791	1881.85
594.241	1895.35
594.692	1924.25
595.142	1891.6
595.593	1860
596.043	1865.9
596.493	1885.4
596.943	1940.85
597.394	1908
597.844	1873.8
598.294	1909.6
598.744	1966.65
599.195	2061.5
599.645	2167.75
600.095	2294.55
600.545	2393.6
600.995	2508.5
601.445	2589.5
601.895	2710.3
602.345	2800.2
602.795	2755.95
603.245	2619.9
603.695	2470.5
604.145	2329.2
604.594	2219.45
605.044	2111.25
605.494	1984.3
605.944	1878.4
606.393	1853.35
606.843	1824.15
607.293	1824.6
607.743	1819.7
608.192	1833.4
608.642	1845.9
609.091	1849.7
609.541	1845.3
609.99	1836
610.44	1796.55
610.889	1794.55
611.339	1756.8
611.788	1744.45
612.238	1770.75
612.687	1798.15
613.136	1826.65
613.586	1851.7
614.035	1848
614.484	1873.95
614.933	1887.95
615.383	1839.8
615.832	1791
616.281	1738.25
616.73	1689.25
617.179	1635.45
617.628	1600.95
618.077	1578.4
618.526	1551.8
618.975	1544.6
619.424	1526.55
619.873	1520.6
620.322	1507.2
620.771	1509.4
621.22	1487.3
621.669	1467.1
622.118	1449.8
622.567	1436.7
623.015	1416.15
623.464	1408.2
623.913	1395.85
624.361	1385.95
624.81	1388.5
625.259	1368.2
625.707	1359.8
626.156	1370.15
626.604	1383.1
627.053	1389.2
627.501	1379.05
627.95	1390.05
628.398	1419.8
628.847	1395.25
629.295	1401.1
629.744	1420.85
630.192	1461.9
630.64	1566.75
631.089	1744.3
631.537	1835.65
631.985	1839.55
632.433	1921.5
632.881	1912.2
633.33	2319.25
633.778	2556.95
634.226	1756.4
634.674	1608.1
635.122	1602.5
635.57	1630.65
636.018	1923.85
636.466	1532.35
636.914	1353.35
637.362	1354.9
637.81	1359.65
638.258	1402.2
638.705	1408.75
639.153	1456.15
639.601	1460.1
640.049	1481
640.497	1525.6
640.944	1568.5
641.392	1499.85
641.84	1421.65
642.287	1354.25
642.735	1354.5
643.182	1337.6
643.63	1338.45
644.078	1346.4
644.525	1366.9
644.973	1399.45
645.42	1417.55
645.867	1436.7
646.315	1453.6
646.762	1511.15
647.21	1552.75
647.657	1632.8
648.104	1699.85
648.551	1762.65
648.999	1909.85
649.446	2114.85
649.893	2377.2
650.34	2811.65
650.787	3496.85
651.234	4555.05
651.682	6401.6
652.129	9179.45
652.576	13182.2
653.023	15535.65
653.47	15538.85
653.917	15538.9
654.363	15538.8
654.81	15535.8
655.257	15536.45
655.704	15514
656.151	9975.55
656.598	6446.3
657.044	4536.15
657.491	3539.95
657.938	2851.15
658.385	2402.65
658.831	2121.05
659.278	1892.8
659.724	1725.25
660.171	1604.25
660.618	1492
661.064	1393.2
661.511	1350.6
661.957	1302
662.404	1274.4
662.85	1262.05
663.296	1234.15
663.743	1216.55
664.189	1200
664.635	1194.35
665.082	1176.3
665.528	1162.45
665.974	1138.25
666.42	1123.5
666.867	1142.15
667.313	1160.5
667.759	1228.65
668.205	1225.35
668.651	1236.1
669.097	1201.75
669.543	1321.95
669.989	1230.5
670.435	1062.4
670.881	1062.45
671.327	1089.6
671.773	1170.25
672.219	1254.4
672.665	1327.85
673.11	1371.45
673.556	1385.2
674.002	1421
674.448	1427.05
674.893	1218.3
675.339	1052.05
675.785	989.55
676.23	940.9
676.676	902.7
677.122	886.85
677.567	859.3
678.013	830.55
678.458	823.7
678.904	817.7
679.349	813.05
679.794	807
680.24	811.05
680.685	802.85
681.131	808.75
681.576	806.3
682.021	810.85
682.466	822.9
682.912	827.8
683.357	863.45
683.802	937
684.247	1028.6
684.692	1095.65
685.137	1128.7
685.583	1154.9
686.028	1210.15
686.473	1144.05
686.918	986.85
687.363	915
687.807	866
688.252	828.85
688.697	796.2
689.142	772.7
689.587	776.75
690.032	788.05
690.477	823
690.921	867.4
691.366	911.35
691.811	940.85
692.255	1018.5
692.7	1253
693.145	1805.75
693.589	2748.05
694.034	3246.35
694.478	3445.3
694.923	3137.75
695.367	4467.25
695.812	2703.15
696.256	1156.3
696.701	849.95
697.145	791.25
697.59	761.5
698.034	752.9
698.478	754.2
698.922	764.2
699.367	780.75
699.811	816.1
700.255	883.45
700.699	969.65
701.143	1047.15
701.588	1090.5
702.032	1139.85
702.476	1176.2
702.92	1246.05
703.364	1638.6
703.808	2513.65
704.252	3121.15
704.696	3270.9
705.14	3077.1
705.584	4218.25
706.027	2345.4
706.471	1186
706.915	884.5
707.359	782.8
707.803	743.1
708.246	718.45
708.69	715.6
709.134	711.05
709.577	703.75
710.021	715.65
710.465	709.55
710.908	704.55
711.352	739.15
711.795	820.05
712.239	872.75
712.682	906.95
713.126	899.25
713.569	995.9
714.012	829.7
714.456	725.7
714.899	685.45
715.342	633.9
715.786	613.35
716.229	594.1
716.672	574.45
717.115	584
717.558	594.6
718.002	605.85
718.445	627.8
718.888	666.05
719.331	677.95
719.774	691.35
720.217	669.2
720.66	637.7
721.103	611.65
721.546	568.35
721.989	558.5
722.432	547.85
722.874	545
723.317	555.3
723.76	612.4
724.203	744.2
724.645	999.75
725.088	1151.25
725.531	1132.9
725.974	1230.5
726.416	1107.7
726.859	687.65
727.301	570.55
727.744	545.4
728.187	550.5
728.629	560.95
729.071	586.6
729.514	609.2
729.956	629.6
730.399	639.15
730.841	637.35
731.283	616.45
731.726	593.15
732.168	608.4
732.61	646.8
733.053	696.65
733.495	765.65
733.937	849.1
734.379	1006.55
734.821	1289.55
735.263	2059.65
735.705	3713.9
736.148	5401.8
736.59	5332.95
737.032	5785
737.474	4744.2
737.916	1833.15
738.357	963
738.799	746.45
739.241	694.1
739.683	699.05
740.125	709.75
740.567	708.15
741.008	744.25
741.45	767.85
741.892	804.1
742.334	800.35
742.775	786.95
743.217	750.8
743.658	645.1
744.1	654.05
744.542	733.05
744.983	756.3
745.425	793.75
745.866	785.8
746.307	701.75
746.749	768.1
747.19	1113.35
747.632	2180.15
748.073	4046.1
748.514	5533.95
748.956	7349.7
749.397	8533.1
749.838	5877.55
750.279	5581.8
750.72	2871.55
751.162	1214
751.603	702.95
752.044	568.35
752.485	503.65
752.926	469.65
753.367	451.3
753.808	439.6
754.249	432.6
754.69	433.5
755.131	421.8
755.572	422.55
756.013	427.9
756.453	427.95
756.894	435.5
757.335	432.95
757.776	439.8
758.216	459.95
758.657	479.7
759.098	531
759.538	653.2
759.979	939.7
760.42	1917.75
760.86	4932.6
761.301	10091.2
761.741	11692.9
762.182	13344.2
762.622	8601.8
763.063	3122.25
763.503	1392.2
763.943	1087.25
764.384	1202.5
764.824	1146.2
765.264	1146.75
765.705	794.45
766.145	558.55
766.585	493.7
767.025	534
767.465	709.45
767.906	868.1
768.346	900.95
768.786	933.2
769.226	927.75
769.666	1571.15
770.106	3408.45
770.546	4759.9
770.986	5332.8
771.426	4013.25
771.866	1692.25
772.306	772.95
772.745	488
773.185	420.95
773.625	433.55
774.065	512
774.505	867.55
774.944	1752.5
775.384	2641.15
775.824	3005.5
776.263	2445.7
776.703	1178.7
777.142	597.35
777.582	400.2
778.021	365.95
778.461	337.55
778.9	323.9
779.34	298.9
779.779	285.15
780.219	276.6
780.658	267.45
781.097	266.05
781.537	259.25
781.976	259.75
782.415	260.1
782.855	253.55
783.294	254.6
783.733	250.15
784.172	259.05
784.611	252.65
785.05	261.25
785.489	270.05
785.928	271.2
786.367	279.4
786.806	291.8
787.245	319.45
787.684	328.9
788.123	324.85
788.562	309.75
789.001	293.6
789.44	289.05
789.879	286.7
790.317	293.3
790.756	310.25
791.195	359.35
791.634	486.6
792.072	885.75
792.511	2185.7
792.95	3951.1
793.388	4732.05
793.827	3055.75
794.265	1399.55
794.704	675.55
795.142	409.5
795.581	342.6
796.019	305.8
796.458	308.7
796.896	314.95
797.334	364.75
797.773	491.2
798.211	950.8
798.649	1963.5
799.087	3297.35
799.526	4612.45
799.964	4714.85
800.402	3226.45
800.84	1469.9
801.278	714.3
801.716	442.4
802.154	354.35
802.592	337.5
803.03	336.1
803.468	340.25
803.906	346.1
804.344	337.6
804.782	333.6
805.22	333.15
805.658	346.15
806.096	366.5
806.533	406.2
806.971	521.25
807.409	761.95
807.847	1542.5
808.284	3931.85
808.722	6838.7
809.16	9556.05
809.597	12932.1
810.035	15347.2
810.472	10254.75
810.91	4363.45
811.347	1937.35
811.785	914.45
812.222	569.9
812.66	446.2
813.097	383.45
813.535	327.9
813.972	296.4
814.409	278.1
814.846	261.2
815.284	252
815.721	252
816.158	273.3
816.595	352.4
817.032	424.35
817.47	398.15
817.907	306.4
818.344	271.35
818.781	262.8
819.218	302.7
819.655	440
820.092	556.15
820.529	516.6
820.966	426.2
821.403	319.3
821.839	282.95
822.276	293
822.713	335.4
823.15	323.5
823.587	346.55
824.023	642.65
824.46	1606.45
824.897	2776.25
825.333	2139.1
825.77	982.05
826.206	518.95
826.643	301.85
827.08	223.85
827.516	197.6
827.953	190.1
828.389	176.9
828.825	170
829.262	163.9
829.698	153.5
830.135	152.45
830.571	151.05
831.007	151.5
831.443	152
831.88	157.15
832.316	163.5
832.752	158.85
833.188	166.8
833.624	160.55
834.06	169.15
834.497	163.5
834.933	168.75
835.369	176.9
835.805	193.85
836.241	201.3
836.677	218.1
837.112	254.2
837.548	313.55
837.984	470.5
838.42	1011.4
838.856	2830.4
839.292	5526.9
839.727	4033.65
840.163	2757.35
840.599	4208.05
841.034	6392.95
841.47	3151.8
841.906	1551.95
842.341	884.95
842.777	784.7
843.212	941.55
843.648	552.6
844.083	341.95
844.519	234.5
844.954	186
845.39	155.75
845.825	152.65
846.261	140.75
846.696	138.9
847.131	131.6
847.566	138.1
848.002	142.6
848.437	151
848.872	156.6
849.307	196.1
849.742	355
850.177	922.95
850.613	1946.2
851.048	1377.1
851.483	634.4
851.918	358.75
852.353	206.55
852.788	161.5
853.223	139.3
853.657	122
854.092	113.15
854.527	116.3
854.962	119.6
855.397	125.7
855.832	110.65
856.266	101.65
856.701	99.35
857.136	103.5
857.57	118.4
858.005	138.9
858.44	122.15
858.874	119.3
859.309	124.5
859.743	125.95
860.178	113.65
860.612	123.3
861.047	154.8
861.481	207.3
861.915	143.25
862.35	116.95
862.784	92.6
863.218	95.2
863.653	97.85
864.087	124.85
864.521	160.95
864.955	272.4
865.39	455.45
865.824	323.55
866.258	374.3
866.692	530.85
867.126	384.7
867.56	210.7
867.994	140.5
868.428	124.65
868.862	146.7
869.296	135.7
869.73	165.95
870.164	143.3
870.598	125.7
871.031	100.95
871.465	91.5
871.899	75.5
872.333	69.15
872.766	70.9
873.2	72.8
873.634	72.4
874.067	72.85
874.501	79.75
874.935	74.8
875.368	81.15
875.802	69.75
876.235	65.65
876.669	62.35
877.102	57.15
877.535	60.75
877.969	55.3
878.402	57.45
878.836	56
879.269	56.45
879.702	57
880.135	59.8
880.569	69.3
881.002	54.7
881.435	56.65
881.868	56.55
882.301	54.65
882.734	56.05
883.167	56.55
883.601	54
884.034	51.5
884.467	44.3
884.899	52.15
885.332	41.35
885.765	45.55
886.198	44.45
886.631	46.65
887.064	49.6
887.497	48.5
887.929	49.45
888.362	43.9
888.795	42.65
889.228	48.85
889.66	45.9
890.093	41.4
890.526	48.2
890.958	44.3
891.391	44.5
891.823	43.55
892.256	44.7
892.688	43.65
893.121	43.2
893.553	43.35
893.985	41.2
894.418	37.95
894.85	40.75
895.282	43.3
895.715	38.05
896.147	37.75
896.579	37.55
897.011	41.85
897.444	42.55
897.876	36.35
898.308	38.05
898.74	39.85
899.172	46.5
899.604	41
900.036	44.9
900.468	34.8
900.9	41.2
901.332	50.55
901.764	52.2
902.196	49.15
902.628	48.85
903.06	68.7
903.491	75.3
903.923	62
904.355	64.7
904.787	75.4
905.218	57.15
905.65	55.4
906.082	48.15
906.513	46.65
906.945	50.75
907.376	54.2
907.808	56.55
908.239	63.8
908.671	66.55
909.102	68.25
909.534	91.75
909.965	180.55
910.397	453.35
910.828	1299.55
911.259	793
911.691	430.45
912.122	244.8
912.553	123.65
912.984	75.55
913.415	63.45
913.847	56.35
914.278	55.25
914.709	42.5
915.14	44.85
915.571	44.6
916.002	41.2
916.433	39.4
916.864	40.45
917.295	42.6
917.726	52.25
918.157	63.95
918.587	63.75
919.018	58.3
919.449	56.05
919.88	68.15
920.311	99.95
920.741	276.05
921.172	479.1
921.603	237.35
922.033	157.7
922.464	100.45
922.895	69.75
923.325	52.4
923.756	48.55
924.186	64.75
924.617	111.45
925.047	178.85
925.478	159
925.908	111.5
926.338	79.05
926.769	52.6
927.199	48.35
927.629	44.35
928.06	43.05
928.49	39.5
928.92	38.35
929.35	30.9
929.78	29.5
930.21	29.55
930.641	22.35
931.071	23.35
931.501	21.3
931.931	15.75
932.361	21.9
932.791	26.4
933.221	28.6
933.651	40.2
934.08	66.5
934.51	41.25
934.94	33.5
935.37	28.35
935.8	23.25
936.229	16.55
936.659	18
937.089	30.85
937.519	44.95
937.948	64.05
938.378	38.3
938.807	26.2
939.237	20.9
939.666	21.95
940.096	13.2
940.525	12.75
940.955	16.3
941.384	9.55
941.814	15.1
942.243	11.7
942.672	10.45
943.102	10.55
943.531	11.7
943.96	9
944.39	10.8
944.819	14.6
945.248	11.35
945.677	6.7
946.106	10.2
946.535	8.95
946.964	10.6
947.393	6.55
947.822	12.8
948.251	19.75
948.68	12.3
949.109	10.15
949.538	11.35
949.967	9.7
950.396	13.6
950.825	11.05
951.254	8.55
951.682	4.45
952.111	3.7
952.54	4.45
952.969	4.9
953.397	7
953.826	6.8
954.254	11.25
954.683	9.35
955.112	12.3
955.54	5
955.969	6.8
956.397	12.9
956.826	4.3
957.254	5.05
957.682	7.95
958.111	9.95
958.539	9.15
958.967	9.55
959.396	9.65
959.824	8.45
960.252	7.2
960.68	8.75
961.109	11.9
961.537	13.85
961.965	4.7
962.393	6.6
962.821	5.65
963.249	8.5
963.677	15.1
964.105	81.25
964.533	139
964.961	68.75
965.389	42.2
965.817	20.65
966.245	13.05
966.672	10.5
967.1	10.05
967.528	4.25
967.956	8.8
968.383	7.55
968.811	4.2
969.239	6.55
969.666	7.65
970.094	3.3
970.522	3.9
970.949	4.6
971.377	-0.7
971.804	1.45
972.232	0.6
972.659	3.85
973.087	7.3
973.514	7.6
973.941	1.05
974.369	4.75
974.796	5.4
975.223	5.1
975.651	8.35
976.078	2.6
976.505	6.85
976.932	35.35
977.359	42.45
977.786	23.7
978.214	23.75
978.641	8.15
979.068	6.9
979.495	4.45
979.922	7.95
980.349	6.6
980.776	5.7
981.202	5
981.629	7.55
982.056	1.05
982.483	-0.1
982.91	5.6
983.337	0.3
983.763	7.15
984.19	6.85
984.617	2
985.043	6.65
985.47	6.4
985.897	3.75
986.323	4.05
986.75	3.75
987.176	6.95
987.603	8.65
988.029	5.25
988.456	7.25
988.882	3.4
989.308	3.6
989.735	0.6
990.161	3.35
990.587	4.1
991.014	1.1
991.44	7.15
991.866	4.45
992.292	0.05
992.719	1.4
993.145	4.2
993.571	7.85
993.997	8.6
994.423	6.65
994.849	2.6
995.275	6.65
995.701	4.55
996.127	-2.15
996.553	3.75
996.979	4.65
997.405	4.95
997.83	2.45
998.256	5.05
998.682	0.45
999.108	7.05
999.534	-4
999.959	3.65
1000.385	8.5
1000.811	-0.2
1001.236	-2.1
1001.662	2.2
1002.087	8.9
1002.513	5.25
1002.938	-0.25
1003.364	3.9
1003.789	6.2
1004.215	3.4
1004.64	-0.7
1005.066	2.9
1005.491	8.95
1005.916	7.3
1006.342	5.85
1006.767	5.45
1007.192	7.85
1007.617	2.45
1008.042	6.7
1008.468	5
1008.893	3.2
1009.318	3.05
1009.743	10.35
1010.168	18.6
1010.593	13.05
1011.018	13.55
1011.443	10.9
1011.868	4.45
1012.293	2.2
1012.718	5.3
1013.143	3.65
1013.567	7.25
1013.992	9.5
1014.417	2.4
1014.842	4.05
1015.267	3.3
1015.691	4.95
1016.116	3.55
1016.541	5.55
1016.965	3.4
1017.39	6.5
1017.814	-0.2
1018.239	1.25
1018.663	-5.5
1019.088	-3.5
1019.512	2.5
1019.937	-1.2
1020.361	0.25
1020.785	-3.1
1021.21	2.1
1021.634	1.35
1022.058	2.25
1022.483	-3.35
1022.907	-1.05
1023.331	1.65
1023.755	1
1024.179	-1.35
1024.604	0.3
1025.028	2.55
1025.452	2.8
1025.876	3.7
1026.3	-0.2
1026.724	-4.85
1027.148	-2.1
1027.572	0.6
1027.996	3.45
1028.42	2.85
1028.843	4.45
1029.267	-1.4
1029.691	-1.35
1030.115	-1.15
1030.539	1.9
1030.962	-0.4
1031.386	0.8
1031.81	-2.85
1032.233	-3.65
1032.657	-8.05
1033.08	0.25
1033.504	-2
1033.927	-3
1034.351	-1.55
1034.774	-2.8
1035.198	-1.5
1035.621	0.85
1036.045	-4.6
1036.468	7.2
1036.891	3.65
1037.315	5.9
1037.738	1.7
1038.161	-1.05
1038.584	3.4
1039.008	-2.4
1039.431	-0.15
1039.854	-5.7
1040.277	1.55
1040.7	-1.05
1041.123	0.9
1041.546	0.3
1041.969	1.5
1042.392	5.75
1042.815	-2.95
1043.238	-1.65
1043.661	1
1044.084	-3.25
1044.507	-1.5
1044.93	-2.8
1045.352	-1.15
1045.775	2.9
1046.198	5.8
1046.621	5.3
1047.043	0.75
1047.466	0.15
1047.889	-1.75
1048.311	4.5
1048.734	0.2
1049.156	0.5
1049.579	-3.4
1050.001	-1.45
1050.424	-1.75
1050.846	-3.55
1051.269	-3.1
1051.691	-0.8
1052.113	3.45
1052.536	-0.75
1052.958	-6.65
1053.38	-0.05
1053.802	2.25
1054.225	4.65
1054.647	2.6
1055.069	-1.2
1055.491	3.9
1055.913	0.2
1056.335	-3.75
1056.757	-4.85
1057.179	-0.55
1057.601	1.1
1058.023	0.3
1058.445	-5.95
1058.867	1.7
1059.289	0.4
1059.711	-7.25
1060.133	-2.3
1060.555	-2.95
1060.976	4
1061.398	-5.45
1061.82	1.4
1062.241	-4.1
1062.663	0.95
1063.085	-7.9
1063.506	-11.25
1063.928	1.05
1064.35	0.6
1064.771	-1.5
1065.193	-5.6
1065.614	-4
1066.035	1.2
1066.457	3.7
1066.878	0.05
1067.3	-0.45
1067.721	3.3
1068.142	6.35
1068.564	3.35
1068.985	2.45
1069.406	-5.15
1069.827	-1.3
1070.248	-3.2
1070.67	-3.6
1071.091	-5.7
1071.512	-3
1071.933	-2.85
1072.354	-8.25
1072.775	-4.8
1073.196	2.05
1073.617	-6.85
1074.038	-4.6
1074.459	-5.3
1074.88	-3.2
1075.3	-1.55
1075.721	-2
1076.142	-1.2
1076.563	-5.3
1076.983	-1.65
1077.404	-7.65
1077.825	2.1
1078.246	-3.65
1078.666	-4.4
1079.087	-2.7
1079.507	-2.25
1079.928	-0.9
1080.348	-4.05
1080.769	-0.55
1081.189	0.95
1081.61	-3.65
1082.03	-2.7
1082.451	-3.45
1082.871	-4.45
1083.291	-5.15
1083.711	-2.85
1084.132	-5.65
1084.552	-7.5
1084.972	-5.25
1085.392	-5.2
1085.813	-0.8
1086.233	-3.45
1086.653	3.75
1087.073	-1.2
1087.493	-1.55
1087.913	-7.05
1088.333	-1.7
1088.753	3.05
1089.173	1.75
1089.593	-4.45
1090.013	-3.05
1090.433	-3.6
1090.852	1.9
1091.272	-4.25
1091.692	-0.25
1092.112	-0
1092.531	-3.1
1092.951	-1
1093.371	-4.35
1093.79	-1.85
1094.21	-1.7
1094.63	-2.35
1095.049	-1.9
1095.469	-11.7
1095.888	-0.95
1096.308	-2.75
1096.727	-3.65
1097.146	-3.95
1097.566	-3.65
1097.985	-4.25
1098.405	-2.65
1098.824	-2.5
1099.243	-3.25
1099.662	-2.6
1100.082	-3.2
1100.501	-1.8
1100.92	3.85
1101.339	-0.9
1101.758	2.2
