Data from MSPlasma+Separation6_Subt14_10-14-50-499.txt Node
Date: Fri Jul 21 10:14:50 EDT 2017
User: Ender
Spectrometer: HR+D1039
Trigger mode: 0
Integration Time (sec): 6.430000E-3
Scans to average: 20
Electric dark correction enabled: true
Nonlinearity correction enabled: false
Boxcar width: 0
XAxis mode: Wavelengths
Number of Pixels in Spectrum: 2048
>>>>>Begin Spectral Data<<<<<
187.836	-2.28
188.309	-2.28
188.782	-2.28
189.255	0.57
189.728	0.72
190.201	-2.73
190.674	0.97
191.147	-0.33
191.619	0.42
192.092	0.02
192.565	-6.18
193.038	4.12
193.511	-0.28
193.984	3.22
194.456	-0.93
194.929	2.72
195.402	2.47
195.874	-2.53
196.347	5.07
196.82	3.82
197.292	-4.43
197.765	-2.58
198.237	-2.48
198.71	-4.03
199.182	1.32
199.655	4.12
200.127	3.52
200.6	1.92
201.072	0.57
201.544	-0.48
202.017	-1.68
202.489	1.27
202.961	-1.58
203.433	-2.93
203.906	1.22
204.378	3.82
204.85	4.07
205.322	1.87
205.794	9.97
206.266	0.27
206.739	9.82
207.211	1.67
207.683	-1.23
208.155	1.02
208.627	0.02
209.099	9.72
209.57	3.92
210.042	5.47
210.514	6.02
210.986	23.47
211.458	30.82
211.93	13.77
212.402	4.07
212.873	0.82
213.345	3.57
213.817	6.67
214.288	-0.68
214.76	6.17
215.232	4.37
215.703	1.32
216.175	3.17
216.646	5.67
217.118	4.07
217.589	1.82
218.061	3.07
218.532	0.67
219.004	9.97
219.475	14.82
219.946	28.22
220.418	40.82
220.889	30.77
221.36	18.87
221.832	16.27
222.303	8.07
222.774	5.67
223.245	3.57
223.717	3.97
224.188	5.87
224.659	7.82
225.13	4.97
225.601	-0.03
226.072	6.72
226.543	10.67
227.014	9.92
227.485	7.52
227.956	12.57
228.427	18.17
228.898	12.02
229.369	11.92
229.839	12.27
230.31	8.72
230.781	13.12
231.252	21.27
231.722	30.87
232.193	38.57
232.664	44.42
233.135	63.92
233.605	75.37
234.076	58.07
234.546	46.62
235.017	51.02
235.487	50.37
235.958	52.17
236.428	72.52
236.899	117.27
237.369	134.52
237.84	95.57
238.31	118.77
238.78	120.52
239.251	122.77
239.721	127.52
240.191	95.17
240.662	59.92
241.132	43.97
241.602	55.67
242.072	83.92
242.542	96.97
243.013	69.47
243.483	60.92
243.953	42.97
244.423	49.77
244.893	58.17
245.363	65.77
245.833	58.77
246.303	59.97
246.773	85.17
247.243	87.77
247.712	99.12
248.182	119.72
248.652	122.27
249.122	182.82
249.592	345.47
250.061	522.17
250.531	829.42
251.001	630.22
251.471	529.32
251.94	403.22
252.41	214.92
252.879	153.27
253.349	115.47
253.818	96.67
254.288	78.52
254.757	81.62
255.227	108.52
255.696	89.17
256.166	78.12
256.635	81.47
257.105	103.17
257.574	135.82
258.043	139.22
258.513	248.17
258.982	325.82
259.451	224.62
259.92	225.57
260.389	207.57
260.859	154.07
261.328	176.02
261.797	259.47
262.266	229.47
262.735	106.52
263.204	68.17
263.673	60.87
264.142	53.92
264.611	55.42
265.08	58.37
265.549	66.17
266.018	60.72
266.487	52.47
266.955	57.62
267.424	63.87
267.893	64.87
268.362	65.67
268.83	62.32
269.299	65.67
269.768	74.32
270.236	93.97
270.705	98.52
271.174	96.12
271.642	106.17
272.111	123.27
272.579	196.87
273.048	307.97
273.516	390.97
273.985	398.92
274.453	299.62
274.922	184.47
275.39	115.27
275.858	106.22
276.327	83.37
276.795	93.32
277.263	101.52
277.731	133.22
278.2	268.07
278.668	360.42
279.136	280.52
279.604	176.27
280.072	107.12
280.54	89.32
281.008	95.22
281.477	92.37
281.945	97.17
282.413	97.42
282.881	105.17
283.348	98.22
283.816	105.72
284.284	112.87
284.752	105.42
285.22	105.07
285.688	122.32
286.156	197.87
286.623	541.17
287.091	1071.27
287.559	563.02
288.026	207.72
288.494	132.82
288.962	110.42
289.429	110.87
289.897	100.12
290.364	93.17
290.832	93.92
291.3	96.72
291.767	99.02
292.234	104.27
292.702	112.37
293.169	120.57
293.637	125.22
294.104	121.22
294.571	114.57
295.039	121.82
295.506	112.42
295.973	118.87
296.44	113.67
296.908	122.42
297.375	143.97
297.842	145.22
298.309	120.52
298.776	118.92
299.243	129.52
299.71	118.12
300.177	116.87
300.644	129.67
301.111	153.27
301.578	133.97
302.045	126.52
302.512	126.07
302.979	130.07
303.446	134.67
303.913	137.77
304.379	150.47
304.846	163.42
305.313	183.67
305.78	210.47
306.246	261.27
306.713	273.67
307.18	241.67
307.646	268.72
308.113	238.22
308.579	191.82
309.046	181.27
309.512	183.67
309.979	166.17
310.445	157.52
310.912	160.47
311.378	162.32
311.845	161.22
312.311	149.47
312.777	156.02
313.244	163.62
313.71	170.62
314.176	187.77
314.642	216.52
315.109	249.27
315.575	234.97
316.041	213.77
316.507	204.82
316.973	226.17
317.439	216.02
317.905	240.27
318.371	237.02
318.837	226.97
319.303	236.42
319.769	217.17
320.235	239.42
320.701	279.57
321.167	302.47
321.633	365.97
322.099	500.62
322.564	676.27
323.03	532.27
323.496	367.12
323.962	346.27
324.427	322.52
324.893	284.17
325.359	274.77
325.824	232.42
326.29	247.17
326.755	256.57
327.221	252.37
327.686	263.87
328.152	239.02
328.617	227.32
329.083	225.47
329.548	237.22
330.014	255.07
330.479	270.67
330.944	319.57
331.41	364.37
331.875	356.97
332.34	363.12
332.805	414.17
333.271	539.22
333.736	717.27
334.201	648.82
334.666	475.57
335.131	541.97
335.596	425.27
336.061	448.87
336.526	462.47
336.991	399.07
337.456	435.87
337.921	343.47
338.386	277.72
338.851	254.62
339.316	239.27
339.781	233.27
340.246	233.02
340.711	238.77
341.175	238.42
341.64	244.57
342.105	247.67
342.569	263.57
343.034	279.67
343.499	288.77
343.963	275.37
344.428	277.42
344.893	278.92
345.357	292.87
345.822	277.37
346.286	285.07
346.751	297.57
347.215	288.57
347.679	305.77
348.144	330.52
348.608	325.72
349.073	344.07
349.537	374.57
350.001	368.47
350.465	338.22
350.93	331.27
351.394	325.67
351.858	328.17
352.322	349.72
352.786	350.07
353.25	339.97
353.715	338.37
354.179	355.27
354.643	369.32
355.107	390.82
355.571	407.22
356.035	415.37
356.498	397.22
356.962	433.17
357.426	422.37
357.89	378.92
358.354	357.37
358.818	359.12
359.281	365.92
359.745	383.37
360.209	377.37
360.673	382.97
361.136	388.97
361.6	381.52
362.064	405.12
362.527	417.32
362.991	423.77
363.454	417.52
363.918	426.02
364.381	415.32
364.845	408.42
365.308	404.12
365.772	407.02
366.235	405.37
366.698	425.22
367.162	512.57
367.625	580.32
368.088	470.67
368.552	425.67
369.015	429.17
369.478	460.02
369.941	476.37
370.404	473.77
370.867	515.77
371.331	517.77
371.794	523.97
372.257	580.62
372.72	617.87
373.183	588.72
373.646	593.97
374.109	592.82
374.572	692.87
375.035	815.27
375.497	618.22
375.96	494.12
376.423	468.62
376.886	466.82
377.349	476.37
377.811	482.42
378.274	492.27
378.737	490.47
379.199	516.07
379.662	521.32
380.125	560.57
380.587	616.52
381.05	656.37
381.512	654.92
381.975	633.97
382.437	626.27
382.9	625.72
383.362	621.77
383.825	669.32
384.287	843.92
384.75	948.82
385.212	836.87
385.674	686.52
386.136	629.57
386.599	618.97
387.061	642.77
387.523	666.72
387.985	675.72
388.447	695.62
388.91	780.82
389.372	947.32
389.834	888.62
390.296	737.07
390.758	745.02
391.22	761.87
391.682	954.22
392.144	1493.77
392.606	1403.17
393.068	814.47
393.529	740.57
393.991	715.17
394.453	699.12
394.915	740.72
395.377	905.27
395.838	1120.02
396.3	793.57
396.762	610.37
397.224	579.12
397.685	575.52
398.147	570.22
398.608	578.77
399.07	587.87
399.531	573.32
399.993	589.57
400.454	592.57
400.916	589.07
401.377	609.07
401.839	621.27
402.3	614.77
402.762	642.62
403.223	711.92
403.684	719.22
404.145	663.52
404.607	647.37
405.068	651.77
405.529	666.67
405.99	675.27
406.451	681.27
406.913	662.97
407.374	682.07
407.835	681.67
408.296	705.27
408.757	702.72
409.218	730.77
409.679	737.02
410.14	741.32
410.601	766.17
411.062	804.67
411.522	942.72
411.983	1031.37
412.444	888.97
412.905	769.07
413.366	773.57
413.826	795.07
414.287	892.12
414.748	1056.72
415.208	1078.97
415.669	900.62
416.13	828.27
416.59	801.07
417.051	825.22
417.511	865.97
417.972	936.92
418.432	1010.17
418.893	1117.32
419.353	1064.67
419.814	821.67
420.274	735.07
420.734	728.12
421.195	781.27
421.655	814.32
422.115	792.17
422.576	757.57
423.036	763.97
423.496	793.92
423.956	838.27
424.416	896.92
424.876	1001.87
425.336	994.92
425.797	991.87
426.257	997.87
426.717	939.32
427.177	870.97
427.637	897.52
428.097	947.27
428.556	1002.47
429.016	1091.47
429.476	1078.32
429.936	1033.62
430.396	1001.17
430.856	1020.87
431.315	1051.02
431.775	1114.97
432.235	1187.67
432.694	1203.77
433.154	1138.47
433.614	1108.32
434.073	1064.02
434.533	962.52
434.993	932.22
435.452	942.37
435.912	932.12
436.371	926.17
436.83	919.42
437.29	934.62
437.749	882.77
438.209	867.32
438.668	886.27
439.127	891.17
439.587	877.47
440.046	836.12
440.505	847.07
440.964	853.57
441.424	874.87
441.883	895.02
442.342	841.22
442.801	811.97
443.26	836.62
443.719	832.17
444.178	822.02
444.637	833.62
445.096	831.17
445.555	849.57
446.014	841.77
446.473	821.62
446.932	823.67
447.391	835.17
447.849	859.52
448.308	843.72
448.767	861.62
449.226	889.32
449.685	892.47
450.143	928.87
450.602	937.27
451.061	891.62
451.519	903.27
451.978	929.57
452.436	962.67
452.895	910.27
453.353	883.12
453.812	893.72
454.27	883.37
454.729	862.87
455.187	868.37
455.646	874.22
456.104	884.77
456.562	873.82
457.021	862.77
457.479	827.77
457.937	843.47
458.395	875.52
458.854	867.57
459.312	855.52
459.77	866.52
460.228	879.92
460.686	887.57
461.144	893.42
461.602	870.37
462.06	886.97
462.518	895.77
462.976	904.02
463.434	912.02
463.892	921.12
464.35	937.82
464.808	947.82
465.266	948.47
465.724	968.62
466.181	974.57
466.639	976.07
467.097	1005.82
467.555	1046.97
468.012	1028.87
468.47	1034.22
468.928	1075.02
469.385	1100.37
469.843	1117.62
470.3	1110.42
470.758	1147.77
471.215	1152.57
471.673	1187.12
472.13	1221.92
472.588	1254.42
473.045	1245.17
473.503	1269.17
473.96	1327.47
474.417	1338.87
474.875	1396.62
475.332	1447.37
475.789	1477.32
476.246	1522.37
476.704	1580.47
477.161	1629.22
477.618	1675.32
478.075	1762.22
478.532	1909.47
478.989	2063.22
479.446	2278.27
479.903	2409.87
480.36	2638.27
480.817	2803.37
481.274	3015.17
481.731	3303.72
482.188	3564.17
482.645	3863.37
483.102	4113.52
483.558	4412.77
484.015	4628.77
484.472	4652.37
484.929	4509.62
485.385	4304.77
485.842	4203.32
486.299	3983.32
486.755	3601.82
487.212	3218.37
487.668	2883.27
488.125	2664.47
488.582	2459.67
489.038	2361.52
489.494	2271.62
489.951	2204.57
490.407	2142.27
490.864	2115.57
491.32	2072.47
491.776	2033.37
492.233	2033.72
492.689	2004.67
493.145	1975.37
493.602	1953.57
494.058	2003.87
494.514	2024.72
494.97	2040.17
495.426	2053.92
495.882	2067.17
496.338	2068.62
496.794	2155.77
497.251	2174.12
497.707	2158.82
498.163	2172.42
498.618	2178.12
499.074	2178.62
499.53	2214.37
499.986	2270.32
500.442	2283.97
500.898	2279.77
501.354	2320.97
501.809	2340.47
502.265	2367.92
502.721	2485.87
503.177	2558.12
503.632	2424.32
504.088	2447.87
504.543	2681.37
504.999	2503.57
505.455	2208.62
505.91	2102.07
506.366	2070.92
506.821	2066.02
507.277	2052.42
507.732	2055.47
508.187	2060.42
508.643	2070.17
509.098	2075.02
509.553	2096.42
510.009	2125.37
510.464	2171.82
510.919	2174.57
511.375	2205.27
511.83	2234.27
512.285	2285.67
512.74	2323.47
513.195	2367.12
513.65	2402.22
514.105	2443.12
514.56	2443.02
515.015	2497.77
515.47	2532.87
515.925	2518.72
516.38	2504.07
516.835	2493.42
517.29	2494.27
517.745	2509.62
518.2	2465.57
518.655	2398.42
519.109	2354.92
519.564	2327.57
520.019	2331.52
520.474	2280.27
520.928	2273.42
521.383	2268.32
521.838	2260.57
522.292	2230.27
522.747	2193.62
523.201	2203.52
523.656	2168.22
524.11	2166.37
524.565	2166.47
525.019	2164.52
525.474	2184.52
525.928	2182.67
526.382	2151.12
526.837	2133.62
527.291	2138.07
527.745	2129.57
528.2	2126.87
528.654	2102.22
529.108	2111.17
529.562	2114.17
530.016	2113.12
530.47	2121.37
530.925	2116.97
531.379	2135.37
531.833	2161.82
532.287	2143.72
532.741	2130.57
533.195	2133.52
533.649	2132.02
534.103	2138.62
534.556	2113.32
535.01	2140.92
535.464	2146.17
535.918	2137.62
536.372	2141.32
536.826	2132.97
537.279	2121.37
537.733	2130.47
538.187	2127.22
538.64	2120.02
539.094	2160.52
539.548	2187.57
540.001	2172.67
540.455	2178.52
540.908	2195.27
541.362	2213.47
541.815	2227.07
542.269	2274.92
542.722	2271.82
543.175	2301.42
543.629	2317.12
544.082	2333.97
544.536	2357.07
544.989	2345.52
545.442	2369.02
545.895	2363.32
546.349	2360.77
546.802	2379.47
547.255	2367.87
547.708	2391.72
548.161	2408.07
548.614	2412.92
549.067	2415.12
549.52	2396.77
549.973	2378.17
550.426	2356.92
550.879	2339.57
551.332	2327.82
551.785	2353.97
552.238	2380.17
552.691	2369.22
553.144	2411.67
553.596	2451.72
554.049	2475.02
554.502	2532.82
554.955	2578.07
555.407	2614.42
555.86	2587.27
556.313	2548.32
556.765	2537.87
557.218	2502.52
557.67	2505.47
558.123	2467.32
558.576	2456.27
559.028	2451.12
559.48	2483.52
559.933	2469.77
560.385	2404.52
560.838	2317.07
561.29	2242.07
561.742	2230.52
562.195	2191.37
562.647	2164.67
563.099	2189.92
563.551	2162.77
564.004	2185.57
564.456	2158.37
564.908	2127.87
565.36	2089.57
565.812	2034.42
566.264	2022.22
566.716	1995.07
567.168	1960.17
567.62	1982.62
568.072	1956.57
568.524	1916.92
568.976	1924.32
569.428	1895.87
569.88	1897.87
570.332	1917.87
570.784	1903.72
571.235	1890.17
571.687	1910.17
572.139	1909.62
572.59	1932.57
573.042	1935.32
573.494	1938.47
573.945	1915.12
574.397	1869.87
574.849	1867.97
575.3	1875.82
575.752	1851.97
576.203	1829.82
576.655	1849.27
577.106	1815.17
577.557	1800.22
578.009	1798.17
578.46	1807.27
578.912	1786.22
579.363	1815.07
579.814	1794.07
580.265	1791.72
580.717	1794.82
581.168	1788.07
581.619	1802.72
582.07	1825.42
582.521	1814.02
582.972	1811.92
583.423	1836.12
583.875	1871.92
584.326	1973.37
584.777	2166.12
585.227	2385.52
585.678	2547.92
586.129	2615.37
586.58	2663.07
587.031	2704.17
587.482	2883.97
587.933	3441.77
588.384	3120.72
588.834	2523.27
589.285	2098.02
589.736	2065.62
590.186	2058.22
590.637	2035.22
591.088	1981.42
591.538	1958.57
591.989	1947.87
592.439	1931.37
592.89	1927.32
593.34	1927.42
593.791	1948.47
594.241	1944.17
594.692	1972.57
595.142	1943.12
595.593	1912.12
596.043	1920.67
596.493	1954.67
596.943	2008.32
597.394	1963.12
597.844	1940.27
598.294	1973.17
598.744	2034.32
599.195	2126.32
599.645	2241.47
600.095	2362.97
600.545	2479.87
600.995	2579.07
601.445	2671.82
601.895	2800.27
602.345	2884.07
602.795	2846.17
603.245	2711.87
603.695	2556.87
604.145	2417.77
604.594	2294.32
605.044	2189.62
605.494	2052.17
605.944	1948.52
606.393	1910.37
606.843	1879.92
607.293	1886.37
607.743	1874.02
608.192	1895.67
608.642	1908.92
609.091	1904.52
609.541	1904.77
609.99	1902.47
610.44	1847.82
610.889	1828.32
611.339	1827.27
611.788	1809.32
612.238	1823.72
612.687	1853.97
613.136	1862.77
613.586	1905.97
614.035	1897.02
614.484	1923.17
614.933	1939.32
615.383	1892.92
615.832	1832.42
616.281	1790.87
616.73	1731.92
617.179	1698.47
617.628	1651.07
618.077	1630.72
618.526	1595.02
618.975	1589.57
619.424	1556.47
619.873	1571.52
620.322	1554.82
620.771	1552.22
621.22	1524.42
621.669	1502.17
622.118	1495.47
622.567	1472.72
623.015	1448.32
623.464	1455.82
623.913	1428.92
624.361	1423.77
624.81	1429.62
625.259	1412.97
625.707	1398.67
626.156	1414.17
626.604	1419.27
627.053	1422.22
627.501	1420.97
627.95	1433.42
628.398	1449.57
628.847	1443.72
629.295	1441.07
629.744	1459.07
630.192	1495.02
630.64	1602.22
631.089	1769.42
631.537	1857.62
631.985	1867.97
632.433	1956.12
632.881	1946.97
633.33	2350.57
633.778	2573.97
634.226	1790.12
634.674	1659.52
635.122	1634.22
635.57	1674.62
636.018	1956.87
636.466	1581.77
636.914	1402.27
637.362	1393.72
637.81	1416.97
638.258	1448.47
638.705	1458.52
639.153	1501.22
639.601	1511.82
640.049	1524.67
640.497	1591.02
640.944	1622.37
641.392	1548.92
641.84	1465.82
642.287	1413.02
642.735	1389.47
643.182	1384.52
643.63	1377.77
644.078	1382.82
644.525	1412.02
644.973	1442.22
645.42	1463.17
645.867	1483.77
646.315	1511.22
646.762	1561.52
647.21	1609.12
647.657	1701.32
648.104	1754.92
648.551	1828.02
648.999	1986.47
649.446	2184.57
649.893	2451.02
650.34	2889.27
650.787	3582.27
651.234	4676.02
651.682	6504.37
652.129	9333.07
652.576	13311.37
653.023	15534.92
653.47	15538.12
653.917	15538.17
654.363	15538.07
654.81	15535.07
655.257	15535.72
655.704	15539.52
656.151	10321.22
656.598	6677.22
657.044	4733.97
657.491	3671.57
657.938	2973.07
658.385	2500.92
658.831	2193.47
659.278	1953.17
659.724	1791.87
660.171	1666.67
660.618	1542.17
661.064	1442.07
661.511	1403.37
661.957	1346.57
662.404	1321.67
662.85	1298.02
663.296	1288.07
663.743	1255.27
664.189	1238.62
664.635	1236.82
665.082	1212.42
665.528	1202.47
665.974	1166.72
666.42	1159.27
666.867	1178.07
667.313	1181.02
667.759	1250.12
668.205	1247.67
668.651	1252.02
669.097	1218.87
669.543	1335.02
669.989	1246.27
670.435	1098.52
670.881	1083.27
671.327	1118.32
671.773	1200.02
672.219	1282.27
672.665	1369.97
673.11	1422.42
673.556	1437.42
674.002	1460.92
674.448	1483.37
674.893	1256.47
675.339	1105.27
675.785	1016.32
676.23	965.32
676.676	930.37
677.122	906.92
677.567	880.32
678.013	851.62
678.458	858.92
678.904	844.57
679.349	838.57
679.794	836.87
680.24	838.82
680.685	821.72
681.131	830.57
681.576	839.27
682.021	830.17
682.466	847.17
682.912	856.37
683.357	888.42
683.802	964.97
684.247	1047.12
684.692	1124.12
685.137	1170.92
685.583	1192.47
686.028	1254.37
686.473	1185.07
686.918	1022.67
687.363	931.77
687.807	895.92
688.252	851.47
688.697	812.17
689.142	791.02
689.587	802.72
690.032	818.22
690.477	848.87
690.921	896.32
691.366	934.57
691.811	973.57
692.255	1047.52
692.7	1278.17
693.145	1839.82
693.589	2797.27
694.034	3330.62
694.478	3543.37
694.923	3252.52
695.367	4669.72
695.812	2821.37
696.256	1199.42
696.701	882.17
697.145	816.32
697.59	790.42
698.034	775.62
698.478	776.87
698.922	785.02
699.367	803.42
699.811	841.57
700.255	911.47
700.699	994.77
701.143	1075.67
701.588	1127.82
702.032	1181.47
702.476	1210.32
702.92	1290.12
703.364	1668.57
703.808	2569.12
704.252	3191.27
704.696	3379.42
705.14	3201.12
705.584	4416.17
706.027	2440.37
706.471	1223.52
706.915	921.42
707.359	814.72
707.803	770.67
708.246	738.37
708.69	736.87
709.134	731.82
709.577	728.27
710.021	741.02
710.465	733.47
710.908	726.92
711.352	757.02
711.795	835.17
712.239	897.67
712.682	930.62
713.126	921.47
713.569	1024.82
714.012	856.67
714.456	744.62
714.899	703.22
715.342	660.07
715.786	623.57
716.229	610.72
716.672	600.47
717.115	593.17
717.558	608.12
718.002	631.17
718.445	650.32
718.888	685.32
719.331	698.62
719.774	706.07
720.217	697.37
720.66	656.62
721.103	623.52
721.546	588.27
721.989	573.72
722.432	571.37
722.874	571.17
723.317	576.32
723.76	628.87
724.203	765.72
724.645	1019.97
725.088	1198.22
725.531	1172.67
725.974	1284.82
726.416	1148.82
726.859	720.22
727.301	593.52
727.744	559.72
728.187	564.97
728.629	572.52
729.071	598.47
729.514	626.92
729.956	651.17
730.399	656.32
730.841	663.47
731.283	640.12
731.726	626.87
732.168	629.42
732.61	663.67
733.053	718.72
733.495	792.27
733.937	877.92
734.379	1035.27
734.821	1324.77
735.263	2102.32
735.705	3787.77
736.148	5558.52
736.59	5560.17
737.032	6070.62
737.474	5000.97
737.916	1901.47
738.357	1000.82
738.799	768.72
739.241	717.92
739.683	722.82
740.125	733.17
740.567	730.77
741.008	768.92
741.45	804.32
741.892	837.42
742.334	830.07
742.775	822.97
743.217	783.02
743.658	674.17
744.1	681.17
744.542	761.67
744.983	796.92
745.425	830.72
745.866	827.92
746.307	727.82
746.749	786.57
747.19	1142.02
747.632	2222.77
748.073	4141.17
748.514	5685.87
748.956	7574.27
749.397	8878.52
749.838	6135.32
750.279	5879.87
750.72	2999.42
751.162	1269.22
751.603	730.57
752.044	580.87
752.485	514.37
752.926	490.87
753.367	469.92
753.808	463.32
754.249	452.32
754.69	443.97
755.131	433.92
755.572	438.32
756.013	435.62
756.453	439.67
756.894	454.37
757.335	453.12
757.776	459.67
758.216	471.92
758.657	503.92
759.098	546.02
759.538	670.47
759.979	960.82
760.42	1952.82
760.86	5019.27
761.301	10349.82
761.741	12127.57
762.182	13964.17
762.622	9039.77
763.063	3230.37
763.503	1415.52
763.943	1089.47
764.384	1183.77
764.824	1124.72
765.264	1115.62
765.705	786.82
766.145	564.77
766.585	502.22
767.025	528.17
767.465	690.97
767.906	848.32
768.346	892.77
768.786	920.72
769.226	934.52
769.666	1593.17
770.106	3488.62
770.546	4930.27
770.986	5576.87
771.426	4211.37
771.866	1754.87
772.306	799.67
772.745	504.12
773.185	443.27
773.625	440.77
774.065	519.42
774.505	855.27
774.944	1709.47
775.384	2591.67
775.824	2980.87
776.263	2426.72
776.703	1174.77
777.142	593.02
777.582	401.37
778.021	363.57
778.461	343.47
778.9	335.52
779.34	306.62
779.779	294.67
780.219	283.22
780.658	276.92
781.097	266.72
781.537	266.17
781.976	267.97
782.415	269.02
782.855	269.47
783.294	269.22
783.733	258.87
784.172	262.72
784.611	257.77
785.05	273.52
785.489	271.97
785.928	281.57
786.367	288.17
786.806	308.07
787.245	322.92
787.684	340.02
788.123	333.77
788.562	324.02
789.001	309.52
789.44	296.12
789.879	300.77
790.317	304.57
790.756	320.57
791.195	364.52
791.634	497.42
792.072	898.92
792.511	2219.42
792.95	4085.22
793.388	4953.17
793.827	3187.97
794.265	1451.77
794.704	699.32
795.142	426.12
795.581	351.82
796.019	321.92
796.458	320.32
796.896	326.72
797.334	376.07
797.773	500.57
798.211	976.37
798.649	2018.52
799.087	3403.32
799.526	4787.62
799.964	4932.87
800.402	3398.27
800.84	1513.47
801.278	752.27
801.716	455.47
802.154	370.62
802.592	350.52
803.03	350.82
803.468	358.87
803.906	350.42
804.344	346.27
804.782	335.22
805.22	344.57
805.658	351.97
806.096	375.97
806.533	427.82
806.971	535.17
807.409	783.97
807.847	1566.62
808.284	4039.57
808.722	7059.17
809.16	9933.47
809.597	13372.17
810.035	15499.07
810.472	10802.92
810.91	4545.87
811.347	2021.72
811.785	952.72
812.222	601.57
812.66	469.97
813.097	394.32
813.535	341.57
813.972	309.07
814.409	283.87
814.846	275.17
815.284	253.97
815.721	264.42
816.158	283.12
816.595	365.02
817.032	449.37
817.47	414.67
817.907	322.57
818.344	289.22
818.781	271.47
819.218	320.22
819.655	462.17
820.092	592.17
820.529	550.37
820.966	444.67
821.403	329.87
821.839	296.87
822.276	307.12
822.713	346.92
823.15	335.97
823.587	361.07
824.023	655.02
824.46	1657.27
824.897	2893.37
825.333	2240.67
825.77	1016.12
826.206	531.07
826.643	314.07
827.08	233.02
827.516	202.22
827.953	192.52
828.389	187.87
828.825	168.52
829.262	171.67
829.698	163.47
830.135	151.62
830.571	156.22
831.007	160.62
831.443	157.72
831.88	165.47
832.316	168.87
832.752	165.72
833.188	165.02
833.624	170.77
834.06	169.82
834.497	173.32
834.933	177.62
835.369	184.77
835.805	197.62
836.241	203.57
836.677	224.92
837.112	262.87
837.548	320.87
837.984	482.87
838.42	1034.87
838.856	2906.97
839.292	5756.82
839.727	4236.82
840.163	2844.22
840.599	4347.77
841.034	6693.17
841.47	3319.02
841.906	1608.62
842.341	905.22
842.777	801.57
843.212	943.97
843.648	559.22
844.083	342.62
844.519	237.22
844.954	188.17
845.39	161.62
845.825	160.57
846.261	148.52
846.696	145.67
847.131	139.42
847.566	138.87
848.002	146.67
848.437	155.02
848.872	160.27
849.307	200.82
849.742	371.07
850.177	947.87
850.613	2032.87
851.048	1441.67
851.483	665.42
851.918	370.07
852.353	217.02
852.788	179.72
853.223	145.42
853.657	130.57
854.092	123.17
854.527	116.92
854.962	120.62
855.397	127.72
855.832	118.77
856.266	104.47
856.701	102.52
857.136	108.02
857.57	125.07
858.005	144.87
858.44	130.57
858.874	124.72
859.309	125.37
859.743	122.37
860.178	120.62
860.612	133.17
861.047	164.97
861.481	214.32
861.915	152.37
862.35	123.57
862.784	104.77
863.218	97.67
863.653	107.07
864.087	128.37
864.521	171.72
864.955	284.92
865.39	474.22
865.824	338.67
866.258	396.57
866.692	570.67
867.126	417.17
867.56	230.82
867.994	159.97
868.428	133.57
868.862	162.42
869.296	145.57
869.73	177.72
870.164	152.62
870.598	137.47
871.031	96.87
871.465	97.47
871.899	79.67
872.333	72.07
872.766	76.87
873.2	80.27
873.634	76.57
874.067	77.47
874.501	80.42
874.935	80.37
875.368	80.17
875.802	72.72
876.235	69.77
876.669	68.32
877.102	62.07
877.535	64.77
877.969	60.37
878.402	65.67
878.836	62.07
879.269	59.57
879.702	60.12
880.135	66.12
880.569	73.12
881.002	59.22
881.435	58.62
881.868	58.32
882.301	56.27
882.734	49.62
883.167	58.72
883.601	56.32
884.034	53.62
884.467	50.57
884.899	55.67
885.332	47.12
885.765	48.77
886.198	49.17
886.631	52.92
887.064	49.52
887.497	46.57
887.929	47.17
888.362	48.37
888.795	47.97
889.228	52.57
889.66	48.92
890.093	48.77
890.526	46.42
890.958	43.17
891.391	42.92
891.823	44.32
892.256	47.42
892.688	48.87
893.121	44.02
893.553	49.37
893.985	45.57
894.418	40.32
894.85	51.27
895.282	43.97
895.715	42.27
896.147	37.12
896.579	36.92
897.011	45.97
897.444	45.92
897.876	36.57
898.308	37.67
898.74	45.57
899.172	47.62
899.604	45.67
900.036	45.57
900.468	44.07
900.9	44.37
901.332	57.37
901.764	59.27
902.196	51.02
902.628	55.07
903.06	71.52
903.491	77.92
903.923	70.32
904.355	69.42
904.787	75.72
905.218	59.97
905.65	55.42
906.082	51.57
906.513	51.47
906.945	53.27
907.376	55.57
907.808	63.62
908.239	63.47
908.671	65.92
909.102	66.17
909.534	97.32
909.965	180.02
910.397	466.52
910.828	1365.62
911.259	828.87
911.691	441.67
912.122	254.77
912.553	128.62
912.984	71.67
913.415	65.62
913.847	55.67
914.278	56.27
914.709	46.27
915.14	43.17
915.571	48.47
916.002	45.42
916.433	39.67
916.864	40.67
917.295	46.32
917.726	52.57
918.157	69.52
918.587	63.72
919.018	61.07
919.449	55.07
919.88	67.22
920.311	108.67
920.741	283.67
921.172	495.07
921.603	250.27
922.033	162.92
922.464	103.82
922.895	64.92
923.325	52.52
923.756	50.22
924.186	70.77
924.617	113.92
925.047	174.57
925.478	160.32
925.908	109.07
926.338	75.07
926.769	55.32
927.199	48.87
927.629	43.12
928.06	46.92
928.49	42.72
928.92	37.82
929.35	34.97
929.78	25.57
930.21	30.12
930.641	18.92
931.071	24.67
931.501	24.62
931.931	24.02
932.361	22.32
932.791	29.47
933.221	27.87
933.651	41.02
934.08	68.62
934.51	42.27
934.94	33.17
935.37	27.12
935.8	24.97
936.229	20.37
936.659	20.47
937.089	33.47
937.519	52.22
937.948	66.72
938.378	40.12
938.807	28.02
939.237	20.62
939.666	20.32
940.096	13.22
940.525	9.07
940.955	16.42
941.384	10.47
941.814	13.27
942.243	14.32
942.672	11.97
943.102	8.22
943.531	7.27
943.96	7.27
944.39	10.32
944.819	13.62
945.248	11.42
945.677	12.02
946.106	12.07
946.535	14.72
946.964	12.17
947.393	8.12
947.822	7.27
948.251	17.52
948.68	15.97
949.109	11.92
949.538	10.47
949.967	8.72
950.396	9.12
950.825	9.12
951.254	7.97
951.682	6.02
952.111	8.42
952.54	11.27
952.969	8.57
953.397	7.27
953.826	2.47
954.254	13.72
954.683	10.67
955.112	11.52
955.54	10.12
955.969	7.37
956.397	8.92
956.826	8.02
957.254	7.77
957.682	9.42
958.111	10.97
958.539	9.82
958.967	6.77
959.396	10.47
959.824	7.22
960.252	13.02
960.68	8.22
961.109	13.92
961.537	11.32
961.965	6.82
962.393	7.92
962.821	8.77
963.249	13.62
963.677	16.82
964.105	85.22
964.533	142.62
964.961	73.87
965.389	44.67
965.817	24.62
966.245	12.37
966.672	12.52
967.1	8.12
967.528	6.57
967.956	4.67
968.383	10.37
968.811	6.52
969.239	5.87
969.666	4.92
970.094	6.92
970.522	4.12
970.949	6.72
971.377	0.57
971.804	5.57
972.232	5.57
972.659	9.82
973.087	6.47
973.514	1.42
973.941	5.17
974.369	4.02
974.796	-0.28
975.223	2.62
975.651	9.72
976.078	7.22
976.505	8.52
976.932	34.97
977.359	45.82
977.786	23.72
978.214	20.82
978.641	5.97
979.068	7.02
979.495	4.22
979.922	4.67
980.349	9.12
980.776	6.22
981.202	7.67
981.629	4.67
982.056	8.77
982.483	-3.48
982.91	11.17
983.337	2.37
983.763	0.87
984.19	7.97
984.617	0.62
985.043	2.12
985.47	4.72
985.897	3.47
986.323	2.42
986.75	-0.98
987.176	4.57
987.603	2.47
988.029	5.47
988.456	7.12
988.882	1.67
989.308	-0.88
989.735	1.92
990.161	0.52
990.587	-3.98
991.014	5.17
991.44	1.42
991.866	6.17
992.292	2.97
992.719	2.82
993.145	4.72
993.571	4.57
993.997	8.62
994.423	9.22
994.849	-1.48
995.275	2.12
995.701	5.97
996.127	-0.63
996.553	2.07
996.979	0.72
997.405	8.02
997.83	5.42
998.256	7.32
998.682	5.62
999.108	1.82
999.534	-2.63
999.959	4.02
1000.385	10.67
1000.811	1.67
1001.236	-2.28
1001.662	0.22
1002.087	6.42
1002.513	5.42
1002.938	-1.33
1003.364	5.27
1003.789	3.32
1004.215	-0.88
1004.64	0.62
1005.066	2.97
1005.491	6.42
1005.916	2.02
1006.342	1.47
1006.767	3.57
1007.192	7.87
1007.617	3.57
1008.042	2.47
1008.468	2.72
1008.893	5.07
1009.318	9.12
1009.743	18.47
1010.168	19.77
1010.593	23.22
1011.018	13.52
1011.443	6.97
1011.868	7.82
1012.293	7.87
1012.718	1.07
1013.143	2.57
1013.567	4.17
1013.992	0.97
1014.417	3.67
1014.842	1.82
1015.267	3.32
1015.691	1.97
1016.116	1.27
1016.541	2.87
1016.965	2.32
1017.39	3.27
1017.814	-2.28
1018.239	-1.28
1018.663	-4.93
1019.088	-2.48
1019.512	7.52
1019.937	-2.33
1020.361	-2.98
1020.785	-3.83
1021.21	-1.53
1021.634	-2.03
1022.058	-3.18
1022.483	-3.73
1022.907	-1.73
1023.331	-2.03
1023.755	-2.93
1024.179	-2.43
1024.604	1.97
1025.028	3.02
1025.452	6.42
1025.876	1.77
1026.3	3.52
1026.724	-1.63
1027.148	1.57
1027.572	1.07
1027.996	-0.58
1028.42	0.72
1028.843	3.32
1029.267	-0.33
1029.691	2.97
1030.115	-0.63
1030.539	1.42
1030.962	-2.28
1031.386	0.52
1031.81	-0.18
1032.233	-2.78
1032.657	-3.33
1033.08	-1.18
1033.504	-1.43
1033.927	-2.48
1034.351	-2.68
1034.774	-3.98
1035.198	0.07
1035.621	2.67
1036.045	-0.68
1036.468	5.22
1036.891	0.72
1037.315	5.02
1037.738	-2.78
1038.161	-1.73
1038.584	-2.88
1039.008	-0.53
1039.431	-1.18
1039.854	-2.38
1040.277	3.22
1040.7	0.42
1041.123	1.52
1041.546	-1.13
1041.969	2.77
1042.392	1.62
1042.815	-4.43
1043.238	0.17
1043.661	2.12
1044.084	-1.23
1044.507	-1.78
1044.93	-0.78
1045.352	2.22
1045.775	2.32
1046.198	3.12
1046.621	7.22
1047.043	0.27
1047.466	4.77
1047.889	-0.58
1048.311	3.52
1048.734	-0.13
1049.156	-2.58
1049.579	-1.23
1050.001	-5.98
1050.424	1.82
1050.846	-4.53
1051.269	-3.23
1051.691	-2.68
1052.113	1.72
1052.536	0.87
1052.958	-6.28
1053.38	-2.08
1053.802	-1.13
1054.225	-0.88
1054.647	2.77
1055.069	2.67
1055.491	0.22
1055.913	-1.68
1056.335	-6.23
1056.757	-4.13
1057.179	0.82
1057.601	-3.83
1058.023	-2.88
1058.445	-4.93
1058.867	6.17
1059.289	-1.83
1059.711	-3.48
1060.133	-1.33
1060.555	-6.93
1060.976	1.17
1061.398	-8.48
1061.82	-0.98
1062.241	-3.03
1062.663	1.62
1063.085	-0.88
1063.506	-4.83
1063.928	-2.43
1064.35	-3.13
1064.771	-0.93
1065.193	-2.18
1065.614	-2.38
1066.035	-1.33
1066.457	5.17
1066.878	1.92
1067.3	-0.58
1067.721	2.22
1068.142	2.77
1068.564	3.52
1068.985	-2.68
1069.406	-3.18
1069.827	1.32
1070.248	0.82
1070.67	-4.93
1071.091	-3.33
1071.512	2.62
1071.933	-1.28
1072.354	-8.13
1072.775	-2.03
1073.196	1.12
1073.617	-1.38
1074.038	-2.83
1074.459	-1.38
1074.88	-6.68
1075.3	-2.58
1075.721	0.07
1076.142	-0.93
1076.563	-5.43
1076.983	2.82
1077.404	-10.23
1077.825	0.12
1078.246	-5.38
1078.666	-4.78
1079.087	-6.93
1079.507	-4.43
1079.928	-3.23
1080.348	-6.68
1080.769	3.12
1081.189	-0.83
1081.61	-5.08
1082.03	-0.88
1082.451	-6.48
1082.871	-6.78
1083.291	-4.68
1083.711	-1.98
1084.132	-1.93
1084.552	-5.28
1084.972	-7.88
1085.392	-4.03
1085.813	3.17
1086.233	-4.98
1086.653	1.22
1087.073	-7.23
1087.493	-1.83
1087.913	-4.48
1088.333	-0.68
1088.753	-4.58
1089.173	2.27
1089.593	3.77
1090.013	-1.73
1090.433	-4.53
1090.852	1.07
1091.272	-2.93
1091.692	-3.48
1092.112	-1.68
1092.531	-2.03
1092.951	-3.18
1093.371	-1.68
1093.79	-5.68
1094.21	-3.88
1094.63	-1.58
1095.049	-2.13
1095.469	-7.73
1095.888	0.52
1096.308	0.87
1096.727	-4.88
1097.146	-4.03
1097.566	-2.23
1097.985	2.32
1098.405	0.67
1098.824	0.57
1099.243	-5.13
1099.662	-3.83
1100.082	-0.63
1100.501	1.57
1100.92	3.07
1101.339	-2.73
1101.758	4.57
