Data from MSPlasma+Separation6_Subt14_10-15-41-277.txt Node
Date: Fri Jul 21 10:15:41 EDT 2017
User: Ender
Spectrometer: HR+D1039
Trigger mode: 0
Integration Time (sec): 2.510000E-3
Scans to average: 20
Electric dark correction enabled: true
Nonlinearity correction enabled: false
Boxcar width: 0
XAxis mode: Wavelengths
Number of Pixels in Spectrum: 2048
>>>>>Begin Spectral Data<<<<<
187.836	-1.17
188.309	-1.17
188.782	-1.17
189.255	-0.02
189.728	3.93
190.201	-3.62
190.674	1.18
191.147	-1.62
191.619	-1.57
192.092	-0.92
192.565	4.43
193.038	3.38
193.511	4.48
193.984	-1.32
194.456	-5.02
194.929	-0.77
195.402	-0.12
195.874	-1.22
196.347	-0.42
196.82	1.33
197.292	-2.62
197.765	-0.72
198.237	-3.32
198.71	-7.92
199.182	0.63
199.655	2.13
200.127	-2.22
200.6	-3.82
201.072	-0.17
201.544	-3.37
202.017	0.13
202.489	-2.87
202.961	0.13
203.433	-2.92
203.906	1.93
204.378	2.13
204.85	-2.32
205.322	-1.77
205.794	-0.12
206.266	-2.82
206.739	3.23
207.211	-4.07
207.683	-1.97
208.155	4.28
208.627	0.23
209.099	5.28
209.57	-0.47
210.042	-1.02
210.514	-0.07
210.986	0.88
211.458	5.18
211.93	2.83
212.402	1.33
212.873	-5.97
213.345	-4.17
213.817	2.98
214.288	-3.37
214.76	0.68
215.232	1.68
215.703	-1.12
216.175	1.13
216.646	2.98
217.118	1.18
217.589	-5.52
218.061	-1.22
218.532	-3.72
219.004	3.63
219.475	1.88
219.946	10.38
220.418	14.93
220.889	10.48
221.36	8.48
221.832	1.43
222.303	1.18
222.774	4.08
223.245	-0.17
223.717	1.33
224.188	2.63
224.659	1.68
225.13	-3.02
225.601	2.83
226.072	-1.92
226.543	9.53
227.014	-2.67
227.485	0.58
227.956	1.48
228.427	8.18
228.898	2.98
229.369	2.83
229.839	1.68
230.31	6.73
230.781	6.88
231.252	9.38
231.722	4.73
232.193	11.33
232.664	15.18
233.135	22.28
233.605	17.03
234.076	20.88
234.546	13.98
235.017	19.73
235.487	17.88
235.958	17.08
236.428	24.13
236.899	39.23
237.369	46.93
237.84	32.28
238.31	39.28
238.78	36.58
239.251	38.78
239.721	37.48
240.191	27.88
240.662	17.63
241.132	12.53
241.602	16.18
242.072	24.13
242.542	28.88
243.013	21.63
243.483	20.58
243.953	12.53
244.423	13.88
244.893	20.78
245.363	20.08
245.833	22.48
246.303	24.48
246.773	26.48
247.243	27.83
247.712	33.43
248.182	39.08
248.652	42.83
249.122	63.33
249.592	121.63
250.061	188.03
250.531	292.13
251.001	221.93
251.471	183.88
251.94	142.93
252.41	76.78
252.879	50.98
253.349	43.83
253.818	30.43
254.288	27.63
254.757	29.18
255.227	39.73
255.696	27.23
256.166	31.83
256.635	30.23
257.105	40.38
257.574	53.23
258.043	51.03
258.513	95.88
258.982	113.88
259.451	87.73
259.92	81.53
260.389	73.78
260.859	55.83
261.328	64.03
261.797	95.43
262.266	85.73
262.735	42.48
263.204	19.63
263.673	16.68
264.142	15.78
264.611	21.28
265.08	20.58
265.549	21.38
266.018	21.28
266.487	24.13
266.955	19.33
267.424	24.68
267.893	28.73
268.362	25.23
268.83	18.43
269.299	22.33
269.768	28.53
270.236	34.43
270.705	38.98
271.174	37.73
271.642	40.28
272.111	46.78
272.579	79.88
273.048	119.23
273.516	154.83
273.985	154.83
274.453	119.68
274.922	68.28
275.39	43.63
275.858	39.13
276.327	32.33
276.795	34.08
277.263	41.83
277.731	54.03
278.2	107.23
278.668	137.68
279.136	105.93
279.604	67.13
280.072	41.88
280.54	36.78
281.008	39.48
281.477	35.83
281.945	38.58
282.413	39.03
282.881	39.48
283.348	42.83
283.816	40.68
284.284	46.98
284.752	41.48
285.22	45.48
285.688	48.28
286.156	78.03
286.623	218.73
287.091	427.93
287.559	231.08
288.026	94.18
288.494	53.83
288.962	44.73
289.429	47.33
289.897	41.18
290.364	37.08
290.832	39.13
291.3	41.98
291.767	35.98
292.234	42.88
292.702	43.03
293.169	48.63
293.637	54.03
294.104	53.78
294.571	46.78
295.039	45.23
295.506	47.18
295.973	49.43
296.44	43.48
296.908	51.88
297.375	61.38
297.842	59.43
298.309	51.23
298.776	53.58
299.243	52.98
299.71	49.63
300.177	51.18
300.644	54.03
301.111	58.58
301.578	56.13
302.045	49.13
302.512	48.28
302.979	57.98
303.446	54.58
303.913	60.88
304.379	62.13
304.846	65.38
305.313	71.63
305.78	86.83
306.246	110.08
306.713	122.43
307.18	103.33
307.646	114.48
308.113	95.98
308.579	77.03
309.046	75.93
309.512	77.43
309.979	68.43
310.445	59.83
310.912	66.53
311.378	71.63
311.845	69.18
312.311	62.93
312.777	65.83
313.244	69.03
313.71	70.33
314.176	81.83
314.642	96.08
315.109	108.18
315.575	96.83
316.041	94.53
316.507	81.38
316.973	94.43
317.439	96.93
317.905	108.43
318.371	99.58
318.837	95.23
319.303	97.53
319.769	93.43
320.235	102.33
320.701	120.48
321.167	127.18
321.633	155.28
322.099	207.33
322.564	282.48
323.03	226.38
323.496	153.83
323.962	149.08
324.427	139.03
324.893	118.53
325.359	114.73
325.824	102.88
326.29	102.93
326.755	105.18
327.221	110.33
327.686	119.13
328.152	106.33
328.617	95.83
329.083	100.18
329.548	106.23
330.014	111.33
330.479	123.93
330.944	137.13
331.41	157.23
331.875	150.28
332.34	156.38
332.805	176.23
333.271	230.33
333.736	303.63
334.201	274.78
334.666	206.48
335.131	231.23
335.596	188.08
336.061	195.58
336.526	197.38
336.991	172.68
337.456	185.98
337.921	151.63
338.386	126.63
338.851	111.08
339.316	102.78
339.781	101.28
340.246	106.08
340.711	103.08
341.175	107.33
341.64	107.93
342.105	111.53
342.569	118.83
343.034	123.78
343.499	129.73
343.963	126.43
344.428	123.73
344.893	124.53
345.357	129.88
345.822	125.23
346.286	125.73
346.751	134.68
347.215	135.93
347.679	139.13
348.144	150.03
348.608	142.03
349.073	147.63
349.537	167.53
350.001	162.28
350.465	149.63
350.93	146.53
351.394	145.33
351.858	142.63
352.322	152.33
352.786	152.63
353.25	155.28
353.715	154.28
354.179	162.83
354.643	162.88
355.107	169.53
355.571	173.78
356.035	181.68
356.498	183.38
356.962	192.43
357.426	184.58
357.89	169.43
358.354	159.28
358.818	154.38
359.281	159.98
359.745	173.68
360.209	163.43
360.673	169.98
361.136	171.03
361.6	171.93
362.064	179.28
362.527	188.58
362.991	180.28
363.454	183.93
363.918	187.93
364.381	183.58
364.845	177.13
365.308	176.68
365.772	175.38
366.235	180.23
366.698	190.28
367.162	223.53
367.625	252.33
368.088	207.58
368.552	183.58
369.015	189.88
369.478	203.88
369.941	205.78
370.404	213.43
370.867	227.03
371.331	230.43
371.794	230.03
372.257	259.73
372.72	269.43
373.183	261.88
373.646	260.48
374.109	257.93
374.572	303.03
375.035	352.83
375.497	270.08
375.96	217.73
376.423	210.63
376.886	208.68
377.349	210.68
377.811	217.13
378.274	213.73
378.737	220.63
379.199	226.68
379.662	234.13
380.125	247.33
380.587	271.53
381.05	286.53
381.512	287.68
381.975	279.33
382.437	273.83
382.9	270.43
383.362	273.93
383.825	297.73
384.287	377.88
384.75	415.83
385.212	368.33
385.674	297.18
386.136	283.18
386.599	272.83
387.061	286.58
387.523	297.48
387.985	297.48
388.447	309.88
388.91	346.38
389.372	412.08
389.834	396.13
390.296	327.38
390.758	330.63
391.22	343.43
391.682	414.73
392.144	648.78
392.606	597.58
393.068	361.08
393.529	327.33
393.991	319.23
394.453	310.23
394.915	325.13
395.377	396.23
395.838	487.43
396.3	348.73
396.762	271.73
397.224	262.73
397.685	254.83
398.147	258.18
398.608	257.53
399.07	259.48
399.531	264.23
399.993	265.53
400.454	268.43
400.916	267.53
401.377	275.88
401.839	273.53
402.3	272.98
402.762	294.03
403.223	321.58
403.684	321.13
404.145	302.03
404.607	289.58
405.068	294.48
405.529	297.93
405.99	303.48
406.451	311.83
406.913	302.33
407.374	306.38
407.835	303.33
408.296	320.78
408.757	319.78
409.218	334.08
409.679	335.98
410.14	337.28
410.601	359.28
411.062	373.58
411.522	417.23
411.983	463.03
412.444	398.98
412.905	345.78
413.366	347.23
413.826	354.63
414.287	395.03
414.748	470.58
415.208	471.73
415.669	402.98
416.13	368.63
416.59	358.63
417.051	370.28
417.511	387.53
417.972	413.68
418.432	446.48
418.893	494.23
419.353	472.98
419.814	373.63
420.274	327.38
420.734	334.83
421.195	350.08
421.655	364.58
422.115	355.68
422.576	342.58
423.036	346.98
423.496	359.08
423.956	376.98
424.416	404.43
424.876	443.13
425.336	442.28
425.797	442.53
426.257	442.58
426.717	417.43
427.177	398.83
427.637	408.28
428.097	422.88
428.556	443.28
429.016	490.03
429.476	482.48
429.936	469.63
430.396	465.68
430.856	469.93
431.315	480.13
431.775	518.08
432.235	535.73
432.694	546.18
433.154	522.28
433.614	501.98
434.073	487.38
434.533	440.58
434.993	428.38
435.452	428.78
435.912	420.38
436.371	421.28
436.83	416.63
437.29	420.48
437.749	396.18
438.209	393.63
438.668	402.68
439.127	395.38
439.587	388.88
440.046	374.78
440.505	381.33
440.964	384.18
441.424	390.18
441.883	393.78
442.342	383.83
442.801	367.43
443.26	375.53
443.719	373.43
444.178	365.53
444.637	372.68
445.096	366.98
445.555	374.08
446.014	374.88
446.473	366.53
446.932	370.83
447.391	372.48
447.849	383.73
448.308	379.93
448.767	378.13
449.226	389.63
449.685	398.68
450.143	415.38
450.602	417.38
451.061	390.93
451.519	405.68
451.978	405.73
452.436	419.58
452.895	408.33
453.353	394.63
453.812	401.33
454.27	392.43
454.729	379.08
455.187	372.68
455.646	387.28
456.104	392.58
456.562	388.28
457.021	387.93
457.479	367.58
457.937	378.13
458.395	382.38
458.854	386.93
459.312	375.98
459.77	387.28
460.228	386.88
460.686	395.03
461.144	394.33
461.602	387.38
462.06	391.38
462.518	402.48
462.976	398.63
463.434	400.08
463.892	407.93
464.35	420.58
464.808	422.98
465.266	424.43
465.724	431.13
466.181	432.33
466.639	426.68
467.097	448.23
467.555	465.68
468.012	452.03
468.47	459.08
468.928	479.68
469.385	489.93
469.843	493.63
470.3	494.23
470.758	508.98
471.215	514.83
471.673	528.13
472.13	543.63
472.588	549.13
473.045	556.53
473.503	560.83
473.96	588.58
474.417	597.53
474.875	632.08
475.332	647.28
475.789	660.53
476.246	678.28
476.704	712.33
477.161	729.38
477.618	747.58
478.075	798.78
478.532	855.83
478.989	930.23
479.446	1028.88
479.903	1095.13
480.36	1205.23
480.817	1285.58
481.274	1382.08
481.731	1512.08
482.188	1636.03
482.645	1748.88
483.102	1862.08
483.558	2007.18
484.015	2104.18
484.472	2099.03
484.929	2031.83
485.385	1939.88
485.842	1897.28
486.299	1793.68
486.755	1621.28
487.212	1453.33
487.668	1293.68
488.125	1201.58
488.582	1103.73
489.038	1050.43
489.494	1015.88
489.951	975.48
490.407	955.73
490.864	931.93
491.32	914.58
491.776	902.38
492.233	901.43
492.689	889.03
493.145	870.83
493.602	860.78
494.058	879.08
494.514	886.33
494.97	890.43
495.426	906.83
495.882	899.73
496.338	904.03
496.794	933.53
497.251	937.28
497.707	945.38
498.163	937.48
498.618	933.28
499.074	945.03
499.53	965.58
499.986	976.13
500.442	990.53
500.898	995.58
501.354	1005.83
501.809	1014.78
502.265	1026.68
502.721	1076.73
503.177	1107.73
503.632	1051.98
504.088	1061.63
504.543	1157.28
504.999	1084.38
505.455	965.43
505.91	910.58
506.366	913.18
506.821	903.08
507.277	897.53
507.732	907.38
508.187	903.98
508.643	904.58
509.098	909.23
509.553	920.68
510.009	929.23
510.464	944.13
510.919	945.73
511.375	964.83
511.83	978.38
512.285	990.13
512.74	1015.43
513.195	1023.13
513.65	1050.98
514.105	1056.78
514.56	1054.78
515.015	1083.83
515.47	1089.63
515.925	1094.63
516.38	1078.03
516.835	1073.93
517.29	1079.88
517.745	1077.08
518.2	1061.93
518.655	1035.78
519.109	1019.03
519.564	1007.73
520.019	1007.13
520.474	987.83
520.928	983.03
521.383	980.83
521.838	977.93
522.292	971.03
522.747	957.38
523.201	957.58
523.656	946.78
524.11	942.53
524.565	932.78
525.019	942.23
525.474	949.18
525.928	944.33
526.382	930.63
526.837	927.53
527.291	930.53
527.745	917.93
528.2	925.08
528.654	902.68
529.108	918.13
529.562	924.98
530.016	921.08
530.47	928.68
530.925	921.03
531.379	927.48
531.833	928.63
532.287	923.13
532.741	921.93
533.195	922.68
533.649	920.58
534.103	920.43
534.556	917.48
535.01	924.98
535.464	917.53
535.918	923.78
536.372	934.03
536.826	926.08
537.279	922.03
537.733	914.23
538.187	912.68
538.64	924.08
539.094	929.58
539.548	945.03
540.001	938.68
540.455	951.08
540.908	948.83
541.362	967.58
541.815	971.63
542.269	1000.68
542.722	986.53
543.175	995.93
543.629	1006.13
544.082	1009.88
544.536	1021.93
544.989	1021.28
545.442	1024.88
545.895	1026.48
546.349	1020.28
546.802	1024.68
547.255	1025.48
547.708	1041.28
548.161	1042.03
548.614	1043.33
549.067	1043.23
549.52	1037.03
549.973	1024.28
550.426	1019.73
550.879	1013.33
551.332	1018.43
551.785	1025.38
552.238	1030.18
552.691	1029.33
553.144	1046.03
553.596	1061.68
554.049	1069.03
554.502	1083.58
554.955	1103.93
555.407	1127.03
555.86	1117.73
556.313	1095.53
556.765	1086.38
557.218	1077.93
557.67	1073.08
558.123	1053.18
558.576	1058.08
559.028	1052.43
559.48	1066.33
559.933	1065.23
560.385	1035.93
560.838	999.53
561.29	968.38
561.742	970.48
562.195	946.88
562.647	947.13
563.099	950.48
563.551	941.48
564.004	947.18
564.456	940.23
564.908	925.13
565.36	901.23
565.812	884.33
566.264	878.43
566.716	869.18
567.168	860.18
567.62	857.78
568.072	848.28
568.524	841.63
568.976	836.08
569.428	835.33
569.88	839.38
570.332	836.53
570.784	831.38
571.235	816.38
571.687	826.08
572.139	827.43
572.59	837.48
573.042	847.93
573.494	847.03
573.945	823.18
574.397	812.23
574.849	812.13
575.3	813.58
575.752	799.83
576.203	796.38
576.655	794.43
577.106	794.28
577.557	791.13
578.009	780.13
578.46	789.88
578.912	775.38
579.363	786.33
579.814	777.28
580.265	788.63
580.717	784.93
581.168	779.23
581.619	784.28
582.07	792.93
582.521	789.38
582.972	793.98
583.423	799.98
583.875	813.58
584.326	855.78
584.777	930.23
585.227	1001.23
585.678	1069.38
586.129	1084.68
586.58	1112.68
587.031	1122.68
587.482	1181.23
587.933	1362.78
588.384	1262.53
588.834	1059.13
589.285	909.78
589.736	899.23
590.186	887.13
590.637	884.38
591.088	861.43
591.538	858.78
591.989	845.08
592.439	838.23
592.89	834.48
593.34	839.88
593.791	846.43
594.241	840.08
594.692	858.43
595.142	854.13
595.593	835.78
596.043	833.08
596.493	847.48
596.943	863.13
597.394	864.33
597.844	848.83
598.294	854.23
598.744	884.68
599.195	931.38
599.645	976.98
600.095	1021.13
600.545	1074.08
600.995	1119.83
601.445	1153.43
601.895	1201.53
602.345	1233.13
602.795	1224.53
603.245	1164.13
603.695	1104.33
604.145	1034.73
604.594	1000.33
605.044	941.73
605.494	892.23
605.944	851.33
606.393	823.03
606.843	821.98
607.293	815.93
607.743	811.88
608.192	824.38
608.642	823.78
609.091	823.28
609.541	820.93
609.99	822.13
610.44	804.13
610.889	798.33
611.339	785.78
611.788	785.23
612.238	789.83
612.687	794.23
613.136	805.58
613.586	832.03
614.035	822.08
614.484	839.98
614.933	839.08
615.383	817.43
615.832	789.83
616.281	776.53
616.73	753.68
617.179	734.68
617.628	719.38
618.077	713.83
618.526	697.28
618.975	699.38
619.424	681.78
619.873	686.63
620.322	680.13
620.771	678.98
621.22	671.33
621.669	666.03
622.118	650.78
622.567	641.23
623.015	640.13
623.464	633.58
623.913	624.13
624.361	628.93
624.81	624.43
625.259	625.08
625.707	609.48
626.156	618.43
626.604	622.33
627.053	627.93
627.501	624.28
627.95	634.53
628.398	634.58
628.847	623.98
629.295	631.68
629.744	637.23
630.192	656.68
630.64	705.33
631.089	775.78
631.537	805.08
631.985	808.23
632.433	843.68
632.881	845.93
633.33	1000.88
633.778	1095.08
634.226	784.43
634.674	716.38
635.122	718.33
635.57	729.73
636.018	843.38
636.466	694.93
636.914	612.18
637.362	620.43
637.81	617.13
638.258	639.58
638.705	643.48
639.153	664.23
639.601	665.43
640.049	676.63
640.497	697.03
640.944	715.68
641.392	684.83
641.84	649.93
642.287	626.33
642.735	617.98
643.182	612.53
643.63	613.68
644.078	611.13
644.525	630.23
644.973	645.03
645.42	656.13
645.867	660.58
646.315	682.03
646.762	705.13
647.21	723.23
647.657	762.28
648.104	807.18
648.551	819.68
648.999	909.18
649.446	997.43
649.893	1140.08
650.34	1342.68
650.787	1670.53
651.234	2173.63
651.682	3027.43
652.129	4384.68
652.576	6331.43
653.023	8446.68
653.47	9848.73
653.917	10646.08
654.363	11061.23
654.81	11731.53
655.257	11782.83
655.704	8048.73
656.151	4722.63
656.598	3039.08
657.044	2164.98
657.491	1696.58
657.938	1362.28
658.385	1145.38
658.831	1005.78
659.278	896.73
659.724	810.88
660.171	752.43
660.618	699.53
661.064	656.28
661.511	636.28
661.957	610.53
662.404	594.73
662.85	585.28
663.296	575.68
663.743	559.18
664.189	555.78
664.635	553.03
665.082	538.78
665.528	535.98
665.974	526.58
666.42	521.88
666.867	528.83
667.313	521.73
667.759	543.83
668.205	543.08
668.651	541.33
669.097	540.08
669.543	584.13
669.989	549.73
670.435	482.83
670.881	484.73
671.327	504.33
671.773	537.68
672.219	572.63
672.665	606.83
673.11	620.28
673.556	631.63
674.002	647.93
674.448	648.03
674.893	560.43
675.339	484.73
675.785	452.63
676.23	430.08
676.676	414.38
677.122	404.08
677.567	399.83
678.013	376.03
678.458	379.38
678.904	377.38
679.349	370.73
679.794	374.53
680.24	376.98
680.685	368.18
681.131	369.53
681.576	368.83
682.021	373.93
682.466	378.38
682.912	377.23
683.357	400.48
683.802	435.63
684.247	467.58
684.692	495.13
685.137	516.98
685.583	519.48
686.028	538.13
686.473	527.03
686.918	451.13
687.363	424.08
687.807	398.88
688.252	380.08
688.697	370.73
689.142	353.08
689.587	357.53
690.032	366.88
690.477	374.08
690.921	395.83
691.366	416.98
691.811	424.28
692.255	461.18
692.7	556.08
693.145	812.98
693.589	1218.98
694.034	1435.03
694.478	1518.93
694.923	1387.18
695.367	1900.83
695.812	1200.23
696.256	526.28
696.701	389.23
697.145	360.73
697.59	346.73
698.034	342.28
698.478	346.53
698.922	348.73
699.367	354.98
699.811	378.73
700.255	404.28
700.699	435.28
701.143	468.53
701.588	498.13
702.032	516.53
702.476	523.98
702.92	560.78
703.364	743.88
703.808	1125.18
704.252	1375.93
704.696	1431.63
705.14	1343.98
705.584	1802.23
706.027	1057.63
706.471	546.38
706.915	402.18
707.359	362.33
707.803	345.93
708.246	326.98
708.69	327.93
709.134	320.48
709.577	321.88
710.021	332.88
710.465	328.48
710.908	323.83
711.352	338.48
711.795	365.68
712.239	393.73
712.682	408.98
713.126	399.63
713.569	441.28
714.012	373.53
714.456	331.33
714.899	316.18
715.342	289.33
715.786	281.73
716.229	272.68
716.672	264.33
717.115	269.03
717.558	269.88
718.002	274.48
718.445	283.08
718.888	300.68
719.331	309.98
719.774	313.48
720.217	304.58
720.66	287.08
721.103	272.63
721.546	259.28
721.989	254.88
722.432	251.83
722.874	248.98
723.317	250.13
723.76	275.08
724.203	341.98
724.645	451.28
725.088	521.18
725.531	510.18
725.974	548.23
726.416	503.33
726.859	312.18
727.301	254.28
727.744	250.73
728.187	250.53
728.629	255.63
729.071	263.58
729.514	276.88
729.956	285.68
730.399	290.28
730.841	292.38
731.283	278.43
731.726	271.63
732.168	277.73
732.61	296.58
733.053	320.48
733.495	354.08
733.937	389.33
734.379	461.18
734.821	584.83
735.263	933.98
735.705	1622.33
736.148	2320.93
736.59	2296.48
737.032	2466.13
737.474	2057.53
737.916	837.98
738.357	439.23
738.799	343.38
739.241	318.13
739.683	321.28
740.125	318.13
740.567	316.93
741.008	335.58
741.45	354.28
741.892	363.93
742.334	363.58
742.775	357.63
743.217	338.18
743.658	295.58
744.1	300.98
744.542	335.58
744.983	343.93
745.425	357.33
745.866	358.93
746.307	319.73
746.749	351.23
747.19	506.03
747.632	982.43
748.073	1765.38
748.514	2376.18
748.956	3153.78
749.397	3644.08
749.838	2537.33
750.279	2379.98
750.72	1287.43
751.162	559.08
751.603	328.33
752.044	259.53
752.485	230.98
752.926	215.88
753.367	204.83
753.808	203.98
754.249	193.98
754.69	197.58
755.131	192.53
755.572	195.68
756.013	196.08
756.453	198.13
756.894	200.83
757.335	199.43
757.776	202.18
758.216	210.98
758.657	222.93
759.098	240.98
759.538	290.58
759.979	426.88
760.42	867.73
760.86	2139.28
761.301	4341.73
761.741	5008.03
762.182	5694.18
762.622	3701.88
763.063	1423.48
763.503	633.13
763.943	474.53
764.384	503.38
764.824	473.33
765.264	468.08
765.705	335.28
766.145	248.58
766.585	223.28
767.025	234.33
767.465	296.38
767.906	366.63
768.346	377.78
768.786	396.48
769.226	412.88
769.666	711.78
770.106	1485.43
770.546	2040.18
770.986	2259.53
771.426	1732.68
771.866	763.18
772.306	349.33
772.745	224.33
773.185	193.68
773.625	196.28
774.065	224.73
774.505	361.68
774.944	699.38
775.384	1012.93
775.824	1142.93
776.263	952.33
776.703	484.73
777.142	251.08
777.582	175.63
778.021	163.23
778.461	149.78
778.9	145.48
779.34	134.73
779.779	132.33
780.219	125.38
780.658	124.63
781.097	123.78
781.537	112.63
781.976	115.28
782.415	122.03
782.855	121.53
783.294	115.68
783.733	116.18
784.172	114.83
784.611	112.38
785.05	118.83
785.489	122.33
785.928	125.03
786.367	132.33
786.806	138.08
787.245	146.43
787.684	146.38
788.123	142.53
788.562	141.38
789.001	140.88
789.44	131.18
789.879	132.33
790.317	132.13
790.756	148.43
791.195	161.08
791.634	216.13
792.072	397.83
792.511	952.53
792.95	1691.63
793.388	2008.48
793.827	1334.98
794.265	626.53
794.704	309.98
795.142	189.33
795.581	152.28
796.019	143.43
796.458	137.73
796.896	143.58
797.334	165.48
797.773	223.58
798.211	430.33
798.649	871.93
799.087	1427.28
799.526	1982.13
799.964	2024.43
800.402	1410.23
800.84	664.28
801.278	328.68
801.716	199.88
802.154	158.68
802.592	155.73
803.03	152.18
803.468	157.43
803.906	159.83
804.344	152.43
804.782	149.88
805.22	148.78
805.658	153.53
806.096	167.93
806.533	185.28
806.971	236.78
807.409	348.88
807.847	692.58
808.284	1701.58
808.722	2899.88
809.16	4097.28
809.597	5578.78
810.035	6727.73
810.472	4363.98
810.91	1942.13
811.347	885.18
811.785	416.23
812.222	259.43
812.66	202.18
813.097	175.98
813.535	152.78
813.972	135.28
814.409	131.33
814.846	120.83
815.284	111.63
815.721	118.88
816.158	126.58
816.595	157.23
817.032	190.43
817.47	172.63
817.907	139.53
818.344	120.03
818.781	114.03
819.218	131.18
819.655	194.43
820.092	246.93
820.529	231.13
820.966	192.13
821.403	143.98
821.839	119.33
822.276	135.48
822.713	153.78
823.15	147.28
823.587	157.43
824.023	283.93
824.46	709.68
824.897	1197.88
825.333	932.33
825.77	442.58
826.206	235.88
826.643	134.73
827.08	104.58
827.516	91.23
827.953	85.38
828.389	81.18
828.825	77.83
829.262	76.98
829.698	71.23
830.135	63.58
830.571	68.18
831.007	67.13
831.443	68.88
831.88	71.18
832.316	79.23
832.752	73.38
833.188	74.93
833.624	72.93
834.06	73.93
834.497	74.98
834.933	72.48
835.369	83.78
835.805	91.98
836.241	93.83
836.677	100.08
837.112	116.93
837.548	143.83
837.984	214.38
838.42	455.33
838.856	1228.58
839.292	2314.43
839.727	1729.33
840.163	1221.33
840.599	1813.63
841.034	2672.83
841.47	1389.58
841.906	694.73
842.341	392.38
842.777	330.13
843.212	381.33
843.648	223.23
844.083	146.43
844.519	100.68
844.954	85.53
845.39	67.63
845.825	64.63
846.261	65.78
846.696	61.83
847.131	56.23
847.566	59.88
848.002	63.33
848.437	71.13
848.872	66.73
849.307	87.33
849.742	159.48
850.177	416.43
850.613	849.73
851.048	614.33
851.483	288.38
851.918	161.88
852.353	92.98
852.788	78.18
853.223	64.08
853.657	56.53
854.092	54.73
854.527	49.13
854.962	55.98
855.397	56.88
855.832	55.98
856.266	42.78
856.701	45.23
857.136	49.08
857.57	53.98
858.005	57.43
858.44	48.33
858.874	52.43
859.309	59.13
859.743	54.48
860.178	51.88
860.612	56.98
861.047	74.48
861.481	93.03
861.915	62.33
862.35	54.33
862.784	45.78
863.218	44.38
863.653	46.33
864.087	54.43
864.521	74.68
864.955	119.63
865.39	202.98
865.824	147.53
866.258	169.53
866.692	237.48
867.126	173.28
867.56	97.18
867.994	64.03
868.428	56.98
868.862	71.13
869.296	62.53
869.73	77.63
870.164	64.88
870.598	58.58
871.031	44.73
871.465	41.13
871.899	34.03
872.333	27.83
872.766	28.33
873.2	37.93
873.634	34.93
874.067	40.18
874.501	36.28
874.935	29.18
875.368	36.68
875.802	30.83
876.235	28.88
876.669	29.58
877.102	26.83
877.535	27.33
877.969	23.98
878.402	23.03
878.836	29.58
879.269	28.58
879.702	24.38
880.135	28.53
880.569	28.08
881.002	24.13
881.435	29.08
881.868	26.88
882.301	21.58
882.734	24.78
883.167	26.48
883.601	22.08
884.034	25.63
884.467	21.48
884.899	20.53
885.332	18.13
885.765	21.83
886.198	19.63
886.631	21.18
887.064	22.08
887.497	21.33
887.929	23.88
888.362	18.83
888.795	23.28
889.228	25.53
889.66	20.33
890.093	21.48
890.526	24.28
890.958	21.83
891.391	22.43
891.823	21.53
892.256	23.13
892.688	22.13
893.121	20.33
893.553	24.28
893.985	20.63
894.418	15.58
894.85	22.78
895.282	19.68
895.715	17.28
896.147	16.13
896.579	12.78
897.011	22.73
897.444	22.03
897.876	18.03
898.308	10.58
898.74	18.23
899.172	20.28
899.604	21.88
900.036	16.38
900.468	12.88
900.9	20.28
901.332	24.78
901.764	23.43
902.196	23.33
902.628	16.83
903.06	30.63
903.491	30.98
903.923	26.18
904.355	27.08
904.787	31.23
905.218	23.23
905.65	26.68
906.082	21.63
906.513	20.83
906.945	24.43
907.376	22.98
907.808	22.33
908.239	26.88
908.671	29.28
909.102	32.03
909.534	41.73
909.965	82.13
910.397	202.03
910.828	557.03
911.259	343.28
911.691	192.53
912.122	111.88
912.553	58.38
912.984	28.58
913.415	26.63
913.847	23.88
914.278	18.98
914.709	17.58
915.14	15.98
915.571	18.33
916.002	18.78
916.433	17.63
916.864	18.58
917.295	23.43
917.726	25.73
918.157	26.78
918.587	23.28
919.018	19.68
919.449	19.58
919.88	22.43
920.311	41.23
920.741	126.88
921.172	206.28
921.603	104.18
922.033	67.18
922.464	48.43
922.895	28.88
923.325	21.08
923.756	15.98
924.186	26.43
924.617	42.43
925.047	65.43
925.478	63.48
925.908	44.98
926.338	28.73
926.769	23.43
927.199	25.38
927.629	17.08
928.06	20.53
928.49	17.88
928.92	15.48
929.35	14.58
929.78	9.73
930.21	10.88
930.641	8.48
931.071	12.63
931.501	7.18
931.931	6.48
932.361	6.88
932.791	13.93
933.221	13.73
933.651	15.33
934.08	27.63
934.51	13.08
934.94	14.83
935.37	11.53
935.8	5.73
936.229	0.83
936.659	9.13
937.089	11.53
937.519	15.73
937.948	26.63
938.378	18.83
938.807	11.13
939.237	7.18
939.666	9.58
940.096	4.68
940.525	1.83
940.955	9.58
941.384	4.38
941.814	-0.82
942.243	4.68
942.672	3.28
943.102	-0.32
943.531	1.53
943.96	3.58
944.39	3.63
944.819	5.28
945.248	2.73
945.677	8.78
946.106	2.63
946.535	6.33
946.964	0.38
947.393	3.13
947.822	3.48
948.251	8.03
948.68	4.98
949.109	4.78
949.538	3.18
949.967	4.03
950.396	6.28
950.825	8.43
951.254	2.33
951.682	1.28
952.111	-1.42
952.54	0.38
952.969	4.18
953.397	0.78
953.826	0.48
954.254	4.38
954.683	3.58
955.112	6.03
955.54	1.28
955.969	0.13
956.397	4.63
956.826	-1.07
957.254	2.28
957.682	0.98
958.111	8.78
958.539	3.23
958.967	0.48
959.396	7.03
959.824	5.23
960.252	4.28
960.68	1.33
961.109	2.83
961.537	3.98
961.965	-0.22
962.393	1.68
962.821	-1.12
963.249	1.93
963.677	3.98
964.105	36.23
964.533	58.98
964.961	24.78
965.389	12.83
965.817	2.83
966.245	3.83
966.672	3.03
967.1	7.28
967.528	-5.32
967.956	2.68
968.383	4.13
968.811	-2.42
969.239	0.98
969.666	-0.17
970.094	3.33
970.522	-2.42
970.949	4.13
971.377	-6.17
971.804	0.98
972.232	1.33
972.659	3.63
973.087	3.63
973.514	3.38
973.941	1.38
974.369	-2.22
974.796	-0.42
975.223	-3.52
975.651	4.63
976.078	-1.62
976.505	1.63
976.932	10.58
977.359	14.63
977.786	12.83
978.214	6.58
978.641	-2.02
979.068	5.78
979.495	-0.22
979.922	2.03
980.349	3.63
980.776	1.53
981.202	0.23
981.629	8.38
982.056	0.78
982.483	-5.32
982.91	-1.72
983.337	-5.22
983.763	6.38
984.19	6.93
984.617	0.43
985.043	-0.12
985.47	2.38
985.897	1.38
986.323	4.83
986.75	-3.72
987.176	-0.42
987.603	6.68
988.029	-1.42
988.456	6.23
988.882	3.08
989.308	-4.27
989.735	-0.37
990.161	3.38
990.587	3.43
991.014	2.78
991.44	0.83
991.866	1.03
992.292	2.43
992.719	0.43
993.145	3.13
993.571	-0.42
993.997	3.48
994.423	2.58
994.849	-2.82
995.275	1.83
995.701	-1.07
996.127	-3.07
996.553	-2.62
996.979	1.23
997.405	-0.72
997.83	0.48
998.256	6.18
998.682	-1.62
999.108	3.08
999.534	-7.17
999.959	0.93
1000.385	4.98
1000.811	-2.72
1001.236	-4.57
1001.662	-1.37
1002.087	7.88
1002.513	-1.17
1002.938	-3.12
1003.364	-2.22
1003.789	4.93
1004.215	0.38
1004.64	1.13
1005.066	0.28
1005.491	4.78
1005.916	0.43
1006.342	1.63
1006.767	1.48
1007.192	0.48
1007.617	3.58
1008.042	-3.22
1008.468	0.98
1008.893	1.58
1009.318	-1.37
1009.743	4.83
1010.168	7.43
1010.593	8.33
1011.018	4.88
1011.443	1.38
1011.868	5.78
1012.293	3.58
1012.718	-2.07
1013.143	-0.92
1013.567	4.73
1013.992	2.03
1014.417	-0.87
1014.842	-3.12
1015.267	0.38
1015.691	2.98
1016.116	2.33
1016.541	1.38
1016.965	-1.72
1017.39	1.68
1017.814	-2.57
1018.239	0.63
1018.663	-7.47
1019.088	-2.12
1019.512	0.43
1019.937	-2.67
1020.361	0.18
1020.785	-0.02
1021.21	-3.42
1021.634	1.08
1022.058	3.83
1022.483	-3.42
1022.907	0.23
1023.331	-2.32
1023.755	-0.87
1024.179	-2.72
1024.604	0.23
1025.028	-0.62
1025.452	-1.02
1025.876	2.48
1026.3	-1.32
1026.724	-1.27
1027.148	-2.07
1027.572	1.48
1027.996	-0.22
1028.42	-2.72
1028.843	-0.12
1029.267	-0.82
1029.691	1.03
1030.115	-5.32
1030.539	-2.37
1030.962	-0.92
1031.386	-0.52
1031.81	-3.02
1032.233	-2.82
1032.657	-5.32
1033.08	-4.52
1033.504	-0.82
1033.927	-3.07
1034.351	-4.42
1034.774	-2.52
1035.198	-1.97
1035.621	0.08
1036.045	-6.17
1036.468	5.68
1036.891	1.48
1037.315	4.23
1037.738	0.88
1038.161	-0.12
1038.584	-2.77
1039.008	-5.52
1039.431	-2.37
1039.854	-7.22
1040.277	6.18
1040.7	-1.72
1041.123	1.38
1041.546	-4.62
1041.969	1.73
1042.392	7.23
1042.815	-6.62
1043.238	-4.07
1043.661	-1.12
1044.084	-2.07
1044.507	0.78
1044.93	0.18
1045.352	-2.12
1045.775	-5.77
1046.198	0.28
1046.621	1.28
1047.043	-2.42
1047.466	1.63
1047.889	-0.77
1048.311	0.88
1048.734	-3.87
1049.156	-3.17
1049.579	-0.57
1050.001	-2.77
1050.424	-1.07
1050.846	-6.22
1051.269	-5.07
1051.691	3.58
1052.113	-0.12
1052.536	0.18
1052.958	-7.57
1053.38	-1.57
1053.802	0.28
1054.225	-2.47
1054.647	2.58
1055.069	0.48
1055.491	-0.42
1055.913	-1.77
1056.335	-4.37
1056.757	-4.37
1057.179	-4.72
1057.601	-4.72
1058.023	-1.77
1058.445	-1.42
1058.867	-0.07
1059.289	0.13
1059.711	-5.62
1060.133	2.63
1060.555	-3.67
1060.976	1.63
1061.398	-3.12
1061.82	-2.12
1062.241	-2.07
1062.663	-4.82
1063.085	-4.72
1063.506	-3.97
1063.928	-6.32
1064.35	-1.97
1064.771	-3.42
1065.193	-6.02
1065.614	-6.27
1066.035	2.48
1066.457	0.53
1066.878	-0.92
1067.3	-4.07
1067.721	2.83
1068.142	2.53
1068.564	1.03
1068.985	-3.12
1069.406	-5.92
1069.827	-3.42
1070.248	-4.42
1070.67	-6.47
1071.091	-9.47
1071.512	-2.92
1071.933	-4.72
1072.354	-9.32
1072.775	-3.92
1073.196	-4.32
1073.617	-4.82
1074.038	-1.67
1074.459	-4.12
1074.88	-4.02
1075.3	-2.27
1075.721	2.43
1076.142	-4.47
1076.563	-7.02
1076.983	1.78
1077.404	-6.17
1077.825	-0.57
1078.246	-5.42
1078.666	-4.57
1079.087	-2.57
1079.507	-0.97
1079.928	-2.37
1080.348	-0.22
1080.769	-1.57
1081.189	0.33
1081.61	-1.77
1082.03	4.28
1082.451	-1.37
1082.871	-6.52
1083.291	-3.62
1083.711	-4.02
1084.132	-7.72
1084.552	-7.12
1084.972	-5.82
1085.392	-6.02
1085.813	1.53
1086.233	-1.67
1086.653	-0.92
1087.073	-4.72
1087.493	-1.82
1087.913	-4.27
1088.333	-2.77
1088.753	1.38
1089.173	4.03
1089.593	0.83
1090.013	-7.22
1090.433	-9.67
1090.852	-4.27
1091.272	-1.47
1091.692	0.58
1092.112	-3.42
1092.531	-4.32
1092.951	-0.52
1093.371	0.78
1093.79	-1.72
1094.21	-6.67
1094.63	-0.52
1095.049	-2.32
1095.469	-12.92
1095.888	-1.72
1096.308	-1.97
1096.727	-7.47
1097.146	-6.92
1097.566	-1.67
1097.985	-4.37
1098.405	1.53
1098.824	-2.52
1099.243	-2.22
1099.662	-2.82
1100.082	1.53
1100.501	-1.57
1100.92	1.93
1101.339	1.03
1101.758	0.43
