Data from MSPlasma+Separation6_Subt14_10-14-49-470.txt Node
Date: Fri Jul 21 10:14:49 EDT 2017
User: Ender
Spectrometer: HR+D1039
Trigger mode: 0
Integration Time (sec): 6.430000E-3
Scans to average: 20
Electric dark correction enabled: true
Nonlinearity correction enabled: false
Boxcar width: 0
XAxis mode: Wavelengths
Number of Pixels in Spectrum: 2048
>>>>>Begin Spectral Data<<<<<
187.836	1.11
188.309	1.11
188.782	1.11
189.255	0.36
189.728	0.06
190.201	-4.09
190.674	2.16
191.147	0.06
191.619	0.31
192.092	-1.09
192.565	-2.39
193.038	3.96
193.511	1.51
193.984	1.86
194.456	0.26
194.929	-3.59
195.402	-3.89
195.874	3.46
196.347	1.41
196.82	0.76
197.292	-3.99
197.765	-0.44
198.237	1.26
198.71	-6.59
199.182	-2.84
199.655	5.16
200.127	0.56
200.6	1.96
201.072	2.21
201.544	-0.29
202.017	0.81
202.489	0.46
202.961	-4.44
203.433	-5.69
203.906	-1.64
204.378	4.66
204.85	4.46
205.322	1.16
205.794	7.56
206.266	1.26
206.739	9.76
207.211	3.06
207.683	1.01
208.155	2.66
208.627	5.21
209.099	4.96
209.57	4.76
210.042	6.16
210.514	5.66
210.986	15.46
211.458	22.61
211.93	12.86
212.402	8.51
212.873	2.96
213.345	-1.69
213.817	2.96
214.288	-0.64
214.76	4.81
215.232	-0.04
215.703	-1.14
216.175	5.46
216.646	0.11
217.118	7.01
217.589	-1.94
218.061	6.81
218.532	2.71
219.004	8.41
219.475	17.56
219.946	32.96
220.418	40.51
220.889	30.71
221.36	14.31
221.832	11.41
222.303	8.66
222.774	4.71
223.245	6.11
223.717	5.81
224.188	7.96
224.659	3.76
225.13	-0.34
225.601	3.06
226.072	5.91
226.543	11.81
227.014	7.91
227.485	10.31
227.956	12.46
228.427	13.96
228.898	11.26
229.369	8.81
229.839	10.71
230.31	15.16
230.781	13.46
231.252	17.71
231.722	23.31
232.193	35.76
232.664	44.56
233.135	59.51
233.605	65.51
234.076	48.36
234.546	40.26
235.017	49.16
235.487	46.81
235.958	51.01
236.428	69.96
236.899	114.91
237.369	123.96
237.84	90.16
238.31	115.31
238.78	113.81
239.251	116.16
239.721	119.86
240.191	86.41
240.662	54.31
241.132	42.21
241.602	49.76
242.072	75.71
242.542	92.76
243.013	64.41
243.483	55.16
243.953	41.86
244.423	44.31
244.893	51.21
245.363	66.36
245.833	54.41
246.303	61.76
246.773	83.21
247.243	83.16
247.712	98.36
248.182	117.06
248.652	118.66
249.122	171.81
249.592	324.01
250.061	491.11
250.531	791.46
251.001	597.56
251.471	493.86
251.94	379.91
252.41	203.91
252.879	135.71
253.349	108.91
253.818	84.01
254.288	74.71
254.757	76.71
255.227	97.41
255.696	80.41
256.166	73.31
256.635	76.41
257.105	99.96
257.574	131.31
258.043	128.51
258.513	237.01
258.982	307.66
259.451	204.56
259.92	218.16
260.389	194.66
260.859	145.06
261.328	169.26
261.797	244.66
262.266	213.81
262.735	97.26
263.204	63.86
263.673	49.51
264.142	53.46
264.611	50.61
265.08	55.71
265.549	62.26
266.018	57.36
266.487	51.16
266.955	47.26
267.424	60.56
267.893	61.56
268.362	61.21
268.83	56.81
269.299	59.66
269.768	71.61
270.236	87.01
270.705	93.51
271.174	90.51
271.642	98.06
272.111	112.51
272.579	187.86
273.048	288.76
273.516	370.56
273.985	373.46
274.453	284.46
274.922	170.01
275.39	106.71
275.858	98.51
276.327	79.76
276.795	86.01
277.263	95.26
277.731	131.66
278.2	257.61
278.668	340.16
279.136	263.86
279.604	164.66
280.072	98.76
280.54	88.16
281.008	89.26
281.477	86.96
281.945	93.66
282.413	85.81
282.881	97.66
283.348	95.06
283.816	98.56
284.284	108.66
284.752	100.76
285.22	104.01
285.688	114.61
286.156	191.76
286.623	517.31
287.091	1013.96
287.559	531.66
288.026	195.91
288.494	127.21
288.962	100.71
289.429	97.61
289.897	93.81
290.364	88.66
290.832	93.06
291.3	94.51
291.767	97.46
292.234	98.46
292.702	98.31
293.169	110.66
293.637	118.96
294.104	113.86
294.571	106.66
295.039	108.96
295.506	107.61
295.973	111.21
296.44	103.61
296.908	119.81
297.375	135.46
297.842	135.61
298.309	115.91
298.776	110.16
299.243	119.36
299.71	107.21
300.177	108.91
300.644	121.86
301.111	136.96
301.578	129.91
302.045	118.81
302.512	114.21
302.979	120.86
303.446	126.91
303.913	125.56
304.379	139.41
304.846	150.16
305.313	168.01
305.78	199.41
306.246	240.71
306.713	258.36
307.18	225.11
307.646	251.86
308.113	215.06
308.579	175.86
309.046	170.91
309.512	167.96
309.979	159.86
310.445	146.91
310.912	153.56
311.378	149.71
311.845	152.96
312.311	143.21
312.777	142.26
313.244	153.61
313.71	164.41
314.176	178.86
314.642	202.96
315.109	237.71
315.575	218.71
316.041	207.26
316.507	187.81
316.973	210.01
317.439	205.21
317.905	227.76
318.371	222.81
318.837	209.31
319.303	222.81
319.769	207.06
320.235	231.51
320.701	260.36
321.167	280.16
321.633	332.71
322.099	466.31
322.564	636.61
323.03	494.66
323.496	340.96
323.962	324.01
324.427	304.26
324.893	261.06
325.359	251.46
325.824	223.01
326.29	230.11
326.755	237.31
327.221	236.86
327.686	243.86
328.152	224.51
328.617	215.51
329.083	220.26
329.548	230.56
330.014	235.96
330.479	257.56
330.944	301.16
331.41	348.71
331.875	331.36
332.34	339.91
332.805	388.71
333.271	503.31
333.736	669.41
334.201	603.81
334.666	446.16
335.131	508.91
335.596	400.96
336.061	424.56
336.526	430.36
336.991	375.16
337.456	410.56
337.921	323.81
338.386	263.71
338.851	238.11
339.316	225.71
339.781	217.46
340.246	220.91
340.711	215.26
341.175	224.11
341.64	237.41
342.105	231.81
342.569	251.91
343.034	265.01
343.499	278.21
343.963	266.06
344.428	260.41
344.893	263.36
345.357	271.06
345.822	263.56
346.286	265.16
346.751	288.46
347.215	276.71
347.679	288.11
348.144	311.91
348.608	303.86
349.073	313.16
349.537	352.51
350.001	342.51
350.465	321.06
350.93	309.21
351.394	309.01
351.858	312.41
352.322	321.56
352.786	326.36
353.25	321.01
353.715	318.16
354.179	337.81
354.643	354.66
355.107	362.21
355.571	381.41
356.035	390.16
356.498	377.91
356.962	408.86
357.426	397.86
357.89	357.26
358.354	339.91
358.818	338.51
359.281	347.56
359.745	366.31
360.209	354.11
360.673	362.41
361.136	358.96
361.6	366.41
362.064	394.26
362.527	399.56
362.991	394.16
363.454	397.66
363.918	404.86
364.381	394.21
364.845	384.36
365.308	379.81
365.772	381.61
366.235	384.56
366.698	402.46
367.162	486.01
367.625	550.16
368.088	444.76
368.552	397.96
369.015	408.16
369.478	442.51
369.941	452.86
370.404	454.41
370.867	481.26
371.331	498.16
371.794	492.06
372.257	555.01
372.72	587.01
373.183	555.06
373.646	566.16
374.109	569.86
374.572	649.36
375.035	767.21
375.497	582.16
375.96	467.71
376.423	445.61
376.886	439.46
377.349	451.96
377.811	463.41
378.274	473.06
378.737	474.46
379.199	489.71
379.662	501.06
380.125	533.86
380.587	591.21
381.05	630.61
381.512	626.36
381.975	605.36
382.437	590.86
382.9	598.96
383.362	599.51
383.825	637.86
384.287	808.16
384.75	899.61
385.212	789.01
385.674	652.56
386.136	594.21
386.599	587.16
387.061	615.71
387.523	644.76
387.985	646.46
388.447	673.46
388.91	747.86
389.372	905.76
389.834	851.21
390.296	702.76
390.758	709.96
391.22	733.06
391.682	901.66
392.144	1401.01
392.606	1328.26
393.068	768.56
393.529	700.21
393.991	683.01
394.453	662.81
394.915	702.11
395.377	850.76
395.838	1054.46
396.3	749.66
396.762	575.06
397.224	547.31
397.685	537.26
398.147	545.61
398.608	553.46
399.07	558.56
399.531	544.41
399.993	562.46
400.454	563.71
400.916	558.51
401.377	578.16
401.839	584.81
402.3	590.51
402.762	611.21
403.223	681.31
403.684	688.11
404.145	635.36
404.607	618.11
405.068	619.96
405.529	629.11
405.99	637.61
406.451	649.66
406.913	636.36
407.374	646.81
407.835	649.11
408.296	670.26
408.757	676.11
409.218	690.96
409.679	691.36
410.14	713.76
410.601	743.31
411.062	771.76
411.522	883.01
411.983	983.31
412.444	834.76
412.905	730.86
413.366	736.36
413.826	760.91
414.287	844.51
414.748	1000.26
415.208	1026.11
415.669	851.01
416.13	787.11
416.59	761.31
417.051	787.01
417.511	820.46
417.972	890.66
418.432	958.26
418.893	1060.76
419.353	1020.86
419.814	782.81
420.274	702.36
420.734	705.11
421.195	752.16
421.655	778.41
422.115	752.36
422.576	724.61
423.036	729.11
423.496	754.56
423.956	786.86
424.416	850.46
424.876	952.01
425.336	955.86
425.797	938.16
426.257	951.96
426.717	887.11
427.177	837.81
427.637	867.71
428.097	911.01
428.556	957.96
429.016	1032.46
429.476	1029.61
429.936	985.46
430.396	960.91
430.856	975.41
431.315	1010.06
431.775	1070.61
432.235	1135.21
432.694	1156.31
433.154	1092.01
433.614	1058.06
434.073	1023.16
434.533	924.61
434.993	893.61
435.452	901.66
435.912	886.66
436.371	882.11
436.83	879.81
437.29	886.21
437.749	835.41
438.209	830.06
438.668	844.21
439.127	849.51
439.587	833.41
440.046	792.61
440.505	814.51
440.964	809.36
441.424	832.61
441.883	847.21
442.342	808.36
442.801	777.26
443.26	797.01
443.719	799.06
444.178	780.71
444.637	787.96
445.096	792.21
445.555	808.06
446.014	809.96
446.473	790.21
446.932	790.56
447.391	794.86
447.849	815.06
448.308	810.36
448.767	822.36
449.226	847.46
449.685	856.01
450.143	883.71
450.602	890.91
451.061	849.76
451.519	864.16
451.978	883.36
452.436	915.56
452.895	868.31
453.353	837.86
453.812	848.16
454.27	852.86
454.729	813.51
455.187	831.16
455.646	831.11
456.104	838.76
456.562	829.31
457.021	833.41
457.479	792.06
457.937	819.56
458.395	843.36
458.854	827.86
459.312	814.21
459.77	822.16
460.228	833.01
460.686	849.46
461.144	850.26
461.602	838.71
462.06	837.46
462.518	858.86
462.976	859.51
463.434	874.96
463.892	881.81
464.35	894.61
464.808	909.71
465.266	914.31
465.724	937.41
466.181	938.26
466.639	935.71
467.097	967.11
467.555	1005.31
468.012	988.51
468.47	999.91
468.928	1031.81
469.385	1066.76
469.843	1069.06
470.3	1059.21
470.758	1099.96
471.215	1119.96
471.673	1133.86
472.13	1165.61
472.588	1199.96
473.045	1197.61
473.503	1217.61
473.96	1268.11
474.417	1287.96
474.875	1338.16
475.332	1386.76
475.789	1405.41
476.246	1456.26
476.704	1515.21
477.161	1554.81
477.618	1610.01
478.075	1698.91
478.532	1842.76
478.989	1981.96
479.446	2182.71
479.903	2311.76
480.36	2537.21
480.817	2729.31
481.274	2925.06
481.731	3205.31
482.188	3461.01
482.645	3733.36
483.102	3985.61
483.558	4266.71
484.015	4489.31
484.472	4496.26
484.929	4349.21
485.385	4154.46
485.842	4050.46
486.299	3842.61
486.755	3446.71
487.212	3080.96
487.668	2771.61
488.125	2560.76
488.582	2360.81
489.038	2250.56
489.494	2178.01
489.951	2118.26
490.407	2049.96
490.864	2027.31
491.32	1967.86
491.776	1939.96
492.233	1956.01
492.689	1919.06
493.145	1905.36
493.602	1867.26
494.058	1909.61
494.514	1946.11
494.97	1944.61
495.426	1972.56
495.882	1985.46
496.338	1988.56
496.794	2063.16
497.251	2090.41
497.707	2073.61
498.163	2081.76
498.618	2083.01
499.074	2091.56
499.53	2136.61
499.986	2170.56
500.442	2193.31
500.898	2207.66
501.354	2242.56
501.809	2251.21
502.265	2280.61
502.721	2387.96
503.177	2459.36
503.632	2320.96
504.088	2347.21
504.543	2576.26
504.999	2410.86
505.455	2114.66
505.91	2012.91
506.366	2005.41
506.821	1976.81
507.277	1959.71
507.732	1969.41
508.187	1983.31
508.643	1991.31
509.098	1995.31
509.553	2017.56
510.009	2050.06
510.464	2070.11
510.919	2104.31
511.375	2117.61
511.83	2155.16
512.285	2184.16
512.74	2235.31
513.195	2273.86
513.65	2308.66
514.105	2345.26
514.56	2354.06
515.015	2404.06
515.47	2432.01
515.925	2429.51
516.38	2419.56
516.835	2398.76
517.29	2390.81
517.745	2415.26
518.2	2370.81
518.655	2304.36
519.109	2272.06
519.564	2232.71
520.019	2231.91
520.474	2203.51
520.928	2193.66
521.383	2182.01
521.838	2177.16
522.292	2154.01
522.747	2118.51
523.201	2121.11
523.656	2087.66
524.11	2085.16
524.565	2076.46
525.019	2083.61
525.474	2104.01
525.928	2107.46
526.382	2069.56
526.837	2043.71
527.291	2059.76
527.745	2043.16
528.2	2048.51
528.654	2028.46
529.108	2045.26
529.562	2035.86
530.016	2042.11
530.47	2050.36
530.925	2045.11
531.379	2063.21
531.833	2087.41
532.287	2063.46
532.741	2039.91
533.195	2054.01
533.649	2051.31
534.103	2059.21
534.556	2031.31
535.01	2055.41
535.464	2049.31
535.918	2057.26
536.372	2060.06
536.826	2045.66
537.279	2048.11
537.733	2044.96
538.187	2062.11
538.64	2054.36
539.094	2070.66
539.548	2121.71
540.001	2085.91
540.455	2100.01
540.908	2118.76
541.362	2146.26
541.815	2137.86
542.269	2187.06
542.722	2187.21
543.175	2220.71
543.629	2230.46
544.082	2236.01
544.536	2269.81
544.989	2248.26
545.442	2273.81
545.895	2279.71
546.349	2276.96
546.802	2276.21
547.255	2281.16
547.708	2301.36
548.161	2316.16
548.614	2314.96
549.067	2336.76
549.52	2313.41
549.973	2290.11
550.426	2276.81
550.879	2258.41
551.332	2238.51
551.785	2268.21
552.238	2294.21
552.691	2296.51
553.144	2325.71
553.596	2361.11
554.049	2383.11
554.502	2448.91
554.955	2488.61
555.407	2517.21
555.86	2490.41
556.313	2460.66
556.765	2445.51
557.218	2413.36
557.67	2407.81
558.123	2380.66
558.576	2358.31
559.028	2367.36
559.48	2393.81
559.933	2383.91
560.385	2302.71
560.838	2216.41
561.29	2157.31
561.742	2148.01
562.195	2104.16
562.647	2095.91
563.099	2092.06
563.551	2086.31
564.004	2113.26
564.456	2091.66
564.908	2047.51
565.36	2014.86
565.812	1978.31
566.264	1951.81
566.716	1931.91
567.168	1896.56
567.62	1920.46
568.072	1896.31
568.524	1863.06
568.976	1847.96
569.428	1838.06
569.88	1831.46
570.332	1839.66
570.784	1829.66
571.235	1825.96
571.687	1842.81
572.139	1846.46
572.59	1859.06
573.042	1875.46
573.494	1872.51
573.945	1848.56
574.397	1807.96
574.849	1805.31
575.3	1804.56
575.752	1781.61
576.203	1770.56
576.655	1787.71
577.106	1756.56
577.557	1741.11
578.009	1731.96
578.46	1745.46
578.912	1720.76
579.363	1744.31
579.814	1721.61
580.265	1729.21
580.717	1727.96
581.168	1728.36
581.619	1740.16
582.07	1760.66
582.521	1751.91
582.972	1752.01
583.423	1774.46
583.875	1806.86
584.326	1918.61
584.777	2126.66
585.227	2343.96
585.678	2524.36
586.129	2577.11
586.58	2627.51
587.031	2658.11
587.482	2837.61
587.933	3379.41
588.384	3072.31
588.834	2465.61
589.285	2042.16
589.736	1984.01
590.186	1981.71
590.637	1961.61
591.088	1917.61
591.538	1894.21
591.989	1881.36
592.439	1865.81
592.89	1860.31
593.34	1863.26
593.791	1882.11
594.241	1886.51
594.692	1909.06
595.142	1881.71
595.593	1853.41
596.043	1856.56
596.493	1883.31
596.943	1936.31
597.394	1900.66
597.844	1883.66
598.294	1904.66
598.744	1965.31
599.195	2066.71
599.645	2177.76
600.095	2282.41
600.545	2382.21
600.995	2488.31
601.445	2577.91
601.895	2705.01
602.345	2789.46
602.795	2744.91
603.245	2631.91
603.695	2467.26
604.145	2325.66
604.594	2218.16
605.044	2112.71
605.494	1985.96
605.944	1877.51
606.393	1841.76
606.843	1822.86
607.293	1829.61
607.743	1821.16
608.192	1838.56
608.642	1849.51
609.091	1839.61
609.541	1837.56
609.99	1832.81
610.44	1792.36
610.889	1772.66
611.339	1761.26
611.788	1754.31
612.238	1767.76
612.687	1790.41
613.136	1809.66
613.586	1841.76
614.035	1840.46
614.484	1860.96
614.933	1882.16
615.383	1826.96
615.832	1768.06
616.281	1732.16
616.73	1677.61
617.179	1637.76
617.628	1606.21
618.077	1567.06
618.526	1541.91
618.975	1538.61
619.424	1498.06
619.873	1519.11
620.322	1502.56
620.771	1509.26
621.22	1481.51
621.669	1452.61
622.118	1441.31
622.567	1426.11
623.015	1402.81
623.464	1409.81
623.913	1382.16
624.361	1390.01
624.81	1373.01
625.259	1370.31
625.707	1355.31
626.156	1367.16
626.604	1376.46
627.053	1388.36
627.501	1385.41
627.95	1383.91
628.398	1401.66
628.847	1386.86
629.295	1395.21
629.744	1411.36
630.192	1448.11
630.64	1556.16
631.089	1720.81
631.537	1809.36
631.985	1804.46
632.433	1884.26
632.881	1881.81
633.33	2272.71
633.778	2475.86
634.226	1731.91
634.674	1592.91
635.122	1593.66
635.57	1611.81
636.018	1883.91
636.466	1530.11
636.914	1345.26
637.362	1349.46
637.81	1359.91
638.258	1405.16
638.705	1417.16
639.153	1459.01
639.601	1471.76
640.049	1492.46
640.497	1537.71
640.944	1578.21
641.392	1501.76
641.84	1418.11
642.287	1365.31
642.735	1345.61
643.182	1327.71
643.63	1345.36
644.078	1337.46
644.525	1364.31
644.973	1403.36
645.42	1421.46
645.867	1442.81
646.315	1461.36
646.762	1513.91
647.21	1559.76
647.657	1645.21
648.104	1715.41
648.551	1779.71
648.999	1935.66
649.446	2124.01
649.893	2404.71
650.34	2825.96
650.787	3522.51
651.234	4605.86
651.682	6432.51
652.129	9206.71
652.576	13195.46
653.023	15534.01
653.47	15537.21
653.917	15537.26
654.363	15537.16
654.81	15534.16
655.257	15534.81
655.704	15501.86
656.151	10057.61
656.598	6519.71
657.044	4603.41
657.491	3581.66
657.938	2881.26
658.385	2422.16
658.831	2127.56
659.278	1910.96
659.724	1744.46
660.171	1619.76
660.618	1501.71
661.064	1414.11
661.511	1355.21
661.957	1300.31
662.404	1287.66
662.85	1270.21
663.296	1246.66
663.743	1221.11
664.189	1206.86
664.635	1200.06
665.082	1175.76
665.528	1164.31
665.974	1131.91
666.42	1124.51
666.867	1151.41
667.313	1157.01
667.759	1207.91
668.205	1206.61
668.651	1231.36
669.097	1184.81
669.543	1308.26
669.989	1224.76
670.435	1062.56
670.881	1053.86
671.327	1091.36
671.773	1163.06
672.219	1253.11
672.665	1335.31
673.11	1373.36
673.556	1386.71
674.002	1413.16
674.448	1429.61
674.893	1216.31
675.339	1053.21
675.785	984.71
676.23	944.16
676.676	900.06
677.122	880.56
677.567	853.71
678.013	826.81
678.458	818.21
678.904	819.26
679.349	819.51
679.794	810.26
680.24	817.21
680.685	796.01
681.131	805.36
681.576	806.11
682.021	807.66
682.466	815.86
682.912	820.31
683.357	864.66
683.802	938.26
684.247	1025.26
684.692	1092.51
685.137	1133.51
685.583	1152.51
686.028	1212.31
686.473	1141.86
686.918	992.91
687.363	901.06
687.807	859.11
688.252	818.76
688.697	796.16
689.142	773.21
689.587	777.51
690.032	795.71
690.477	820.96
690.921	865.36
691.366	910.96
691.811	948.71
692.255	1014.36
692.7	1237.26
693.145	1794.56
693.589	2724.51
694.034	3241.36
694.478	3430.81
694.923	3141.66
695.367	4457.06
695.812	2709.41
696.256	1156.66
696.701	844.86
697.145	790.51
697.59	764.71
698.034	755.41
698.478	751.86
698.922	759.56
699.367	774.21
699.811	820.46
700.255	888.36
700.699	971.86
701.143	1041.66
701.588	1099.26
702.032	1137.76
702.476	1174.26
702.92	1239.66
703.364	1628.46
703.808	2497.81
704.252	3108.51
704.696	3265.66
705.14	3063.16
705.584	4238.56
706.027	2354.61
706.471	1182.66
706.915	881.26
707.359	786.91
707.803	740.36
708.246	717.36
708.69	715.41
709.134	707.26
709.577	706.56
710.021	720.76
710.465	713.16
710.908	706.86
711.352	738.16
711.795	818.26
712.239	879.01
712.682	906.66
713.126	898.01
713.569	995.76
714.012	827.16
714.456	736.86
714.899	679.16
715.342	630.31
715.786	606.86
716.229	587.61
716.672	576.71
717.115	579.21
717.558	587.51
718.002	603.91
718.445	637.11
718.888	665.11
719.331	675.71
719.774	684.46
720.217	672.06
720.66	633.01
721.103	593.91
721.546	571.86
721.989	559.86
722.432	555.16
722.874	549.66
723.317	561.01
723.76	595.21
724.203	739.06
724.645	984.71
725.088	1162.41
725.531	1135.76
725.974	1237.41
726.416	1111.06
726.859	687.36
727.301	561.21
727.744	546.16
728.187	546.31
728.629	553.26
729.071	582.51
729.514	607.71
729.956	633.21
730.399	635.56
730.841	637.31
731.283	615.81
731.726	599.66
732.168	612.86
732.61	649.11
733.053	693.41
733.495	766.06
733.937	852.86
734.379	1009.31
734.821	1283.36
735.263	2047.11
735.705	3690.91
736.148	5376.51
736.59	5356.71
737.032	5808.86
737.474	4782.46
737.916	1834.16
738.357	972.31
738.799	749.96
739.241	695.16
739.683	701.16
740.125	718.61
740.567	707.71
741.008	743.61
741.45	777.21
741.892	805.51
742.334	799.06
742.775	795.56
743.217	755.86
743.658	646.81
744.1	654.86
744.542	746.81
744.983	766.86
745.425	805.91
745.866	795.46
746.307	707.21
746.749	773.81
747.19	1117.66
747.632	2176.41
748.073	4031.01
748.514	5514.46
748.956	7336.41
749.397	8541.96
749.838	5894.81
750.279	5602.16
750.72	2890.46
751.162	1224.86
751.603	705.26
752.044	563.21
752.485	499.21
752.926	470.16
753.367	455.86
753.808	444.16
754.249	435.66
754.69	434.36
755.131	423.21
755.572	425.06
756.013	420.01
756.453	414.11
756.894	435.71
757.335	432.86
757.776	444.21
758.216	458.56
758.657	479.86
759.098	530.76
759.538	652.66
759.979	941.01
760.42	1906.11
760.86	4894.86
761.301	10039.46
761.741	11699.91
762.182	13404.66
762.622	8663.81
763.063	3134.86
763.503	1386.41
763.943	1069.41
764.384	1175.46
764.824	1118.56
765.264	1114.06
765.705	774.06
766.145	550.51
766.585	493.71
767.025	521.26
767.465	688.21
767.906	848.56
768.346	872.71
768.786	913.56
769.226	917.26
769.666	1558.81
770.106	3381.61
770.546	4753.96
770.986	5347.76
771.426	4040.21
771.866	1689.96
772.306	776.31
772.745	489.61
773.185	429.81
773.625	434.91
774.065	509.61
774.505	837.81
774.944	1688.91
775.384	2553.31
775.824	2906.26
776.263	2376.81
776.703	1153.71
777.142	584.66
777.582	395.96
778.021	352.76
778.461	333.16
778.9	321.36
779.34	299.36
779.779	282.11
780.219	273.76
780.658	268.76
781.097	262.56
781.537	259.76
781.976	262.61
782.415	256.01
782.855	258.61
783.294	257.11
783.733	248.06
784.172	254.21
784.611	253.56
785.05	261.71
785.489	265.66
785.928	269.86
786.367	283.81
786.806	297.16
787.245	316.36
787.684	327.56
788.123	325.76
788.562	308.01
789.001	293.61
789.44	287.16
789.879	280.41
790.317	292.81
790.756	311.66
791.195	353.41
791.634	484.51
792.072	870.36
792.511	2157.81
792.95	3951.91
793.388	4733.06
793.827	3058.61
794.265	1406.81
794.704	674.91
795.142	412.11
795.581	340.26
796.019	307.66
796.458	307.76
796.896	315.76
797.334	363.71
797.773	496.56
798.211	941.86
798.649	1949.76
799.087	3273.41
799.526	4605.86
799.964	4752.16
800.402	3245.96
800.84	1469.41
801.278	721.31
801.716	441.46
802.154	354.71
802.592	336.66
803.03	341.96
803.468	343.61
803.906	343.36
804.344	334.06
804.782	323.96
805.22	332.56
805.658	345.11
806.096	369.11
806.533	410.26
806.971	519.16
807.409	762.86
807.847	1527.71
808.284	3896.46
808.722	6825.86
809.16	9572.11
809.597	12933.21
810.035	15383.31
810.472	10352.86
810.91	4399.76
811.347	1964.26
811.785	920.16
812.222	578.56
812.66	445.96
813.097	381.26
813.535	326.66
813.972	296.26
814.409	271.91
814.846	263.76
815.284	248.36
815.721	255.26
816.158	274.16
816.595	354.21
817.032	431.46
817.47	403.06
817.907	316.46
818.344	276.56
818.781	260.86
819.218	308.31
819.655	443.66
820.092	561.16
820.529	521.36
820.966	434.76
821.403	319.41
821.839	281.21
822.276	295.91
822.713	332.41
823.15	320.71
823.587	352.26
824.023	641.66
824.46	1597.71
824.897	2789.51
825.333	2147.91
825.77	989.76
826.206	517.31
826.643	298.36
827.08	225.71
827.516	197.26
827.953	189.76
828.389	175.41
828.825	170.51
829.262	160.61
829.698	153.26
830.135	147.21
830.571	151.16
831.007	151.56
831.443	154.21
831.88	155.46
832.316	159.71
832.752	156.56
833.188	158.36
833.624	158.81
834.06	165.36
834.497	158.51
834.933	164.21
835.369	180.31
835.805	193.01
836.241	200.51
836.677	215.21
837.112	255.76
837.548	312.01
837.984	469.16
838.42	1002.91
838.856	2810.76
839.292	5537.51
839.727	4072.11
840.163	2760.81
840.599	4198.11
841.034	6426.26
841.47	3186.66
841.906	1562.31
842.341	877.31
842.777	777.11
843.212	913.21
843.648	535.11
844.083	334.71
844.519	231.46
844.954	184.21
845.39	160.16
845.825	155.01
846.261	145.36
846.696	139.11
847.131	135.01
847.566	133.51
848.002	140.46
848.437	150.36
848.872	149.21
849.307	192.76
849.742	354.86
850.177	919.71
850.613	1954.11
851.048	1390.31
851.483	640.36
851.918	361.21
852.353	206.51
852.788	168.36
853.223	139.11
853.657	125.16
854.092	115.01
854.527	109.96
854.962	112.41
855.397	124.51
855.832	107.26
856.266	96.96
856.701	96.46
857.136	105.86
857.57	123.26
858.005	140.76
858.44	121.06
858.874	115.86
859.309	123.61
859.743	123.11
860.178	118.36
860.612	128.16
861.047	162.11
861.481	210.41
861.915	147.11
862.35	115.61
862.784	103.86
863.218	94.41
863.653	101.01
864.087	123.81
864.521	161.01
864.955	269.26
865.39	453.41
865.824	325.01
866.258	383.71
866.692	549.16
867.126	397.56
867.56	221.11
867.994	147.01
868.428	123.71
868.862	150.36
869.296	138.21
869.73	166.31
870.164	147.21
870.598	137.41
871.031	99.76
871.465	90.66
871.899	72.66
872.333	68.31
872.766	71.71
873.2	73.81
873.634	74.51
874.067	77.26
874.501	78.96
874.935	74.81
875.368	77.66
875.802	69.51
876.235	62.26
876.669	60.91
877.102	54.51
877.535	60.16
877.969	62.36
878.402	61.66
878.836	57.56
879.269	59.31
879.702	59.11
880.135	65.86
880.569	69.46
881.002	60.96
881.435	61.21
881.868	58.56
882.301	54.01
882.734	45.21
883.167	50.46
883.601	52.06
884.034	55.21
884.467	47.91
884.899	50.01
885.332	49.46
885.765	43.21
886.198	47.46
886.631	46.01
887.064	46.31
887.497	42.11
887.929	46.56
888.362	46.06
888.795	46.01
889.228	46.96
889.66	46.56
890.093	43.31
890.526	42.86
890.958	52.06
891.391	49.61
891.823	44.21
892.256	44.06
892.688	50.86
893.121	44.66
893.553	49.66
893.985	41.26
894.418	38.86
894.85	41.46
895.282	41.31
895.715	37.96
896.147	37.96
896.579	35.31
897.011	43.31
897.444	43.51
897.876	34.66
898.308	39.86
898.74	45.66
899.172	41.66
899.604	40.86
900.036	42.26
900.468	39.61
900.9	44.61
901.332	52.46
901.764	52.06
902.196	48.76
902.628	49.61
903.06	69.61
903.491	75.66
903.923	60.81
904.355	66.11
904.787	72.61
905.218	58.21
905.65	58.01
906.082	58.31
906.513	50.01
906.945	52.11
907.376	54.96
907.808	57.76
908.239	61.86
908.671	61.56
909.102	65.51
909.534	95.21
909.965	179.36
910.397	456.71
910.828	1303.56
911.259	789.26
911.691	428.81
912.122	246.26
912.553	125.06
912.984	70.41
913.415	61.26
913.847	53.66
914.278	52.36
914.709	41.66
915.14	46.91
915.571	45.41
916.002	40.76
916.433	39.61
916.864	43.21
917.295	43.21
917.726	47.06
918.157	61.51
918.587	62.06
919.018	57.26
919.449	56.61
919.88	65.41
920.311	98.41
920.741	274.46
921.172	480.56
921.603	242.36
922.033	153.01
922.464	103.31
922.895	66.26
923.325	45.81
923.756	37.81
924.186	64.51
924.617	109.86
925.047	169.36
925.478	157.81
925.908	108.91
926.338	77.76
926.769	54.36
927.199	46.21
927.629	41.11
928.06	43.51
928.49	43.26
928.92	38.46
929.35	32.26
929.78	28.31
930.21	23.36
930.641	17.71
931.071	25.31
931.501	20.46
931.931	21.76
932.361	22.26
932.791	28.96
933.221	26.86
933.651	39.06
934.08	64.96
934.51	35.71
934.94	30.76
935.37	23.31
935.8	18.31
936.229	18.31
936.659	16.91
937.089	33.31
937.519	39.91
937.948	61.21
938.378	35.51
938.807	25.76
939.237	24.71
939.666	19.41
940.096	13.21
940.525	11.51
940.955	10.21
941.384	11.76
941.814	9.56
942.243	12.81
942.672	8.81
943.102	7.41
943.531	9.51
943.96	6.96
944.39	12.26
944.819	8.96
945.248	10.31
945.677	14.21
946.106	8.91
946.535	9.61
946.964	9.86
947.393	6.96
947.822	8.51
948.251	13.01
948.68	12.06
949.109	10.21
949.538	9.71
949.967	8.46
950.396	10.91
950.825	9.61
951.254	9.46
951.682	4.71
952.111	2.11
952.54	6.51
952.969	7.66
953.397	4.61
953.826	5.86
954.254	11.71
954.683	9.66
955.112	11.11
955.54	4.16
955.969	4.56
956.397	7.81
956.826	6.11
957.254	8.26
957.682	3.46
958.111	11.01
958.539	8.96
958.967	9.16
959.396	7.51
959.824	3.56
960.252	8.86
960.68	8.06
961.109	10.11
961.537	11.56
961.965	3.56
962.393	7.71
962.821	7.76
963.249	10.96
963.677	15.91
964.105	81.61
964.533	136.16
964.961	69.96
965.389	35.31
965.817	25.06
966.245	12.66
966.672	9.11
967.1	10.16
967.528	5.86
967.956	7.16
968.383	7.51
968.811	2.16
969.239	9.36
969.666	8.01
970.094	5.81
970.522	1.06
970.949	7.26
971.377	-0.79
971.804	5.91
972.232	2.96
972.659	4.51
973.087	4.71
973.514	1.21
973.941	2.56
974.369	-3.74
974.796	4.16
975.223	-0.84
975.651	4.36
976.078	5.66
976.505	7.11
976.932	31.56
977.359	40.16
977.786	24.16
978.214	18.81
978.641	8.31
979.068	9.86
979.495	0.41
979.922	8.91
980.349	6.46
980.776	7.96
981.202	6.96
981.629	8.86
982.056	8.16
982.483	1.21
982.91	8.01
983.337	3.81
983.763	2.71
984.19	8.86
984.617	3.11
985.043	5.31
985.47	9.26
985.897	5.16
986.323	8.06
986.75	1.76
987.176	4.36
987.603	5.06
988.029	5.26
988.456	6.51
988.882	1.11
989.308	-1.24
989.735	0.46
990.161	2.41
990.587	3.51
991.014	1.91
991.44	-2.29
991.866	5.16
992.292	2.86
992.719	4.11
993.145	5.81
993.571	3.61
993.997	5.31
994.423	2.41
994.849	0.86
995.275	7.11
995.701	4.41
996.127	-0.29
996.553	5.76
996.979	0.26
997.405	7.36
997.83	2.61
998.256	5.96
998.682	1.36
999.108	3.71
999.534	-1.24
999.959	-2.94
1000.385	5.16
1000.811	-3.84
1001.236	-4.94
1001.662	0.06
1002.087	4.16
1002.513	-2.09
1002.938	-1.84
1003.364	3.31
1003.789	3.96
1004.215	0.11
1004.64	0.86
1005.066	3.31
1005.491	8.16
1005.916	6.51
1006.342	7.61
1006.767	3.91
1007.192	3.01
1007.617	2.11
1008.042	-1.04
1008.468	-1.59
1008.893	1.61
1009.318	6.11
1009.743	14.21
1010.168	24.06
1010.593	19.56
1011.018	14.41
1011.443	8.01
1011.868	3.86
1012.293	5.76
1012.718	-2.29
1013.143	2.91
1013.567	4.56
1013.992	1.11
1014.417	2.36
1014.842	-2.34
1015.267	-3.34
1015.691	5.01
1016.116	-1.79
1016.541	4.26
1016.965	8.06
1017.39	2.06
1017.814	-2.74
1018.239	-1.09
1018.663	-3.09
1019.088	-5.34
1019.512	4.11
1019.937	-3.89
1020.361	2.96
1020.785	-3.39
1021.21	-2.79
1021.634	0.46
1022.058	3.16
1022.483	-3.94
1022.907	-2.49
1023.331	-0.69
1023.755	-1.44
1024.179	2.11
1024.604	2.31
1025.028	3.36
1025.452	4.16
1025.876	2.36
1026.3	0.11
1026.724	0.31
1027.148	3.41
1027.572	1.46
1027.996	4.61
1028.42	2.11
1028.843	-3.84
1029.267	-3.94
1029.691	0.61
1030.115	0.76
1030.539	2.11
1030.962	0.21
1031.386	-1.59
1031.81	-0.84
1032.233	-3.49
1032.657	-5.69
1033.08	-1.74
1033.504	-2.49
1033.927	-0.19
1034.351	0.01
1034.774	1.06
1035.198	-2.99
1035.621	-0.99
1036.045	-2.84
1036.468	7.26
1036.891	1.81
1037.315	6.46
1037.738	-1.39
1038.161	-3.24
1038.584	-2.09
1039.008	0.21
1039.431	-3.89
1039.854	-7.64
1040.277	3.96
1040.7	0.91
1041.123	-0.29
1041.546	0.86
1041.969	2.76
1042.392	0.21
1042.815	-6.39
1043.238	-6.44
1043.661	-3.64
1044.084	-4.84
1044.507	-0.69
1044.93	-0.94
1045.352	-1.19
1045.775	-0.74
1046.198	-0.94
1046.621	4.51
1047.043	-1.39
1047.466	2.31
1047.889	-1.29
1048.311	4.11
1048.734	1.96
1049.156	-5.44
1049.579	0.86
1050.001	1.71
1050.424	-2.04
1050.846	-3.59
1051.269	-2.54
1051.691	-3.29
1052.113	-0.54
1052.536	1.01
1052.958	-6.74
1053.38	-2.44
1053.802	-0.74
1054.225	0.61
1054.647	2.16
1055.069	1.31
1055.491	-2.79
1055.913	2.06
1056.335	-8.24
1056.757	-2.24
1057.179	-0.99
1057.601	-1.14
1058.023	3.06
1058.445	-5.14
1058.867	1.96
1059.289	-0.64
1059.711	-1.09
1060.133	-2.04
1060.555	-1.19
1060.976	1.86
1061.398	-7.69
1061.82	-0.49
1062.241	-3.69
1062.663	-2.69
1063.085	-1.09
1063.506	-5.14
1063.928	-5.44
1064.35	-4.19
1064.771	-1.89
1065.193	-3.59
1065.614	-1.14
1066.035	2.26
1066.457	2.61
1066.878	-1.94
1067.3	2.46
1067.721	3.11
1068.142	3.26
1068.564	0.71
1068.985	-0.89
1069.406	-6.39
1069.827	-1.99
1070.248	-2.94
1070.67	-2.54
1071.091	-4.34
1071.512	-0.34
1071.933	-2.09
1072.354	-8.09
1072.775	-1.54
1073.196	-0.34
1073.617	-3.89
1074.038	-0.94
1074.459	-5.29
1074.88	-6.89
1075.3	1.51
1075.721	0.71
1076.142	-2.89
1076.563	-6.79
1076.983	0.31
1077.404	-7.49
1077.825	-2.74
1078.246	-4.79
1078.666	-4.99
1079.087	0.71
1079.507	-3.74
1079.928	-7.54
1080.348	-3.74
1080.769	0.01
1081.189	-1.74
1081.61	-6.44
1082.03	0.66
1082.451	-1.69
1082.871	-5.59
1083.291	-1.49
1083.711	-4.39
1084.132	-4.79
1084.552	-5.39
1084.972	-6.99
1085.392	-2.69
1085.813	-4.89
1086.233	-5.69
1086.653	0.76
1087.073	-4.09
1087.493	-3.64
1087.913	-2.79
1088.333	-1.14
1088.753	-2.84
1089.173	2.46
1089.593	-2.94
1090.013	-8.19
1090.433	-9.54
1090.852	1.36
1091.272	-3.24
1091.692	0.51
1092.112	-4.99
1092.531	-6.39
1092.951	-1.44
1093.371	-4.09
1093.79	-4.39
1094.21	-2.44
1094.63	-1.54
1095.049	2.71
1095.469	-11.49
1095.888	0.41
1096.308	-0.14
1096.727	-2.74
1097.146	-4.64
1097.566	-2.39
1097.985	-1.94
1098.405	-3.14
1098.824	3.81
1099.243	-2.84
1099.662	-4.04
1100.082	-6.24
1100.501	-1.94
1100.92	0.41
1101.339	2.76
1101.758	2.31
