Data from MSPlasma+Separation6_Subt14_10-15-30-130.txt Node
Date: Fri Jul 21 10:15:30 EDT 2017
User: Ender
Spectrometer: HR+D1039
Trigger mode: 0
Integration Time (sec): 2.510000E-3
Scans to average: 20
Electric dark correction enabled: true
Nonlinearity correction enabled: false
Boxcar width: 0
XAxis mode: Wavelengths
Number of Pixels in Spectrum: 2048
>>>>>Begin Spectral Data<<<<<
187.836	2.72
188.309	2.72
188.782	2.72
189.255	-2.38
189.728	1.82
190.201	-5.53
190.674	0.42
191.147	-0.53
191.619	-0.43
192.092	3.42
192.565	-3.53
193.038	2.32
193.511	-1.98
193.984	0.57
194.456	1.52
194.929	0.57
195.402	1.37
195.874	-0.28
196.347	1.12
196.82	1.17
197.292	-5.53
197.765	-6.53
198.237	-4.33
198.71	-4.58
199.182	-1.28
199.655	0.87
200.127	0.02
200.6	-5.08
201.072	-2.93
201.544	-3.63
202.017	-2.53
202.489	-1.33
202.961	0.82
203.433	-6.88
203.906	-2.28
204.378	-1.08
204.85	-0.68
205.322	-0.03
205.794	1.12
206.266	-3.08
206.739	-0.23
207.211	-3.68
207.683	-4.48
208.155	-1.33
208.627	0.62
209.099	-1.63
209.57	-1.63
210.042	0.32
210.514	-0.58
210.986	-0.48
211.458	2.22
211.93	0.87
212.402	-0.58
212.873	-0.58
213.345	-5.98
213.817	-0.93
214.288	-5.28
214.76	0.17
215.232	-3.68
215.703	-1.98
216.175	-0.48
216.646	-2.83
217.118	-3.93
217.589	-5.83
218.061	-0.08
218.532	-2.13
219.004	1.62
219.475	3.12
219.946	6.67
220.418	15.02
220.889	4.77
221.36	2.77
221.832	1.32
222.303	0.67
222.774	0.27
223.245	-2.38
223.717	-1.33
224.188	-0.63
224.659	0.42
225.13	-5.03
225.601	-3.03
226.072	-0.93
226.543	4.07
227.014	0.72
227.485	2.32
227.956	2.62
228.427	8.52
228.898	5.37
229.369	1.92
229.839	-1.53
230.31	3.02
230.781	4.62
231.252	5.37
231.722	9.77
232.193	11.37
232.664	13.47
233.135	16.02
233.605	22.37
234.076	21.32
234.546	11.92
235.017	13.72
235.487	13.37
235.958	11.02
236.428	21.82
236.899	35.97
237.369	46.77
237.84	35.77
238.31	45.62
238.78	39.87
239.251	39.97
239.721	38.97
240.191	29.72
240.662	16.27
241.132	13.52
241.602	19.32
242.072	26.72
242.542	28.67
243.013	21.82
243.483	19.82
243.953	9.87
244.423	14.22
244.893	17.02
245.363	23.87
245.833	20.17
246.303	21.12
246.773	31.37
247.243	32.22
247.712	32.97
248.182	40.02
248.652	45.37
249.122	71.37
249.592	134.47
250.061	196.32
250.531	318.57
251.001	243.02
251.471	204.62
251.94	152.97
252.41	82.32
252.879	49.42
253.349	45.52
253.818	32.77
254.288	29.02
254.757	26.22
255.227	40.62
255.696	33.27
256.166	26.32
256.635	32.12
257.105	36.97
257.574	53.52
258.043	50.82
258.513	98.57
258.982	128.47
259.451	91.12
259.92	85.12
260.389	75.27
260.859	55.92
261.328	68.47
261.797	103.72
262.266	88.67
262.735	38.97
263.204	21.82
263.673	20.97
264.142	16.47
264.611	20.22
265.08	22.32
265.549	22.92
266.018	24.57
266.487	19.72
266.955	17.22
267.424	28.82
267.893	25.82
268.362	25.22
268.83	22.77
269.299	26.77
269.768	29.87
270.236	37.97
270.705	41.17
271.174	32.02
271.642	38.82
272.111	47.47
272.579	82.62
273.048	123.67
273.516	163.52
273.985	160.52
274.453	120.12
274.922	76.62
275.39	42.97
275.858	38.52
276.327	34.57
276.795	33.42
277.263	35.82
277.731	52.57
278.2	106.17
278.668	138.57
279.136	112.77
279.604	66.22
280.072	40.12
280.54	36.22
281.008	35.87
281.477	36.37
281.945	37.32
282.413	36.47
282.881	36.22
283.348	40.67
283.816	38.47
284.284	44.07
284.752	43.42
285.22	48.02
285.688	47.82
286.156	85.92
286.623	234.47
287.091	461.87
287.559	245.67
288.026	91.92
288.494	57.12
288.962	42.47
289.429	39.72
289.897	35.92
290.364	36.12
290.832	38.67
291.3	39.32
291.767	36.92
292.234	44.22
292.702	40.67
293.169	45.97
293.637	50.97
294.104	47.92
294.571	44.07
295.039	49.52
295.506	40.37
295.973	46.67
296.44	39.82
296.908	54.42
297.375	58.87
297.842	59.82
298.309	47.22
298.776	48.82
299.243	48.92
299.71	48.77
300.177	45.32
300.644	50.22
301.111	61.62
301.578	56.22
302.045	48.37
302.512	45.57
302.979	52.52
303.446	55.82
303.913	57.77
304.379	64.97
304.846	64.62
305.313	78.32
305.78	89.52
306.246	110.82
306.713	117.77
307.18	101.87
307.646	116.87
308.113	92.37
308.579	74.02
309.046	74.87
309.512	78.22
309.979	71.82
310.445	62.57
310.912	65.32
311.378	68.37
311.845	65.52
312.311	59.37
312.777	62.22
313.244	69.22
313.71	71.77
314.176	79.12
314.642	87.82
315.109	106.47
315.575	95.02
316.041	90.72
316.507	83.02
316.973	95.97
317.439	93.32
317.905	106.12
318.371	97.52
318.837	93.17
319.303	97.32
319.769	86.62
320.235	102.42
320.701	118.57
321.167	126.47
321.633	154.87
322.099	206.57
322.564	283.77
323.03	227.72
323.496	150.02
323.962	140.77
324.427	138.07
324.893	117.37
325.359	117.12
325.824	98.82
326.29	108.92
326.755	103.42
327.221	101.22
327.686	111.27
328.152	100.92
328.617	97.02
329.083	94.57
329.548	101.57
330.014	105.52
330.479	115.67
330.944	140.42
331.41	156.62
331.875	148.02
332.34	156.97
332.805	181.42
333.271	231.27
333.736	302.27
334.201	268.57
334.666	204.12
335.131	229.97
335.596	178.52
336.061	195.17
336.526	193.67
336.991	172.12
337.456	183.72
337.921	144.17
338.386	116.17
338.851	105.72
339.316	103.12
339.781	98.42
340.246	99.72
340.711	98.57
341.175	97.37
341.64	99.12
342.105	102.87
342.569	113.17
343.034	119.37
343.499	126.27
343.963	124.57
344.428	120.72
344.893	116.07
345.357	127.72
345.822	121.92
346.286	127.07
346.751	123.97
347.215	120.07
347.679	128.72
348.144	141.87
348.608	137.07
349.073	142.92
349.537	161.82
350.001	156.22
350.465	141.57
350.93	137.97
351.394	134.07
351.858	140.22
352.322	147.02
352.786	142.62
353.25	141.47
353.715	143.97
354.179	155.42
354.643	159.47
355.107	169.27
355.571	173.42
356.035	178.22
356.498	170.42
356.962	178.27
357.426	177.52
357.89	165.72
358.354	157.67
358.818	152.67
359.281	159.27
359.745	162.17
360.209	160.67
360.673	162.67
361.136	165.97
361.6	162.17
362.064	174.97
362.527	178.92
362.991	175.27
363.454	177.07
363.918	185.77
364.381	183.97
364.845	174.72
365.308	174.37
365.772	171.82
366.235	172.97
366.698	179.02
367.162	215.77
367.625	242.52
368.088	201.07
368.552	181.52
369.015	183.27
369.478	193.12
369.941	202.02
370.404	204.82
370.867	218.67
371.331	219.77
371.794	218.12
372.257	252.47
372.72	259.47
373.183	244.07
373.646	256.22
374.109	248.42
374.572	287.37
375.035	342.22
375.497	261.97
375.96	205.92
376.423	195.52
376.886	199.52
377.349	202.47
377.811	209.32
378.274	212.97
378.737	208.92
379.199	215.47
379.662	226.07
380.125	240.17
380.587	268.12
381.05	291.97
381.512	281.47
381.975	276.07
382.437	271.02
382.9	270.37
383.362	268.17
383.825	284.67
384.287	368.07
384.75	410.82
385.212	363.92
385.674	295.12
386.136	270.17
386.599	261.52
387.061	274.77
387.523	286.42
387.985	288.97
388.447	296.37
388.91	334.32
389.372	405.12
389.834	386.32
390.296	312.22
390.758	318.37
391.22	328.47
391.682	400.02
392.144	616.52
392.606	579.37
393.068	349.52
393.529	315.22
393.991	303.57
394.453	299.32
394.915	309.57
395.377	375.67
395.838	466.27
396.3	326.27
396.762	258.17
397.224	242.82
397.685	243.62
398.147	249.47
398.608	248.72
399.07	249.27
399.531	247.57
399.993	251.12
400.454	252.52
400.916	256.02
401.377	254.47
401.839	260.97
402.3	263.27
402.762	278.07
403.223	301.82
403.684	312.62
404.145	289.12
404.607	277.67
405.068	274.42
405.529	285.62
405.99	291.42
406.451	295.02
406.913	285.97
407.374	297.22
407.835	292.02
408.296	302.77
408.757	305.82
409.218	313.07
409.679	317.62
410.14	322.92
410.601	338.57
411.062	354.57
411.522	409.27
411.983	447.62
412.444	381.42
412.905	334.02
413.366	330.47
413.826	338.92
414.287	387.12
414.748	455.47
415.208	456.22
415.669	383.77
416.13	348.72
416.59	348.57
417.051	355.97
417.511	369.87
417.972	396.92
418.432	428.57
418.893	473.32
419.353	454.47
419.814	350.07
420.274	316.52
420.734	314.07
421.195	336.77
421.655	348.17
422.115	338.87
422.576	321.77
423.036	325.87
423.496	346.27
423.956	359.47
424.416	387.57
424.876	432.72
425.336	435.62
425.797	426.02
426.257	431.12
426.717	406.47
427.177	387.02
427.637	394.17
428.097	413.97
428.556	433.97
429.016	472.57
429.476	476.57
429.936	452.97
430.396	443.27
430.856	448.82
431.315	465.52
431.775	503.77
432.235	528.17
432.694	536.87
433.154	500.07
433.614	487.82
434.073	466.07
434.533	425.77
434.993	408.52
435.452	412.47
435.912	406.22
436.371	401.87
436.83	400.57
437.29	402.27
437.749	388.02
438.209	377.22
438.668	377.92
439.127	382.22
439.587	377.12
440.046	357.57
440.505	364.62
440.964	368.02
441.424	375.57
441.883	386.52
442.342	364.72
442.801	349.82
443.26	360.12
443.719	357.77
444.178	353.42
444.637	358.67
445.096	355.32
445.555	359.72
446.014	364.42
446.473	354.22
446.932	350.97
447.391	359.02
447.849	365.82
448.308	366.17
448.767	369.72
449.226	376.87
449.685	386.62
450.143	399.32
450.602	394.67
451.061	376.47
451.519	386.37
451.978	392.77
452.436	405.32
452.895	391.32
453.353	377.47
453.812	379.92
454.27	377.52
454.729	362.02
455.187	373.12
455.646	366.12
456.104	379.72
456.562	372.97
457.021	364.97
457.479	358.77
457.937	363.27
458.395	368.87
458.854	367.97
459.312	367.17
459.77	374.82
460.228	377.22
460.686	375.22
461.144	389.52
461.602	373.92
462.06	372.47
462.518	387.87
462.976	385.12
463.434	389.97
463.892	392.42
464.35	397.82
464.808	404.57
465.266	413.12
465.724	420.67
466.181	420.87
466.639	415.02
467.097	431.27
467.555	449.37
468.012	447.67
468.47	445.22
468.928	461.57
469.385	477.32
469.843	478.02
470.3	480.22
470.758	484.72
471.215	496.02
471.673	510.52
472.13	524.12
472.588	535.07
473.045	540.27
473.503	543.57
473.96	574.82
474.417	576.27
474.875	609.72
475.332	631.12
475.789	638.17
476.246	656.07
476.704	691.32
477.161	708.27
477.618	726.42
478.075	777.12
478.532	836.37
478.989	911.87
479.446	1013.82
479.903	1079.67
480.36	1190.47
480.817	1270.97
481.274	1372.37
481.731	1509.72
482.188	1628.37
482.645	1756.17
483.102	1865.12
483.558	1999.67
484.015	2109.42
484.472	2099.62
484.929	2040.92
485.385	1954.92
485.842	1888.07
486.299	1795.97
486.755	1616.62
487.212	1438.97
487.668	1280.57
488.125	1180.82
488.582	1086.92
489.038	1034.37
489.494	997.12
489.951	964.62
490.407	935.87
490.864	912.57
491.32	885.67
491.776	877.07
492.233	874.82
492.689	857.57
493.145	845.62
493.602	843.47
494.058	851.87
494.514	867.17
494.97	870.22
495.426	877.52
495.882	878.47
496.338	884.82
496.794	915.52
497.251	921.82
497.707	923.02
498.163	916.77
498.618	918.57
499.074	929.27
499.53	949.12
499.986	967.22
500.442	980.32
500.898	975.42
501.354	991.12
501.809	993.12
502.265	1013.67
502.721	1054.22
503.177	1083.87
503.632	1029.67
504.088	1038.32
504.543	1140.22
504.999	1064.02
505.455	938.67
505.91	894.57
506.366	877.07
506.821	884.17
507.277	873.62
507.732	873.42
508.187	875.97
508.643	879.62
509.098	888.87
509.553	897.47
510.009	895.17
510.464	924.87
510.919	919.32
511.375	936.72
511.83	951.37
512.285	968.72
512.74	990.07
513.195	998.12
513.65	1024.47
514.105	1039.27
514.56	1033.82
515.015	1059.27
515.47	1072.07
515.925	1065.42
516.38	1056.67
516.835	1055.42
517.29	1052.37
517.745	1057.27
518.2	1032.97
518.655	1008.97
519.109	992.77
519.564	980.17
520.019	986.32
520.474	969.57
520.928	965.62
521.383	960.17
521.838	960.47
522.292	951.07
522.747	931.02
523.201	941.17
523.656	923.47
524.11	920.42
524.565	919.62
525.019	922.82
525.474	927.27
525.928	927.72
526.382	920.62
526.837	905.02
527.291	913.77
527.745	896.32
528.2	905.47
528.654	896.42
529.108	901.22
529.562	899.77
530.016	899.02
530.47	897.57
530.925	902.92
531.379	903.57
531.833	914.97
532.287	909.37
532.741	900.82
533.195	906.32
533.649	907.32
534.103	900.37
534.556	900.97
535.01	914.57
535.464	902.77
535.918	903.97
536.372	914.52
536.826	905.32
537.279	908.67
537.733	905.97
538.187	900.52
538.64	908.27
539.094	914.97
539.548	925.52
540.001	914.82
540.455	920.97
540.908	929.97
541.362	937.37
541.815	949.52
542.269	971.22
542.722	961.17
543.175	970.27
543.629	976.12
544.082	991.87
544.536	1000.22
544.989	1000.17
545.442	1000.47
545.895	1005.92
546.349	1007.62
546.802	1006.92
547.255	999.87
547.708	1004.52
548.161	1020.27
548.614	1011.52
549.067	1023.92
549.52	1015.47
549.973	1006.37
550.426	1003.87
550.879	996.22
551.332	988.77
551.785	996.22
552.238	1010.12
552.691	1009.32
553.144	1022.27
553.596	1043.92
554.049	1051.57
554.502	1068.67
554.955	1098.82
555.407	1121.67
555.86	1096.72
556.313	1076.47
556.765	1070.27
557.218	1057.72
557.67	1056.27
558.123	1036.02
558.576	1041.07
559.028	1043.27
559.48	1055.12
559.933	1043.07
560.385	1008.22
560.838	984.62
561.29	956.42
561.742	951.37
562.195	926.52
562.647	924.92
563.099	928.87
563.551	922.62
564.004	935.97
564.456	919.37
564.908	901.07
565.36	889.97
565.812	870.27
566.264	866.37
566.716	849.67
567.168	835.12
567.62	841.87
568.072	831.72
568.524	827.82
568.976	820.12
569.428	814.02
569.88	811.32
570.332	818.92
570.784	811.42
571.235	800.87
571.687	813.07
572.139	813.57
572.59	823.22
573.042	826.12
573.494	824.37
573.945	809.57
574.397	797.12
574.849	794.62
575.3	803.42
575.752	791.57
576.203	782.52
576.655	792.92
577.106	772.62
577.557	775.22
578.009	771.57
578.46	776.42
578.912	765.37
579.363	765.77
579.814	764.52
580.265	769.17
580.717	767.62
581.168	762.27
581.619	770.92
582.07	771.72
582.521	765.87
582.972	773.82
583.423	775.72
583.875	797.17
584.326	843.87
584.777	917.12
585.227	1005.52
585.678	1069.97
586.129	1093.52
586.58	1114.07
587.031	1121.27
587.482	1186.22
587.933	1380.47
588.384	1282.32
588.834	1055.42
589.285	892.72
589.736	871.37
590.186	878.12
590.637	865.12
591.088	849.37
591.538	836.62
591.989	831.27
592.439	822.42
592.89	812.62
593.34	820.67
593.791	824.47
594.241	830.07
594.692	836.77
595.142	830.52
595.593	823.97
596.043	814.72
596.493	826.12
596.943	849.02
597.394	838.02
597.844	830.67
598.294	840.27
598.744	863.17
599.195	908.12
599.645	951.52
600.095	996.37
600.545	1039.82
600.995	1097.72
601.445	1134.47
601.895	1186.32
602.345	1221.62
602.795	1201.37
603.245	1144.87
603.695	1072.77
604.145	1017.57
604.594	984.12
605.044	929.77
605.494	874.52
605.944	836.62
606.393	809.47
606.843	805.02
607.293	808.37
607.743	802.82
608.192	812.32
608.642	809.02
609.091	812.02
609.541	809.37
609.99	809.27
610.44	792.07
610.889	783.27
611.339	776.57
611.788	772.07
612.238	779.62
612.687	785.22
613.136	796.37
613.586	806.47
614.035	815.77
614.484	817.32
614.933	823.52
615.383	812.92
615.832	780.62
616.281	760.42
616.73	744.57
617.179	722.52
617.628	706.17
618.077	700.02
618.526	690.37
618.975	681.87
619.424	671.97
619.873	665.42
620.322	666.07
620.771	669.17
621.22	655.37
621.669	640.92
622.118	638.02
622.567	637.37
623.015	625.77
623.464	615.37
623.913	605.12
624.361	615.87
624.81	608.17
625.259	606.97
625.707	600.57
626.156	610.32
626.604	609.67
627.053	620.57
627.501	611.07
627.95	621.62
628.398	629.27
628.847	618.22
629.295	620.92
629.744	633.37
630.192	650.22
630.64	692.02
631.089	770.77
631.537	798.77
631.985	807.32
632.433	847.02
632.881	840.87
633.33	1010.82
633.778	1108.12
634.226	781.22
634.674	717.77
635.122	709.72
635.57	720.97
636.018	838.77
636.466	688.07
636.914	610.92
637.362	600.72
637.81	606.97
638.258	628.57
638.705	629.57
639.153	653.57
639.601	659.97
640.049	664.92
640.497	690.32
640.944	699.32
641.392	666.52
641.84	641.52
642.287	611.67
642.735	600.17
643.182	602.32
643.63	603.52
644.078	605.07
644.525	609.32
644.973	634.47
645.42	639.52
645.867	647.42
646.315	663.02
646.762	691.32
647.21	706.22
647.657	759.87
648.104	795.62
648.551	816.32
648.999	899.42
649.446	1006.57
649.893	1132.47
650.34	1344.22
650.787	1659.92
651.234	2185.37
651.682	3062.52
652.129	4456.12
652.576	6465.77
653.023	8641.12
653.47	10097.42
653.917	10959.07
654.363	11399.22
654.81	12100.57
655.257	12211.32
655.704	8308.57
656.151	4843.02
656.598	3113.97
657.044	2198.02
657.491	1716.27
657.938	1377.32
658.385	1150.02
658.831	1000.72
659.278	899.67
659.724	811.27
660.171	752.72
660.618	699.27
661.064	645.02
661.511	623.27
661.957	600.62
662.404	583.77
662.85	578.77
663.296	564.07
663.743	548.92
664.189	544.62
664.635	543.32
665.082	526.42
665.528	524.02
665.974	509.67
666.42	509.82
666.867	514.62
667.313	509.12
667.759	538.92
668.205	538.52
668.651	542.82
669.097	524.72
669.543	582.87
669.989	545.62
670.435	477.32
670.881	471.57
671.327	488.37
671.773	520.17
672.219	559.02
672.665	590.92
673.11	609.27
673.556	618.87
674.002	629.32
674.448	641.52
674.893	541.97
675.339	475.22
675.785	437.37
676.23	417.37
676.676	400.02
677.122	397.22
677.567	388.12
678.013	370.42
678.458	367.97
678.904	363.27
679.349	358.47
679.794	359.82
680.24	359.27
680.685	354.12
681.131	357.52
681.576	359.17
682.021	363.42
682.466	366.92
682.912	362.32
683.357	384.22
683.802	419.42
684.247	456.17
684.692	481.07
685.137	508.67
685.583	512.07
686.028	535.17
686.473	510.97
686.918	440.37
687.363	402.92
687.807	391.57
688.252	365.52
688.697	362.32
689.142	345.17
689.587	341.67
690.032	353.62
690.477	362.92
690.921	388.22
691.366	402.97
691.811	421.32
692.255	448.92
692.7	547.82
693.145	795.22
693.589	1193.47
694.034	1402.62
694.478	1488.17
694.923	1359.27
695.367	1888.77
695.812	1190.42
696.256	520.67
696.701	379.77
697.145	353.97
697.59	340.82
698.034	343.17
698.478	340.02
698.922	337.77
699.367	344.72
699.811	362.57
700.255	392.17
700.699	427.57
701.143	464.17
701.588	482.32
702.032	502.82
702.476	517.92
702.92	553.27
703.364	724.87
703.808	1091.77
704.252	1353.97
704.696	1427.62
705.14	1341.42
705.584	1793.82
706.027	1035.47
706.471	527.27
706.915	394.07
707.359	346.87
707.803	334.07
708.246	313.37
708.69	318.02
709.134	311.42
709.577	316.37
710.021	312.67
710.465	317.17
710.908	316.92
711.352	333.62
711.795	368.67
712.239	390.87
712.682	398.07
713.126	391.62
713.569	429.42
714.012	363.67
714.456	313.42
714.899	297.42
715.342	279.07
715.786	268.82
716.229	258.47
716.672	252.72
717.115	260.22
717.558	266.42
718.002	265.52
718.445	274.77
718.888	287.92
719.331	296.57
719.774	300.77
720.217	292.82
720.66	284.62
721.103	265.02
721.546	253.92
721.989	244.62
722.432	244.07
722.874	242.87
723.317	248.27
723.76	270.67
724.203	334.52
724.645	435.92
725.088	510.17
725.531	491.27
725.974	542.07
726.416	490.62
726.859	306.82
727.301	247.72
727.744	244.22
728.187	238.47
728.629	244.82
729.071	255.67
729.514	267.37
729.956	273.02
730.399	278.22
730.841	278.47
731.283	272.82
731.726	263.32
732.168	264.22
732.61	281.52
733.053	306.27
733.495	341.12
733.937	379.67
734.379	450.32
734.821	572.67
735.263	904.07
735.705	1589.22
736.148	2281.72
736.59	2266.52
737.032	2441.47
737.474	2025.97
737.916	819.92
738.357	430.07
738.799	330.12
739.241	305.72
739.683	301.97
740.125	308.87
740.567	313.37
741.008	329.42
741.45	341.82
741.892	347.82
742.334	350.82
742.775	343.62
743.217	323.32
743.658	283.47
744.1	285.22
744.542	316.67
744.983	329.97
745.425	348.92
745.866	347.82
746.307	311.87
746.749	337.47
747.19	490.82
747.632	960.47
748.073	1724.17
748.514	2340.02
748.956	3103.72
749.397	3610.87
749.838	2513.22
750.279	2363.47
750.72	1274.22
751.162	544.37
751.603	308.12
752.044	256.67
752.485	220.42
752.926	208.72
753.367	199.32
753.808	194.87
754.249	195.22
754.69	195.02
755.131	185.37
755.572	183.82
756.013	190.97
756.453	188.77
756.894	197.32
757.335	190.27
757.776	197.27
758.216	205.12
758.657	216.87
759.098	240.02
759.538	284.12
759.979	423.72
760.42	846.12
760.86	2090.87
761.301	4276.92
761.741	4941.42
762.182	5683.52
762.622	3660.62
763.063	1398.32
763.503	614.27
763.943	473.87
764.384	508.37
764.824	479.62
765.264	479.02
765.705	342.27
766.145	246.12
766.585	209.97
767.025	229.57
767.465	300.67
767.906	363.87
768.346	383.57
768.786	402.22
769.226	404.42
769.666	690.52
770.106	1471.72
770.546	2010.02
770.986	2242.12
771.426	1721.47
771.866	750.32
772.306	344.87
772.745	213.92
773.185	184.17
773.625	192.47
774.065	221.67
774.505	355.92
774.944	708.37
775.384	1036.32
775.824	1171.52
776.263	961.07
776.703	481.32
777.142	248.02
777.582	173.67
778.021	161.27
778.461	145.77
778.9	144.87
779.34	124.97
779.779	122.07
780.219	124.32
780.658	118.77
781.097	120.52
781.537	112.57
781.976	116.07
782.415	111.22
782.855	114.17
783.294	113.67
783.733	105.87
784.172	108.12
784.611	106.37
785.05	115.62
785.489	116.32
785.928	119.02
786.367	124.97
786.806	130.77
787.245	135.17
787.684	141.07
788.123	138.67
788.562	138.22
789.001	132.07
789.44	126.97
789.879	128.22
790.317	126.42
790.756	137.02
791.195	158.02
791.634	214.67
792.072	391.47
792.511	945.77
792.95	1678.67
793.388	1990.97
793.827	1314.17
794.265	619.22
794.704	297.57
795.142	182.27
795.581	155.42
796.019	133.22
796.458	140.02
796.896	142.27
797.334	159.37
797.773	213.57
798.211	418.17
798.649	862.52
799.087	1411.22
799.526	1943.67
799.964	2004.77
800.402	1402.07
800.84	649.77
801.278	316.37
801.716	195.22
802.154	152.07
802.592	144.57
803.03	146.07
803.468	153.82
803.906	151.57
804.344	141.67
804.782	145.42
805.22	143.02
805.658	148.52
806.096	156.57
806.533	177.92
806.971	235.42
807.409	339.42
807.847	675.72
808.284	1674.52
808.722	2863.07
809.16	4037.12
809.597	5502.67
810.035	6721.42
810.472	4335.22
810.91	1910.07
811.347	865.87
811.785	407.97
812.222	253.32
812.66	194.17
813.097	166.37
813.535	144.42
813.972	128.57
814.409	122.62
814.846	115.27
815.284	104.32
815.721	107.07
816.158	120.82
816.595	148.87
817.032	180.47
817.47	166.32
817.907	132.37
818.344	112.07
818.781	113.97
819.218	129.62
819.655	186.07
820.092	231.52
820.529	222.57
820.966	182.92
821.403	133.27
821.839	120.77
822.276	123.67
822.713	141.87
823.15	140.52
823.587	152.12
824.023	279.32
824.46	705.17
824.897	1182.92
825.333	917.37
825.77	434.52
826.206	227.32
826.643	132.37
827.08	95.87
827.516	90.42
827.953	81.02
828.389	79.57
828.825	76.42
829.262	72.12
829.698	60.17
830.135	63.27
830.571	59.27
831.007	63.82
831.443	68.27
831.88	67.67
832.316	69.32
832.752	66.52
833.188	66.17
833.624	70.02
834.06	66.82
834.497	66.17
834.933	70.97
835.369	79.67
835.805	83.02
836.241	88.27
836.677	100.07
837.112	110.57
837.548	139.52
837.984	207.12
838.42	442.17
838.856	1212.42
839.292	2298.47
839.727	1725.77
840.163	1195.32
840.599	1788.17
841.034	2663.27
841.47	1368.52
841.906	683.12
842.341	386.47
842.777	328.22
843.212	384.62
843.648	224.12
844.083	146.77
844.519	95.97
844.954	76.32
845.39	62.02
845.825	63.67
846.261	62.42
846.696	61.57
847.131	56.87
847.566	56.22
848.002	58.52
848.437	64.07
848.872	65.27
849.307	83.37
849.742	156.07
850.177	404.67
850.613	847.82
851.048	600.87
851.483	276.77
851.918	159.52
852.353	91.02
852.788	65.97
853.223	55.17
853.657	47.27
854.092	53.02
854.527	50.92
854.962	49.52
855.397	51.47
855.832	44.02
856.266	40.92
856.701	38.47
857.136	42.47
857.57	46.32
858.005	56.22
858.44	50.17
858.874	50.67
859.309	51.02
859.743	50.77
860.178	46.12
860.612	50.52
861.047	68.62
861.481	89.42
861.915	57.12
862.35	46.02
862.784	38.27
863.218	36.17
863.653	37.47
864.087	45.32
864.521	67.07
864.955	118.92
865.39	191.67
865.824	140.32
866.258	159.82
866.692	226.22
867.126	159.12
867.56	92.77
867.994	59.37
868.428	54.17
868.862	66.22
869.296	57.07
869.73	67.77
870.164	60.82
870.598	57.87
871.031	44.17
871.465	38.22
871.899	29.42
872.333	28.12
872.766	33.62
873.2	31.17
873.634	25.12
874.067	33.22
874.501	32.72
874.935	26.27
875.368	30.27
875.802	29.22
876.235	26.42
876.669	26.52
877.102	15.72
877.535	24.92
877.969	22.02
878.402	26.62
878.836	22.02
879.269	26.17
879.702	23.12
880.135	27.27
880.569	32.12
881.002	20.92
881.435	28.72
881.868	23.92
882.301	19.17
882.734	21.42
883.167	18.72
883.601	22.77
884.034	20.22
884.467	17.47
884.899	18.07
885.332	16.57
885.765	17.77
886.198	14.17
886.631	15.72
887.064	18.52
887.497	18.67
887.929	18.37
888.362	19.67
888.795	19.67
889.228	19.17
889.66	20.22
890.093	16.82
890.526	14.32
890.958	16.72
891.391	20.52
891.823	14.97
892.256	19.77
892.688	18.92
893.121	16.22
893.553	20.32
893.985	16.02
894.418	14.07
894.85	16.27
895.282	17.27
895.715	9.42
896.147	12.42
896.579	10.67
897.011	16.02
897.444	14.07
897.876	10.52
898.308	13.87
898.74	18.42
899.172	17.22
899.604	16.92
900.036	17.92
900.468	9.02
900.9	16.02
901.332	17.22
901.764	19.97
902.196	22.87
902.628	22.27
903.06	26.02
903.491	26.07
903.923	21.62
904.355	25.97
904.787	28.32
905.218	20.07
905.65	19.47
906.082	19.72
906.513	17.62
906.945	19.22
907.376	17.02
907.808	22.42
908.239	23.07
908.671	23.37
909.102	23.47
909.534	39.87
909.965	72.12
910.397	194.37
910.828	553.37
911.259	338.12
911.691	182.47
912.122	110.92
912.553	55.07
912.984	26.87
913.415	19.52
913.847	22.77
914.278	19.62
914.709	20.77
915.14	13.97
915.571	15.22
916.002	18.47
916.433	17.77
916.864	13.47
917.295	15.32
917.726	20.72
918.157	21.42
918.587	22.67
919.018	20.82
919.449	14.52
919.88	22.92
920.311	36.82
920.741	118.92
921.172	208.37
921.603	100.42
922.033	59.92
922.464	40.22
922.895	25.22
923.325	16.87
923.756	14.37
924.186	26.92
924.617	42.57
925.047	65.82
925.478	59.57
925.908	38.67
926.338	29.27
926.769	18.87
927.199	19.62
927.629	13.72
928.06	13.62
928.49	14.97
928.92	12.32
929.35	14.87
929.78	8.22
930.21	11.02
930.641	5.02
931.071	6.92
931.501	4.42
931.931	7.57
932.361	5.32
932.791	12.87
933.221	11.27
933.651	12.77
934.08	26.92
934.51	12.62
934.94	13.57
935.37	7.72
935.8	5.37
936.229	2.02
936.659	2.52
937.089	8.02
937.519	15.17
937.948	27.32
938.378	12.42
938.807	5.72
939.237	7.07
939.666	5.12
940.096	0.07
940.525	-6.48
940.955	0.82
941.384	1.77
941.814	4.72
942.243	2.52
942.672	0.67
943.102	0.67
943.531	-0.98
943.96	3.27
944.39	-1.98
944.819	1.47
945.248	2.12
945.677	1.52
946.106	-1.43
946.535	1.52
946.964	1.77
947.393	-0.88
947.822	1.67
948.251	0.67
948.68	2.72
949.109	2.22
949.538	-2.63
949.967	-2.23
950.396	-1.33
950.825	1.92
951.254	-2.38
951.682	-3.08
952.111	-4.63
952.54	-1.38
952.969	-3.78
953.397	-3.23
953.826	0.92
954.254	1.32
954.683	3.17
955.112	3.57
955.54	-2.38
955.969	0.02
956.397	2.17
956.826	-2.83
957.254	-0.38
957.682	2.87
958.111	3.47
958.539	4.67
958.967	-0.93
959.396	10.42
959.824	1.97
960.252	-3.58
960.68	0.52
961.109	-0.33
961.537	5.37
961.965	-3.33
962.393	-0.53
962.821	2.67
963.249	1.57
963.677	1.77
964.105	30.37
964.533	53.32
964.961	24.82
965.389	10.72
965.817	4.17
966.245	2.27
966.672	3.02
967.1	2.52
967.528	-6.48
967.956	-4.03
968.383	1.72
968.811	-1.68
969.239	2.92
969.666	0.57
970.094	-0.33
970.522	-3.38
970.949	-2.98
971.377	-9.48
971.804	-3.33
972.232	-3.23
972.659	-2.78
973.087	-2.18
973.514	-2.03
973.941	-2.53
974.369	-6.68
974.796	-2.03
975.223	-3.88
975.651	-0.08
976.078	2.17
976.505	3.17
976.932	9.22
977.359	14.52
977.786	8.22
978.214	8.02
978.641	-0.53
979.068	-0.88
979.495	-6.48
979.922	0.37
980.349	1.77
980.776	-0.28
981.202	-2.83
981.629	3.32
982.056	-0.43
982.483	-6.33
982.91	0.52
983.337	-6.23
983.763	-0.43
984.19	1.27
984.617	-4.13
985.043	0.02
985.47	0.77
985.897	-0.28
986.323	1.52
986.75	-2.63
987.176	-2.33
987.603	-1.53
988.029	5.52
988.456	7.07
988.882	0.37
989.308	-4.08
989.735	-4.73
990.161	-0.53
990.587	-4.33
991.014	-2.83
991.44	0.12
991.866	-0.98
992.292	-0.18
992.719	-3.13
993.145	-0.93
993.571	-1.18
993.997	3.67
994.423	0.32
994.849	-1.93
995.275	-0.33
995.701	-3.78
996.127	-2.38
996.553	-5.33
996.979	-6.93
997.405	2.82
997.83	-1.03
998.256	0.97
998.682	-3.98
999.108	-1.38
999.534	-8.93
999.959	-2.43
1000.385	-1.38
1000.811	-8.63
1001.236	-8.08
1001.662	-3.98
1002.087	1.62
1002.513	-0.38
1002.938	-4.88
1003.364	-2.63
1003.789	4.92
1004.215	0.62
1004.64	-3.63
1005.066	-0.18
1005.491	-1.18
1005.916	-2.68
1006.342	-2.53
1006.767	-2.28
1007.192	1.07
1007.617	-2.78
1008.042	-6.68
1008.468	-1.23
1008.893	1.67
1009.318	-2.03
1009.743	-1.18
1010.168	9.12
1010.593	7.67
1011.018	4.72
1011.443	-0.93
1011.868	0.27
1012.293	0.97
1012.718	-2.98
1013.143	-2.53
1013.567	0.62
1013.992	-1.93
1014.417	1.07
1014.842	-6.68
1015.267	-2.73
1015.691	1.67
1016.116	-4.28
1016.541	-0.78
1016.965	-2.98
1017.39	-0.78
1017.814	-7.58
1018.239	-3.08
1018.663	-10.08
1019.088	-4.18
1019.512	1.97
1019.937	-4.58
1020.361	-0.83
1020.785	-3.18
1021.21	-8.43
1021.634	-1.83
1022.058	1.87
1022.483	-9.33
1022.907	-3.03
1023.331	-2.68
1023.755	-5.93
1024.179	-1.13
1024.604	-3.88
1025.028	-0.78
1025.452	-0.48
1025.876	3.67
1026.3	-0.78
1026.724	-7.83
1027.148	-1.38
1027.572	-1.13
1027.996	3.32
1028.42	1.22
1028.843	-1.28
1029.267	-5.98
1029.691	1.62
1030.115	-2.28
1030.539	-2.43
1030.962	-4.83
1031.386	-1.53
1031.81	-1.68
1032.233	-7.43
1032.657	-9.58
1033.08	-3.38
1033.504	-4.03
1033.927	-6.28
1034.351	-6.98
1034.774	-7.28
1035.198	-4.48
1035.621	-2.23
1036.045	-1.48
1036.468	3.27
1036.891	-4.63
1037.315	-0.68
1037.738	1.82
1038.161	2.07
1038.584	-2.58
1039.008	-5.88
1039.431	3.17
1039.854	-7.98
1040.277	0.72
1040.7	-4.58
1041.123	-2.33
1041.546	-4.38
1041.969	2.27
1042.392	2.77
1042.815	-10.13
1043.238	-3.33
1043.661	-3.98
1044.084	-6.48
1044.507	-5.08
1044.93	-4.83
1045.352	-3.28
1045.775	-4.18
1046.198	-0.93
1046.621	-3.08
1047.043	-4.93
1047.466	-1.63
1047.889	-6.93
1048.311	0.77
1048.734	-3.13
1049.156	-6.28
1049.579	-3.58
1050.001	-5.03
1050.424	-4.08
1050.846	-4.08
1051.269	-5.53
1051.691	-4.63
1052.113	-1.23
1052.536	-6.08
1052.958	-9.03
1053.38	-5.13
1053.802	-2.18
1054.225	-1.88
1054.647	-1.58
1055.069	-4.23
1055.491	-0.68
1055.913	0.52
1056.335	-13.18
1056.757	-3.78
1057.179	-3.58
1057.601	-2.53
1058.023	-0.88
1058.445	-4.98
1058.867	-1.98
1059.289	-5.03
1059.711	-5.33
1060.133	-1.23
1060.555	-5.08
1060.976	1.77
1061.398	-4.28
1061.82	-3.58
1062.241	-6.03
1062.663	-4.63
1063.085	-7.93
1063.506	-6.58
1063.928	-4.43
1064.35	-2.08
1064.771	-5.08
1065.193	-1.38
1065.614	-0.93
1066.035	0.57
1066.457	0.27
1066.878	-2.73
1067.3	-1.13
1067.721	-2.18
1068.142	-2.23
1068.564	-2.13
1068.985	-0.43
1069.406	-7.93
1069.827	-0.58
1070.248	-3.43
1070.67	-5.58
1071.091	-4.03
1071.512	-5.63
1071.933	-5.78
1072.354	-7.73
1072.775	-4.33
1073.196	0.42
1073.617	-4.88
1074.038	-1.78
1074.459	-6.93
1074.88	-5.98
1075.3	-5.73
1075.721	-1.98
1076.142	-8.28
1076.563	-12.58
1076.983	0.67
1077.404	-9.48
1077.825	-3.83
1078.246	-6.43
1078.666	-7.93
1079.087	-6.53
1079.507	-8.73
1079.928	-5.43
1080.348	-3.58
1080.769	-2.43
1081.189	-1.03
1081.61	-8.28
1082.03	-2.33
1082.451	-7.93
1082.871	-5.43
1083.291	-3.78
1083.711	-2.08
1084.132	-5.28
1084.552	-7.88
1084.972	-7.53
1085.392	-0.78
1085.813	-2.48
1086.233	-1.33
1086.653	-0.23
1087.073	-5.03
1087.493	-7.08
1087.913	-7.33
1088.333	-2.28
1088.753	-1.13
1089.173	-0.68
1089.593	-0.13
1090.013	-4.43
1090.433	-5.53
1090.852	-0.88
1091.272	-7.13
1091.692	-2.53
1092.112	-3.03
1092.531	-4.38
1092.951	-3.63
1093.371	-1.73
1093.79	-4.93
1094.21	-6.33
1094.63	-3.38
1095.049	-6.03
1095.469	-6.23
1095.888	-1.53
1096.308	0.67
1096.727	-2.18
1097.146	-4.68
1097.566	-1.53
1097.985	-2.38
1098.405	-1.33
1098.824	1.37
1099.243	-5.33
1099.662	-7.03
1100.082	-3.08
1100.501	-1.18
1100.92	3.47
1101.339	-0.43
1101.758	2.57
