Data from MSPlasma+Separation6_Subt14_10-15-27-072.txt Node
Date: Fri Jul 21 10:15:27 EDT 2017
User: Ender
Spectrometer: HR+D1039
Trigger mode: 0
Integration Time (sec): 6.430000E-3
Scans to average: 20
Electric dark correction enabled: true
Nonlinearity correction enabled: false
Boxcar width: 0
XAxis mode: Wavelengths
Number of Pixels in Spectrum: 2048
>>>>>Begin Spectral Data<<<<<
187.836	0.96
188.309	0.96
188.782	0.96
189.255	-1.14
189.728	5.01
190.201	1.16
190.674	2.41
191.147	-5.24
191.619	-0.69
192.092	-8.34
192.565	-2.39
193.038	4.41
193.511	5.66
193.984	-0.29
194.456	-0.29
194.929	1.76
195.402	-4.89
195.874	1.91
196.347	2.96
196.82	3.06
197.292	-2.39
197.765	-3.29
198.237	-1.59
198.71	-7.94
199.182	2.46
199.655	4.71
200.127	1.71
200.6	1.71
201.072	3.01
201.544	1.01
202.017	0.71
202.489	3.66
202.961	3.16
203.433	0.51
203.906	-2.04
204.378	3.66
204.85	-0.89
205.322	2.26
205.794	6.46
206.266	-1.24
206.739	6.11
207.211	0.66
207.683	-1.94
208.155	5.71
208.627	7.41
209.099	3.61
209.57	10.46
210.042	4.16
210.514	4.16
210.986	12.21
211.458	17.16
211.93	11.76
212.402	4.41
212.873	2.26
213.345	-0.79
213.817	3.66
214.288	-1.59
214.76	6.81
215.232	4.86
215.703	-2.39
216.175	6.86
216.646	6.11
217.118	3.66
217.589	0.41
218.061	4.86
218.532	1.56
219.004	10.91
219.475	15.56
219.946	25.46
220.418	36.76
220.889	24.11
221.36	14.41
221.832	11.61
222.303	5.46
222.774	6.76
223.245	2.71
223.717	3.46
224.188	9.31
224.659	6.36
225.13	3.91
225.601	6.91
226.072	7.71
226.543	5.96
227.014	5.46
227.485	12.91
227.956	12.46
228.427	16.26
228.898	13.21
229.369	13.26
229.839	7.71
230.31	10.81
230.781	14.86
231.252	17.31
231.722	24.21
232.193	32.46
232.664	37.01
233.135	51.51
233.605	59.81
234.076	45.11
234.546	40.81
235.017	43.66
235.487	41.06
235.958	40.21
236.428	62.01
236.899	100.16
237.369	112.51
237.84	80.41
238.31	107.26
238.78	104.31
239.251	106.51
239.721	107.01
240.191	73.26
240.662	47.91
241.132	40.31
241.602	49.16
242.072	68.61
242.542	83.86
243.013	58.66
243.483	52.26
243.953	38.01
244.423	40.71
244.893	53.21
245.363	58.56
245.833	56.41
246.303	59.91
246.773	76.56
247.243	75.21
247.712	86.46
248.182	103.66
248.652	105.51
249.122	164.26
249.592	299.01
250.061	460.61
250.531	714.81
251.001	551.91
251.471	461.46
251.94	346.96
252.41	191.46
252.879	133.56
253.349	105.16
253.818	84.31
254.288	73.26
254.757	73.66
255.227	98.01
255.696	79.21
256.166	72.16
256.635	76.31
257.105	93.86
257.574	124.81
258.043	126.26
258.513	225.61
258.982	284.46
259.451	201.21
259.92	200.01
260.389	184.51
260.859	137.71
261.328	155.16
261.797	231.51
262.266	202.01
262.735	101.76
263.204	64.61
263.673	62.36
264.142	49.86
264.611	56.81
265.08	61.71
265.549	70.56
266.018	61.21
266.487	57.81
266.955	53.56
267.424	65.96
267.893	67.01
268.362	71.91
268.83	66.11
269.299	65.71
269.768	76.01
270.236	84.76
270.705	104.26
271.174	96.06
271.642	106.71
272.111	118.56
272.579	188.51
273.048	277.31
273.516	360.16
273.985	363.26
274.453	279.16
274.922	172.36
275.39	111.61
275.858	108.36
276.327	88.11
276.795	93.46
277.263	104.56
277.731	136.16
278.2	252.81
278.668	325.46
279.136	251.21
279.604	163.01
280.072	107.21
280.54	91.71
281.008	97.51
281.477	95.41
281.945	98.91
282.413	105.11
282.881	104.56
283.348	111.01
283.816	106.01
284.284	111.81
284.752	111.01
285.22	112.46
285.688	124.71
286.156	201.91
286.623	531.66
287.091	1032.06
287.559	538.06
288.026	211.66
288.494	138.96
288.962	118.11
289.429	112.21
289.897	106.51
290.364	99.71
290.832	108.16
291.3	106.11
291.767	108.76
292.234	113.36
292.702	119.51
293.169	123.41
293.637	131.16
294.104	125.51
294.571	122.06
295.039	118.46
295.506	119.41
295.973	126.91
296.44	117.06
296.908	136.16
297.375	149.86
297.842	147.91
298.309	128.56
298.776	127.01
299.243	137.21
299.71	130.06
300.177	127.81
300.644	145.51
301.111	155.36
301.578	143.16
302.045	135.41
302.512	126.91
302.979	134.46
303.446	146.36
303.913	150.66
304.379	159.56
304.846	178.21
305.313	188.21
305.78	213.06
306.246	266.56
306.713	279.46
307.18	246.61
307.646	271.16
308.113	234.56
308.579	190.91
309.046	191.26
309.512	187.11
309.979	175.61
310.445	166.36
310.912	177.41
311.378	171.06
311.845	170.36
312.311	174.81
312.777	170.91
313.244	179.76
313.71	188.36
314.176	201.81
314.642	227.11
315.109	258.76
315.575	244.31
316.041	227.96
316.507	215.71
316.973	236.46
317.439	228.06
317.905	250.51
318.371	248.26
318.837	240.26
319.303	250.16
319.769	232.86
320.235	255.56
320.701	287.61
321.167	307.91
321.633	365.96
322.099	499.16
322.564	661.76
323.03	517.41
323.496	369.11
323.962	351.26
324.427	330.41
324.893	296.76
325.359	286.86
325.824	245.81
326.29	259.91
326.755	266.01
327.221	266.41
327.686	281.96
328.152	254.51
328.617	248.36
329.083	245.91
329.548	264.46
330.014	266.21
330.479	291.66
330.944	337.21
331.41	376.46
331.875	364.96
332.34	372.81
332.805	430.86
333.271	537.16
333.736	702.01
334.201	638.11
334.666	488.46
335.131	544.71
335.596	432.61
336.061	461.01
336.526	462.91
336.991	411.91
337.456	440.31
337.921	354.81
338.386	293.06
338.851	271.91
339.316	254.86
339.781	252.71
340.246	255.46
340.711	256.31
341.175	269.36
341.64	271.01
342.105	275.31
342.569	293.06
343.034	306.51
343.499	310.76
343.963	300.96
344.428	298.81
344.893	309.56
345.357	316.26
345.822	302.96
346.286	315.41
346.751	326.56
347.215	324.26
347.679	331.36
348.144	359.46
348.608	355.76
349.073	361.76
349.537	404.01
350.001	393.51
350.465	366.91
350.93	362.91
351.394	362.41
351.858	358.81
352.322	375.71
352.786	378.26
353.25	366.41
353.715	375.26
354.179	392.46
354.643	417.86
355.107	428.51
355.571	435.11
356.035	443.01
356.498	435.31
356.962	465.36
357.426	450.21
357.89	415.96
358.354	391.51
358.818	388.66
359.281	409.41
359.745	417.56
360.209	409.11
360.673	416.61
361.136	423.66
361.6	415.51
362.064	439.96
362.527	451.41
362.991	446.56
363.454	451.06
363.918	459.66
364.381	456.61
364.845	441.91
365.308	438.16
365.772	442.26
366.235	446.31
366.698	465.56
367.162	545.31
367.625	606.41
368.088	498.11
368.552	466.31
369.015	470.31
369.478	494.86
369.941	501.96
370.404	517.86
370.867	541.51
371.331	547.36
371.794	556.56
372.257	615.76
372.72	651.36
373.183	614.26
373.646	626.21
374.109	630.36
374.572	714.36
375.035	824.81
375.497	644.21
375.96	532.56
376.423	512.21
376.886	513.16
377.349	522.66
377.811	529.61
378.274	540.06
378.737	546.01
379.199	554.31
379.662	567.46
380.125	600.06
380.587	663.56
381.05	691.76
381.512	688.11
381.975	677.61
382.437	672.61
382.9	675.06
383.362	672.96
383.825	718.11
384.287	882.46
384.75	978.51
385.212	863.16
385.674	726.86
386.136	675.56
386.599	663.36
387.061	693.21
387.523	717.01
387.985	720.56
388.447	737.46
388.91	822.36
389.372	980.26
389.834	918.96
390.296	783.16
390.758	797.86
391.22	814.41
391.682	986.21
392.144	1487.41
392.606	1394.76
393.068	856.96
393.529	786.01
393.991	769.46
394.453	754.16
394.915	783.16
395.377	941.96
395.838	1132.81
396.3	823.41
396.762	666.71
397.224	630.31
397.685	628.11
398.147	632.66
398.608	639.56
399.07	641.71
399.531	633.66
399.993	655.11
400.454	656.46
400.916	656.01
401.377	671.61
401.839	676.61
402.3	684.61
402.762	707.91
403.223	780.81
403.684	797.76
404.145	734.46
404.607	714.51
405.068	720.76
405.529	736.56
405.99	748.56
406.451	755.26
406.913	744.41
407.374	758.66
407.835	762.36
408.296	778.26
408.757	781.41
409.218	805.66
409.679	819.51
410.14	827.41
410.601	856.66
411.062	888.56
411.522	1014.61
411.983	1106.86
412.444	959.86
412.905	849.26
413.366	850.41
413.826	881.21
414.287	981.41
414.748	1172.96
415.208	1191.76
415.669	997.81
416.13	911.71
416.59	889.91
417.051	920.66
417.511	967.31
417.972	1029.76
418.432	1111.46
418.893	1224.96
419.353	1165.31
419.814	904.86
420.274	811.26
420.734	812.16
421.195	862.61
421.655	891.86
422.115	874.01
422.576	849.61
423.036	842.41
423.496	879.61
423.956	925.76
424.416	984.26
424.876	1104.21
425.336	1104.56
425.797	1100.61
426.257	1096.81
426.717	1036.21
427.177	974.81
427.637	1011.26
428.097	1054.36
428.556	1108.91
429.016	1196.41
429.476	1193.91
429.936	1165.36
430.396	1135.71
430.856	1158.06
431.315	1186.36
431.775	1265.21
432.235	1344.21
432.694	1352.26
433.154	1291.06
433.614	1240.11
434.073	1202.71
434.533	1083.96
434.993	1053.91
435.452	1056.71
435.912	1035.06
436.371	1019.86
436.83	1023.16
437.29	1029.96
437.749	974.36
438.209	963.21
438.668	970.86
439.127	986.16
439.587	957.11
440.046	922.46
440.505	940.81
440.964	941.66
441.424	968.36
441.883	990.26
442.342	933.66
442.801	902.71
443.26	923.91
443.719	916.36
444.178	904.96
444.637	920.76
445.096	921.66
445.555	935.11
446.014	934.86
446.473	901.71
446.932	911.21
447.391	933.31
447.849	938.46
448.308	929.06
448.767	951.56
449.226	966.86
449.685	985.51
450.143	1012.71
450.602	1019.21
451.061	975.01
451.519	986.21
451.978	1004.41
452.436	1030.76
452.895	991.76
453.353	966.96
453.812	979.86
454.27	965.51
454.729	939.61
455.187	955.31
455.646	957.16
456.104	974.31
456.562	960.01
457.021	956.81
457.479	919.11
457.937	947.16
458.395	965.51
458.854	956.26
459.312	947.81
459.77	959.81
460.228	965.91
460.686	982.56
461.144	977.01
461.602	975.31
462.06	972.71
462.518	987.91
462.976	997.76
463.434	1006.91
463.892	1017.76
464.35	1032.06
464.808	1043.66
465.266	1052.31
465.724	1068.76
466.181	1082.46
466.639	1074.16
467.097	1122.51
467.555	1162.11
468.012	1148.46
468.47	1167.11
468.928	1197.96
469.385	1218.36
469.843	1238.31
470.3	1237.81
470.758	1274.86
471.215	1294.21
471.673	1319.26
472.13	1369.86
472.588	1388.46
473.045	1385.61
473.503	1416.16
473.96	1470.16
474.417	1496.26
474.875	1564.66
475.332	1612.86
475.789	1645.81
476.246	1704.71
476.704	1783.01
477.161	1835.91
477.618	1896.16
478.075	1996.16
478.532	2169.06
478.989	2354.51
479.446	2599.51
479.903	2772.31
480.36	3064.61
480.817	3259.91
481.274	3525.26
481.731	3868.26
482.188	4191.91
482.645	4539.31
483.102	4825.26
483.558	5165.16
484.015	5407.86
484.472	5406.36
484.929	5229.06
485.385	5000.61
485.842	4836.36
486.299	4590.46
486.755	4146.06
487.212	3677.36
487.668	3295.81
488.125	3041.71
488.582	2775.91
489.038	2656.56
489.494	2571.26
489.951	2470.81
490.407	2394.21
490.864	2361.51
491.32	2312.61
491.776	2259.06
492.233	2265.81
492.689	2231.61
493.145	2193.71
493.602	2174.06
494.058	2210.36
494.514	2246.16
494.97	2250.16
495.426	2265.81
495.882	2266.66
496.338	2268.56
496.794	2353.96
497.251	2349.61
497.707	2364.31
498.163	2370.71
498.618	2354.71
499.074	2384.76
499.53	2433.51
499.986	2455.91
500.442	2489.26
500.898	2492.36
501.354	2519.66
501.809	2536.86
502.265	2584.51
502.721	2685.56
503.177	2765.51
503.632	2630.56
504.088	2638.06
504.543	2881.56
504.999	2708.26
505.455	2409.91
505.91	2314.61
506.366	2289.71
506.821	2280.31
507.277	2273.81
507.732	2277.36
508.187	2278.41
508.643	2285.76
509.098	2300.96
509.553	2328.76
510.009	2348.61
510.464	2393.26
510.919	2420.76
511.375	2443.06
511.83	2489.96
512.285	2519.61
512.74	2574.06
513.195	2613.86
513.65	2645.41
514.105	2699.96
514.56	2695.41
515.015	2741.16
515.47	2784.11
515.925	2762.91
516.38	2754.26
516.835	2749.71
517.29	2740.56
517.745	2747.01
518.2	2705.11
518.655	2639.21
519.109	2600.71
519.564	2560.81
520.019	2568.01
520.474	2514.71
520.928	2496.11
521.383	2496.31
521.838	2481.41
522.292	2449.11
522.747	2424.36
523.201	2419.76
523.656	2399.51
524.11	2391.01
524.565	2375.66
525.019	2398.71
525.474	2412.76
525.928	2384.31
526.382	2359.76
526.837	2356.46
527.291	2360.41
527.745	2342.21
528.2	2349.66
528.654	2324.01
529.108	2332.06
529.562	2351.41
530.016	2324.86
530.47	2343.91
530.925	2335.06
531.379	2339.71
531.833	2370.36
532.287	2350.16
532.741	2344.46
533.195	2342.36
533.649	2355.66
534.103	2356.36
534.556	2322.81
535.01	2360.16
535.464	2337.06
535.918	2353.06
536.372	2364.51
536.826	2351.91
537.279	2332.21
537.733	2333.06
538.187	2353.56
538.64	2354.66
539.094	2373.56
539.548	2403.21
540.001	2384.01
540.455	2408.06
540.908	2412.91
541.362	2449.86
541.815	2464.86
542.269	2508.86
542.722	2505.11
543.175	2535.36
543.629	2552.66
544.082	2558.21
544.536	2584.51
544.989	2599.91
545.442	2602.61
545.895	2614.31
546.349	2609.41
546.802	2631.66
547.255	2614.11
547.708	2635.61
548.161	2650.56
548.614	2665.41
549.067	2666.31
549.52	2656.41
549.973	2621.66
550.426	2612.36
550.879	2582.46
551.332	2578.26
551.785	2611.06
552.238	2624.31
552.691	2624.46
553.144	2671.51
553.596	2705.71
554.049	2748.16
554.502	2807.06
554.955	2836.26
555.407	2885.71
555.86	2837.86
556.313	2824.21
556.765	2792.76
557.218	2761.76
557.67	2752.46
558.123	2721.96
558.576	2703.41
559.028	2706.01
559.48	2744.46
559.933	2714.36
560.385	2641.81
560.838	2555.26
561.29	2472.21
561.742	2474.31
562.195	2420.61
562.647	2400.01
563.099	2396.91
563.551	2370.16
564.004	2402.86
564.456	2381.56
564.908	2328.11
565.36	2298.76
565.812	2237.66
566.264	2229.16
566.716	2211.66
567.168	2167.86
567.62	2171.31
568.072	2147.71
568.524	2127.66
568.976	2115.21
569.428	2101.16
569.88	2101.41
570.332	2106.46
570.784	2107.36
571.235	2095.46
571.687	2111.61
572.139	2108.31
572.59	2120.01
573.042	2143.36
573.494	2141.41
573.945	2109.01
574.397	2073.86
574.849	2066.16
575.3	2071.91
575.752	2025.86
576.203	2022.76
576.655	2034.56
577.106	2016.21
577.557	2000.41
578.009	1991.61
578.46	1998.86
578.912	1975.51
579.363	1988.11
579.814	1978.96
580.265	1994.26
580.717	1987.91
581.168	1983.61
581.619	1995.21
582.07	2013.11
582.521	2010.56
582.972	2004.11
583.423	2027.46
583.875	2061.81
584.326	2164.46
584.777	2334.66
585.227	2547.66
585.678	2708.56
586.129	2744.76
586.58	2793.66
587.031	2820.71
587.482	2990.46
587.933	3460.71
588.384	3194.81
588.834	2679.11
589.285	2301.61
589.736	2263.71
590.186	2260.51
590.637	2243.36
591.088	2196.26
591.538	2157.46
591.989	2146.46
592.439	2138.01
592.89	2112.96
593.34	2123.81
593.791	2138.76
594.241	2130.16
594.692	2161.26
595.142	2140.76
595.593	2096.36
596.043	2103.66
596.493	2140.91
596.943	2180.31
597.394	2167.21
597.844	2145.91
598.294	2174.76
598.744	2251.81
599.195	2357.41
599.645	2492.76
600.095	2616.81
600.545	2730.21
600.995	2856.51
601.445	2955.76
601.895	3102.96
602.345	3183.06
602.795	3137.01
603.245	2978.76
603.695	2811.41
604.145	2657.26
604.594	2544.01
605.044	2405.26
605.494	2262.76
605.944	2147.86
606.393	2115.16
606.843	2076.66
607.293	2077.01
607.743	2068.66
608.192	2091.66
608.642	2086.01
609.091	2108.51
609.541	2094.81
609.99	2094.81
610.44	2039.91
610.889	2023.91
611.339	1995.31
611.788	1979.26
612.238	2001.71
612.687	2001.86
613.136	2050.51
613.586	2068.91
614.035	2065.96
614.484	2088.56
614.933	2098.56
615.383	2054.21
615.832	1984.36
616.281	1952.96
616.73	1904.36
617.179	1841.36
617.628	1809.61
618.077	1790.61
618.526	1760.36
618.975	1748.41
619.424	1711.46
619.873	1718.01
620.322	1707.76
620.771	1713.36
621.22	1684.51
621.669	1650.11
622.118	1640.61
622.567	1614.71
623.015	1587.91
623.464	1594.86
623.913	1578.06
624.361	1577.51
624.81	1569.36
625.259	1557.66
625.707	1546.96
626.156	1551.51
626.604	1572.26
627.053	1582.11
627.501	1575.46
627.95	1588.96
628.398	1604.16
628.847	1578.16
629.295	1586.86
629.744	1602.51
630.192	1644.01
630.64	1751.86
631.089	1911.06
631.537	1994.51
631.985	1995.16
632.433	2069.96
632.881	2058.96
633.33	2449.91
633.778	2661.21
634.226	1920.96
634.674	1790.86
635.122	1779.26
635.57	1807.16
636.018	2067.66
636.466	1707.91
636.914	1541.61
637.362	1545.71
637.81	1564.01
638.258	1613.21
638.705	1621.31
639.153	1673.11
639.601	1684.21
640.049	1698.86
640.497	1755.41
640.944	1802.46
641.392	1730.31
641.84	1635.06
642.287	1562.26
642.735	1553.36
643.182	1535.56
643.63	1537.36
644.078	1543.96
644.525	1573.76
644.973	1613.16
645.42	1638.01
645.867	1669.81
646.315	1710.91
646.762	1771.16
647.21	1832.06
647.657	1924.96
648.104	2014.66
648.551	2114.56
648.999	2313.36
649.446	2565.61
649.893	2921.96
650.34	3455.31
650.787	4325.71
651.234	5699.16
651.682	7907.11
652.129	11430.76
652.576	15510.11
653.023	15536.56
653.47	15539.76
653.917	15539.81
654.363	15539.71
654.81	15536.71
655.257	15537.36
655.704	15541.16
656.151	12211.86
656.598	7881.41
657.044	5596.51
657.491	4329.36
657.938	3488.76
658.385	2923.91
658.831	2551.41
659.278	2270.06
659.724	2059.61
660.171	1900.86
660.618	1759.01
661.064	1662.16
661.511	1600.66
661.957	1536.21
662.404	1494.56
662.85	1466.81
663.296	1449.41
663.743	1412.76
664.189	1392.31
664.635	1389.71
665.082	1356.06
665.528	1335.06
665.974	1314.01
666.42	1299.51
666.867	1310.51
667.313	1305.86
667.759	1360.46
668.205	1350.06
668.651	1364.36
669.097	1323.71
669.543	1427.16
669.989	1353.41
670.435	1219.51
670.881	1208.81
671.327	1259.41
671.773	1342.51
672.219	1438.16
672.665	1528.61
673.11	1571.26
673.556	1587.71
674.002	1627.51
674.448	1642.41
674.893	1393.36
675.339	1219.46
675.785	1126.66
676.23	1073.61
676.676	1034.21
677.122	1009.06
677.567	979.06
678.013	953.86
678.458	953.11
678.904	942.26
679.349	934.61
679.794	929.51
680.24	927.66
680.685	918.31
681.131	912.71
681.576	921.46
682.021	931.36
682.466	929.26
682.912	943.71
683.357	985.81
683.802	1068.36
684.247	1182.16
684.692	1252.66
685.137	1299.76
685.583	1318.11
686.028	1379.56
686.473	1310.91
686.918	1139.81
687.363	1040.01
687.807	990.96
688.252	941.51
688.697	913.46
689.142	888.71
689.587	895.91
690.032	917.11
690.477	940.21
690.921	987.66
691.366	1039.91
691.811	1077.06
692.255	1162.16
692.7	1441.21
693.145	2085.41
693.589	3152.06
694.034	3724.76
694.478	3933.61
694.923	3571.61
695.367	5058.86
695.812	3080.16
696.256	1319.26
696.701	963.86
697.145	900.36
697.59	875.21
698.034	858.21
698.478	857.06
698.922	875.76
699.367	892.21
699.811	931.31
700.255	1008.86
700.699	1102.71
701.143	1192.96
701.588	1240.01
702.032	1296.56
702.476	1336.41
702.92	1430.31
703.364	1885.46
703.808	2902.41
704.252	3579.36
704.696	3742.41
705.14	3498.61
705.584	4774.66
706.027	2658.66
706.471	1342.76
706.915	1014.26
707.359	908.31
707.803	857.11
708.246	823.31
708.69	813.41
709.134	806.56
709.577	803.61
710.021	812.36
710.465	804.71
710.908	802.26
711.352	840.91
711.795	935.86
712.239	1003.36
712.682	1022.11
713.126	1002.96
713.569	1118.86
714.012	926.36
714.456	815.36
714.899	771.86
715.342	725.16
715.786	696.16
716.229	674.86
716.672	666.76
717.115	660.11
717.558	675.71
718.002	700.76
718.445	721.56
718.888	758.11
719.331	766.71
719.774	791.06
720.217	772.11
720.66	721.76
721.103	687.81
721.546	653.26
721.989	637.01
722.432	620.76
722.874	627.11
723.317	641.46
723.76	690.31
724.203	843.61
724.645	1137.81
725.088	1317.76
725.531	1285.71
725.974	1406.86
726.416	1254.86
726.859	794.31
727.301	651.21
727.744	628.91
728.187	622.91
728.629	637.61
729.071	665.91
729.514	691.96
729.956	718.01
730.399	722.76
730.841	725.86
731.283	707.26
731.726	693.06
732.168	699.26
732.61	735.81
733.053	796.91
733.495	877.11
733.937	989.36
734.379	1154.66
734.821	1481.36
735.263	2375.06
735.705	4282.71
736.148	6182.46
736.59	6115.16
737.032	6535.21
737.474	5388.51
737.916	2081.56
738.357	1103.56
738.799	854.96
739.241	791.01
739.683	796.31
740.125	799.01
740.567	807.41
741.008	851.61
741.45	876.31
741.892	908.26
742.334	906.11
742.775	901.21
743.217	862.91
743.658	745.91
744.1	753.06
744.542	841.21
744.983	869.36
745.425	884.61
745.866	895.26
746.307	802.21
746.749	879.56
747.19	1283.51
747.632	2513.31
748.073	4660.61
748.514	6333.16
748.956	8331.96
749.397	9690.66
749.838	6684.36
750.279	6304.81
750.72	3270.76
751.162	1389.46
751.603	808.26
752.044	649.51
752.485	576.01
752.926	540.21
753.367	514.11
753.808	509.11
754.249	500.06
754.69	495.21
755.131	488.76
755.572	479.26
756.013	485.56
756.453	485.61
756.894	499.26
757.335	493.06
757.776	506.41
758.216	526.51
758.657	554.41
759.098	616.66
759.538	742.41
759.979	1082.06
760.42	2213.86
760.86	5684.21
761.301	11482.66
761.741	13124.51
762.182	14765.91
762.622	9725.46
763.063	3535.56
763.503	1546.31
763.943	1173.06
764.384	1232.01
764.824	1166.41
765.264	1144.16
765.705	823.71
766.145	611.36
766.585	547.61
767.025	572.71
767.465	741.41
767.906	889.01
768.346	930.06
768.786	971.61
769.226	1024.06
769.666	1790.26
770.106	3917.06
770.546	5395.11
770.986	6013.76
771.426	4533.01
771.866	1914.41
772.306	869.91
772.745	545.51
773.185	475.46
773.625	472.91
774.065	545.51
774.505	868.81
774.944	1700.86
775.384	2488.91
775.824	2808.56
776.263	2278.86
776.703	1144.11
777.142	608.96
777.582	426.41
778.021	387.56
778.461	375.26
778.9	359.86
779.34	337.41
779.779	328.81
780.219	310.51
780.658	302.21
781.097	302.56
781.537	302.51
781.976	294.51
782.415	295.21
782.855	292.71
783.294	290.71
783.733	287.01
784.172	294.26
784.611	288.56
785.05	291.46
785.489	298.71
785.928	308.06
786.367	318.91
786.806	342.06
787.245	363.96
787.684	370.91
788.123	366.11
788.562	350.01
789.001	337.31
789.44	331.46
789.879	326.06
790.317	333.86
790.756	351.86
791.195	407.56
791.634	551.36
792.072	1000.36
792.511	2485.06
792.95	4485.41
793.388	5303.81
793.827	3405.06
794.265	1576.36
794.704	761.11
795.142	468.11
795.581	391.06
796.019	350.26
796.458	355.41
796.896	360.11
797.334	415.01
797.773	563.76
798.211	1085.31
798.649	2246.16
799.087	3744.11
799.526	5263.56
799.964	5330.31
800.402	3630.01
800.84	1661.31
801.278	817.21
801.716	499.01
802.154	410.21
802.592	385.46
803.03	379.11
803.468	394.46
803.906	394.46
804.344	387.91
804.782	371.41
805.22	379.26
805.658	394.96
806.096	417.51
806.533	465.81
806.971	600.76
807.409	876.96
807.847	1770.46
808.284	4503.96
808.722	7708.51
809.16	10815.66
809.597	14480.46
810.035	15541.71
810.472	11424.41
810.91	4929.76
811.347	2215.66
811.785	1037.46
812.222	656.71
812.66	505.71
813.097	429.96
813.535	375.51
813.972	336.81
814.409	317.76
814.846	298.01
815.284	285.46
815.721	290.76
816.158	321.01
816.595	393.56
817.032	476.06
817.47	437.91
817.907	335.86
818.344	303.66
818.781	296.21
819.218	344.71
819.655	487.11
820.092	624.61
820.529	570.26
820.966	471.06
821.403	358.06
821.839	312.66
822.276	326.16
822.713	374.86
823.15	367.76
823.587	399.01
824.023	730.46
824.46	1837.01
824.897	3131.36
825.333	2387.46
825.77	1107.71
826.206	584.21
826.643	340.11
827.08	262.76
827.516	230.06
827.953	214.71
828.389	208.31
828.825	193.56
829.262	183.86
829.698	179.41
830.135	174.51
830.571	174.51
831.007	174.66
831.443	176.71
831.88	178.51
832.316	181.61
832.752	177.16
833.188	180.81
833.624	188.16
834.06	190.26
834.497	183.56
834.933	190.21
835.369	201.91
835.805	215.56
836.241	227.66
836.677	249.76
837.112	289.91
837.548	353.81
837.984	535.56
838.42	1163.11
838.856	3225.86
839.292	6198.21
839.727	4524.16
840.163	3132.66
840.599	4779.16
841.034	7123.56
841.47	3529.16
841.906	1751.71
842.341	976.06
842.777	808.36
843.212	914.21
843.648	553.86
844.083	359.06
844.519	252.21
844.954	205.31
845.39	177.41
845.825	175.86
846.261	165.71
846.696	157.61
847.131	151.16
847.566	153.71
848.002	157.96
848.437	170.16
848.872	177.16
849.307	218.96
849.742	407.16
850.177	1054.56
850.613	2175.16
851.048	1532.71
851.483	710.06
851.918	412.36
852.353	238.56
852.788	185.91
853.223	157.66
853.657	139.21
854.092	134.06
854.527	128.61
854.962	130.31
855.397	133.56
855.832	124.96
856.266	118.51
856.701	120.71
857.136	118.66
857.57	139.41
858.005	151.11
858.44	139.01
858.874	135.66
859.309	138.36
859.743	136.06
860.178	132.51
860.612	143.41
861.047	182.91
861.481	235.01
861.915	161.76
862.35	128.21
862.784	109.16
863.218	109.86
863.653	118.81
864.087	136.86
864.521	181.71
864.955	303.26
865.39	510.71
865.824	365.86
866.258	419.31
866.692	595.36
867.126	431.86
867.56	238.16
867.994	163.61
868.428	145.31
868.862	166.61
869.296	152.16
869.73	184.76
870.164	161.51
870.598	148.56
871.031	114.66
871.465	100.76
871.899	88.56
872.333	82.01
872.766	82.51
873.2	82.76
873.634	79.76
874.067	86.91
874.501	87.01
874.935	89.41
875.368	89.56
875.802	80.26
876.235	75.76
876.669	73.41
877.102	64.01
877.535	76.06
877.969	67.66
878.402	74.46
878.836	68.56
879.269	70.31
879.702	63.61
880.135	68.66
880.569	80.86
881.002	65.01
881.435	64.51
881.868	63.51
882.301	63.76
882.734	62.56
883.167	64.06
883.601	58.96
884.034	63.21
884.467	54.56
884.899	56.81
885.332	50.51
885.765	54.41
886.198	55.76
886.631	53.41
887.064	58.31
887.497	57.36
887.929	57.56
888.362	54.76
888.795	53.21
889.228	58.16
889.66	50.41
890.093	53.01
890.526	53.46
890.958	53.76
891.391	56.31
891.823	52.36
892.256	49.51
892.688	45.71
893.121	46.66
893.553	53.01
893.985	44.71
894.418	44.91
894.85	51.06
895.282	48.11
895.715	46.76
896.147	41.61
896.579	39.86
897.011	51.51
897.444	48.51
897.876	45.81
898.308	46.26
898.74	48.26
899.172	47.86
899.604	49.61
900.036	46.46
900.468	44.61
900.9	52.66
901.332	56.96
901.764	64.06
902.196	61.36
902.628	57.71
903.06	81.06
903.491	80.46
903.923	73.96
904.355	73.01
904.787	81.41
905.218	61.61
905.65	62.06
906.082	59.06
906.513	59.56
906.945	59.91
907.376	54.86
907.808	66.76
908.239	70.61
908.671	73.21
909.102	78.16
909.534	106.56
909.965	201.51
910.397	509.41
910.828	1445.11
911.259	875.46
911.691	482.06
912.122	283.61
912.553	142.01
912.984	80.21
913.415	69.81
913.847	64.56
914.278	57.51
914.709	51.61
915.14	49.06
915.571	52.71
916.002	44.36
916.433	47.26
916.864	42.76
917.295	48.76
917.726	56.66
918.157	67.66
918.587	68.31
919.018	64.96
919.449	64.01
919.88	75.21
920.311	112.91
920.741	304.41
921.172	541.41
921.603	266.31
922.033	172.26
922.464	110.66
922.895	76.26
923.325	54.36
923.756	49.46
924.186	67.81
924.617	105.16
925.047	167.66
925.478	156.96
925.908	108.56
926.338	77.51
926.769	55.76
927.199	54.21
927.629	42.21
928.06	47.66
928.49	47.81
928.92	43.56
929.35	42.46
929.78	30.31
930.21	29.11
930.641	22.71
931.071	26.51
931.501	25.41
931.931	22.81
932.361	24.26
932.791	30.11
933.221	30.41
933.651	45.86
934.08	72.61
934.51	42.31
934.94	35.46
935.37	26.56
935.8	23.66
936.229	21.86
936.659	23.81
937.089	34.16
937.519	52.56
937.948	69.76
938.378	43.56
938.807	34.16
939.237	19.26
939.666	22.46
940.096	18.66
940.525	10.91
940.955	19.01
941.384	15.21
941.814	15.16
942.243	9.86
942.672	14.31
943.102	6.81
943.531	9.26
943.96	10.26
944.39	13.31
944.819	15.66
945.248	9.36
945.677	17.31
946.106	14.36
946.535	15.81
946.964	10.51
947.393	10.56
947.822	10.26
948.251	18.31
948.68	15.51
949.109	13.46
949.538	10.91
949.967	13.66
950.396	14.71
950.825	14.81
951.254	9.96
951.682	8.76
952.111	7.71
952.54	8.76
952.969	12.51
953.397	6.36
953.826	4.96
954.254	10.91
954.683	12.31
955.112	11.86
955.54	10.11
955.969	5.51
956.397	13.86
956.826	10.81
957.254	7.51
957.682	10.11
958.111	9.96
958.539	6.41
958.967	10.76
959.396	8.06
959.824	12.11
960.252	13.76
960.68	8.41
961.109	11.96
961.537	17.11
961.965	9.51
962.393	8.66
962.821	13.36
963.249	10.91
963.677	18.51
964.105	88.81
964.533	153.01
964.961	80.36
965.389	44.26
965.817	24.51
966.245	17.36
966.672	9.46
967.1	8.91
967.528	7.56
967.956	7.96
968.383	10.06
968.811	9.16
969.239	5.06
969.666	9.81
970.094	7.61
970.522	6.46
970.949	8.56
971.377	-1.14
971.804	2.46
972.232	3.86
972.659	8.91
973.087	8.36
973.514	5.51
973.941	6.61
974.369	3.71
974.796	7.11
975.223	2.06
975.651	9.26
976.078	4.86
976.505	13.76
976.932	39.26
977.359	43.61
977.786	29.76
978.214	18.66
978.641	6.46
979.068	10.01
979.495	4.81
979.922	7.66
980.349	7.76
980.776	4.01
981.202	7.46
981.629	9.51
982.056	1.26
982.483	-0.44
982.91	9.76
983.337	2.96
983.763	8.81
984.19	7.21
984.617	1.01
985.043	9.26
985.47	6.76
985.897	6.06
986.323	8.31
986.75	0.71
987.176	4.16
987.603	4.01
988.029	6.61
988.456	8.21
988.882	2.16
989.308	-7.04
989.735	-0.24
990.161	2.21
990.587	5.81
991.014	5.46
991.44	8.16
991.866	4.76
992.292	4.01
992.719	0.56
993.145	5.01
993.571	4.56
993.997	8.61
994.423	9.26
994.849	0.16
995.275	3.16
995.701	4.36
996.127	-2.79
996.553	0.56
996.979	0.56
997.405	4.91
997.83	6.06
998.256	3.21
998.682	3.66
999.108	4.31
999.534	0.26
999.959	0.21
1000.385	7.86
1000.811	-1.09
1001.236	-0.99
1001.662	1.86
1002.087	6.86
1002.513	5.06
1002.938	0.71
1003.364	4.01
1003.789	5.21
1004.215	-0.64
1004.64	1.16
1005.066	4.56
1005.491	8.61
1005.916	1.06
1006.342	8.76
1006.767	9.56
1007.192	3.96
1007.617	6.06
1008.042	2.26
1008.468	3.71
1008.893	8.21
1009.318	8.76
1009.743	16.01
1010.168	23.61
1010.593	15.91
1011.018	12.36
1011.443	6.31
1011.868	10.76
1012.293	8.46
1012.718	2.71
1013.143	5.01
1013.567	7.16
1013.992	5.71
1014.417	4.26
1014.842	5.11
1015.267	1.51
1015.691	3.86
1016.116	4.61
1016.541	0.41
1016.965	6.41
1017.39	3.01
1017.814	-0.04
1018.239	-1.04
1018.663	-6.29
1019.088	-4.44
1019.512	7.16
1019.937	-1.99
1020.361	-0.49
1020.785	4.56
1021.21	0.26
1021.634	2.81
1022.058	6.56
1022.483	-2.64
1022.907	-3.14
1023.331	-2.99
1023.755	2.96
1024.179	0.66
1024.604	3.01
1025.028	1.21
1025.452	-2.19
1025.876	-0.74
1026.3	5.01
1026.724	-1.19
1027.148	-0.59
1027.572	0.26
1027.996	3.81
1028.42	-1.24
1028.843	2.71
1029.267	-0.94
1029.691	2.01
1030.115	-3.89
1030.539	1.96
1030.962	-2.94
1031.386	2.26
1031.81	-1.84
1032.233	1.36
1032.657	-8.89
1033.08	1.36
1033.504	-0.69
1033.927	-1.39
1034.351	1.56
1034.774	0.06
1035.198	-1.79
1035.621	2.61
1036.045	0.06
1036.468	1.01
1036.891	1.36
1037.315	1.11
1037.738	0.16
1038.161	0.21
1038.584	-3.44
1039.008	-1.34
1039.431	0.96
1039.854	-4.59
1040.277	-1.99
1040.7	-1.39
1041.123	-2.19
1041.546	-2.99
1041.969	1.56
1042.392	1.46
1042.815	-3.84
1043.238	-2.74
1043.661	1.56
1044.084	-6.99
1044.507	-8.39
1044.93	-0.39
1045.352	-0.89
1045.775	-0.19
1046.198	1.41
1046.621	5.61
1047.043	-3.59
1047.466	3.16
1047.889	0.51
1048.311	3.76
1048.734	0.26
1049.156	-1.74
1049.579	-0.29
1050.001	-1.29
1050.424	2.06
1050.846	-5.19
1051.269	-3.59
1051.691	-3.84
1052.113	2.06
1052.536	-1.59
1052.958	-6.29
1053.38	-0.19
1053.802	0.61
1054.225	-0.39
1054.647	0.61
1055.069	-0.49
1055.491	0.81
1055.913	0.01
1056.335	-5.64
1056.757	-6.94
1057.179	0.46
1057.601	-4.89
1058.023	-0.34
1058.445	-6.99
1058.867	3.31
1059.289	1.16
1059.711	-6.04
1060.133	1.46
1060.555	-1.29
1060.976	0.61
1061.398	-7.49
1061.82	3.01
1062.241	-3.54
1062.663	-2.14
1063.085	-7.44
1063.506	-6.94
1063.928	-1.99
1064.35	-2.99
1064.771	2.96
1065.193	-3.94
1065.614	-0.44
1066.035	2.86
1066.457	3.91
1066.878	3.21
1067.3	-0.84
1067.721	1.96
1068.142	-1.94
1068.564	3.16
1068.985	0.61
1069.406	-4.44
1069.827	-2.74
1070.248	-6.29
1070.67	-4.09
1071.091	-4.64
1071.512	-6.04
1071.933	-2.69
1072.354	-7.54
1072.775	-4.04
1073.196	-0.59
1073.617	-8.99
1074.038	-3.64
1074.459	-4.09
1074.88	-2.69
1075.3	0.91
1075.721	0.31
1076.142	0.06
1076.563	-3.84
1076.983	-0.24
1077.404	-6.39
1077.825	1.36
1078.246	-3.09
1078.666	0.51
1079.087	0.41
1079.507	-2.64
1079.928	-2.14
1080.348	-3.39
1080.769	0.96
1081.189	-1.04
1081.61	-5.24
1082.03	1.06
1082.451	-0.39
1082.871	-4.29
1083.291	-6.64
1083.711	-1.49
1084.132	-2.39
1084.552	-1.64
1084.972	-7.54
1085.392	-7.34
1085.813	-1.89
1086.233	-2.89
1086.653	2.66
1087.073	-2.04
1087.493	0.26
1087.913	-7.89
1088.333	-1.89
1088.753	-3.29
1089.173	3.51
1089.593	3.31
1090.013	-0.24
1090.433	-6.34
1090.852	1.06
1091.272	-2.94
1091.692	-2.24
1092.112	-1.59
1092.531	-5.09
1092.951	-2.69
1093.371	0.21
1093.79	-7.14
1094.21	-5.44
1094.63	0.76
1095.049	0.91
1095.469	-7.84
1095.888	-0.64
1096.308	5.56
1096.727	-4.39
1097.146	-5.09
1097.566	-1.59
1097.985	-0.79
1098.405	-1.19
1098.824	-0.44
1099.243	-3.69
1099.662	-4.74
1100.082	-3.94
1100.501	-0.44
1100.92	3.11
1101.339	1.76
1101.758	4.61
