Data from MSPlasma+Separation6_Subt14_10-15-03-872.txt Node
Date: Fri Jul 21 10:15:03 EDT 2017
User: Ender
Spectrometer: HR+D1039
Trigger mode: 0
Integration Time (sec): 6.430000E-3
Scans to average: 20
Electric dark correction enabled: true
Nonlinearity correction enabled: false
Boxcar width: 0
XAxis mode: Wavelengths
Number of Pixels in Spectrum: 2048
>>>>>Begin Spectral Data<<<<<
187.836	-0.86
188.309	-0.86
188.782	-0.86
189.255	2.44
189.728	2.39
190.201	-3.01
190.674	-1.96
191.147	-0.26
191.619	1.29
192.092	-2.26
192.565	3.84
193.038	0.64
193.511	1.39
193.984	1.54
194.456	0.29
194.929	-0.71
195.402	-2.96
195.874	-1.86
196.347	-0.61
196.82	1.89
197.292	-3.36
197.765	-2.01
198.237	-3.01
198.71	-6.16
199.182	2.44
199.655	-0.81
200.127	2.14
200.6	2.14
201.072	2.24
201.544	1.99
202.017	4.49
202.489	-0.01
202.961	-4.51
203.433	-2.36
203.906	1.34
204.378	5.49
204.85	0.09
205.322	2.79
205.794	7.34
206.266	4.54
206.739	8.04
207.211	0.84
207.683	1.94
208.155	4.14
208.627	2.79
209.099	5.59
209.57	5.14
210.042	5.29
210.514	5.79
210.986	18.44
211.458	25.34
211.93	12.99
212.402	4.19
212.873	1.59
213.345	-2.31
213.817	1.94
214.288	-2.01
214.76	3.89
215.232	1.44
215.703	3.64
216.175	5.09
216.646	3.44
217.118	4.24
217.589	1.69
218.061	2.64
218.532	2.24
219.004	10.84
219.475	18.79
219.946	31.54
220.418	39.39
220.889	25.44
221.36	14.24
221.832	10.94
222.303	11.69
222.774	9.14
223.245	6.89
223.717	2.74
224.188	9.14
224.659	4.54
225.13	2.34
225.601	4.14
226.072	5.79
226.543	9.99
227.014	10.14
227.485	13.09
227.956	15.14
228.427	15.79
228.898	15.84
229.369	11.19
229.839	16.39
230.31	12.64
230.781	14.49
231.252	21.59
231.722	27.69
232.193	40.24
232.664	43.09
233.135	60.69
233.605	61.49
234.076	53.49
234.546	43.64
235.017	46.09
235.487	46.44
235.958	46.14
236.428	71.04
236.899	112.09
237.369	122.59
237.84	92.54
238.31	118.89
238.78	118.19
239.251	116.19
239.721	124.44
240.191	91.59
240.662	53.89
241.132	44.09
241.602	56.64
242.072	77.49
242.542	94.44
243.013	72.14
243.483	57.69
243.953	44.69
244.423	45.49
244.893	60.14
245.363	63.74
245.833	62.24
246.303	65.94
246.773	84.49
247.243	87.34
247.712	100.99
248.182	120.99
248.652	121.04
249.122	177.84
249.592	334.29
250.061	507.49
250.531	806.84
251.001	621.09
251.471	509.74
251.94	387.04
252.41	209.84
252.879	148.04
253.349	113.89
253.818	90.34
254.288	78.24
254.757	76.69
255.227	106.49
255.696	84.89
256.166	80.04
256.635	82.34
257.105	101.94
257.574	142.79
258.043	141.19
258.513	250.39
258.982	316.79
259.451	219.84
259.92	225.19
260.389	202.94
260.859	150.24
261.328	176.99
261.797	256.19
262.266	221.84
262.735	106.09
263.204	70.34
263.673	64.64
264.142	55.49
264.611	57.44
265.08	63.14
265.549	70.34
266.018	61.34
266.487	56.04
266.955	63.04
267.424	64.79
267.893	66.29
268.362	69.94
268.83	64.39
269.299	73.29
269.768	74.64
270.236	97.69
270.705	103.74
271.174	98.69
271.642	111.34
272.111	125.94
272.579	198.94
273.048	300.74
273.516	392.04
273.985	388.29
274.453	300.14
274.922	182.19
275.39	115.89
275.858	113.34
276.327	90.99
276.795	94.39
277.263	101.39
277.731	143.24
278.2	263.24
278.668	346.24
279.136	264.29
279.604	173.04
280.072	106.74
280.54	90.79
281.008	95.99
281.477	97.49
281.945	101.59
282.413	97.19
282.881	102.74
283.348	104.49
283.816	113.14
284.284	116.69
284.752	110.84
285.22	107.99
285.688	126.14
286.156	207.09
286.623	549.99
287.091	1089.04
287.559	563.39
288.026	219.94
288.494	134.89
288.962	112.09
289.429	113.44
289.897	104.84
290.364	105.54
290.832	101.34
291.3	106.39
291.767	111.34
292.234	114.09
292.702	117.29
293.169	123.04
293.637	132.19
294.104	125.19
294.571	121.19
295.039	118.34
295.506	123.34
295.973	125.69
296.44	121.09
296.908	133.19
297.375	149.19
297.842	151.49
298.309	128.14
298.776	131.29
299.243	135.74
299.71	126.54
300.177	127.39
300.644	141.24
301.111	156.94
301.578	142.84
302.045	131.14
302.512	131.59
302.979	138.34
303.446	142.29
303.913	148.04
304.379	155.39
304.846	168.34
305.313	194.19
305.78	216.79
306.246	264.84
306.713	283.84
307.18	254.09
307.646	273.09
308.113	241.74
308.579	190.74
309.046	186.99
309.512	188.24
309.979	172.69
310.445	165.89
310.912	172.24
311.378	168.94
311.845	168.79
312.311	160.49
312.777	161.29
313.244	172.54
313.71	179.69
314.176	192.19
314.642	225.74
315.109	261.59
315.575	249.34
316.041	227.04
316.507	214.34
316.973	240.99
317.439	225.84
317.905	250.29
318.371	247.49
318.837	237.64
319.303	247.09
319.769	228.14
320.235	250.49
320.701	289.64
321.167	310.44
321.633	370.04
322.099	507.64
322.564	683.59
323.03	535.49
323.496	372.54
323.962	352.04
324.427	340.69
324.893	296.19
325.359	283.49
325.824	244.49
326.29	257.94
326.755	259.69
327.221	264.34
327.686	277.09
328.152	254.09
328.617	236.74
329.083	239.84
329.548	258.29
330.014	261.99
330.479	285.19
330.944	327.94
331.41	377.74
331.875	364.89
332.34	377.84
332.805	433.04
333.271	551.69
333.736	730.34
334.201	662.94
334.666	490.79
335.131	555.34
335.596	440.24
336.061	461.59
336.526	468.59
336.991	410.59
337.456	443.64
337.921	352.19
338.386	292.59
338.851	270.39
339.316	252.89
339.781	245.99
340.246	252.89
340.711	247.69
341.175	256.84
341.64	264.09
342.105	264.29
342.569	275.74
343.034	295.84
343.499	309.49
343.963	298.44
344.428	291.69
344.893	305.69
345.357	311.24
345.822	298.24
346.286	306.84
346.751	317.29
347.215	314.84
347.679	321.89
348.144	352.04
348.608	339.84
349.073	355.04
349.537	395.94
350.001	386.09
350.465	360.94
350.93	348.09
351.394	352.19
351.858	349.89
352.322	365.39
352.786	367.14
353.25	361.19
353.715	357.94
354.179	382.09
354.643	402.49
355.107	411.74
355.571	432.79
356.035	444.09
356.498	425.84
356.962	455.74
357.426	448.74
357.89	403.94
358.354	384.19
358.818	377.99
359.281	389.04
359.745	409.39
360.209	402.29
360.673	408.74
361.136	409.69
361.6	411.54
362.064	432.29
362.527	440.69
362.991	439.94
363.454	444.79
363.918	451.59
364.381	439.74
364.845	427.94
365.308	425.49
365.772	428.04
366.235	426.59
366.698	446.59
367.162	537.94
367.625	609.74
368.088	486.39
368.552	447.04
369.015	452.44
369.478	483.69
369.941	493.34
370.404	503.94
370.867	531.24
371.331	542.74
371.794	544.79
372.257	616.29
372.72	638.54
373.183	616.69
373.646	623.24
374.109	616.04
374.572	718.54
375.035	834.69
375.497	640.84
375.96	517.49
376.423	493.39
376.886	492.74
377.349	507.54
377.811	509.74
378.274	522.84
378.737	531.84
379.199	542.79
379.662	550.59
380.125	594.44
380.587	653.49
381.05	696.39
381.512	688.74
381.975	670.19
382.437	660.09
382.9	655.24
383.362	663.09
383.825	711.49
384.287	891.59
384.75	982.94
385.212	875.49
385.674	725.04
386.136	656.09
386.599	654.64
387.061	683.24
387.523	700.79
387.985	708.44
388.447	728.84
388.91	817.99
389.372	981.64
389.834	921.94
390.296	774.04
390.758	783.74
391.22	799.39
391.682	980.09
392.144	1518.39
392.606	1420.39
393.068	844.34
393.529	773.89
393.991	750.09
394.453	739.39
394.915	769.29
395.377	939.64
395.838	1140.69
396.3	819.74
396.762	640.99
397.224	613.14
397.685	608.89
398.147	618.19
398.608	620.89
399.07	627.74
399.531	613.34
399.993	625.79
400.454	634.64
400.916	638.49
401.377	644.29
401.839	660.69
402.3	658.34
402.762	690.54
403.223	756.94
403.684	771.24
404.145	709.24
404.607	686.04
405.068	691.54
405.529	708.54
405.99	713.24
406.451	725.49
406.913	707.74
407.374	718.64
407.835	723.79
408.296	738.94
408.757	746.79
409.218	775.74
409.679	792.69
410.14	791.14
410.601	821.19
411.062	865.14
411.522	982.99
411.983	1097.14
412.444	933.19
412.905	824.54
413.366	831.84
413.826	854.94
414.287	946.14
414.748	1130.94
415.208	1159.84
415.669	966.59
416.13	889.54
416.59	866.24
417.051	889.94
417.511	931.84
417.972	1003.19
418.432	1074.54
418.893	1204.29
419.353	1139.04
419.814	884.99
420.274	793.14
420.734	787.74
421.195	832.29
421.655	874.54
422.115	839.79
422.576	809.79
423.036	811.69
423.496	848.99
423.956	891.84
424.416	947.89
424.876	1067.29
425.336	1062.59
425.797	1062.79
426.257	1059.34
426.717	991.94
427.177	931.34
427.637	961.34
428.097	1002.44
428.556	1052.69
429.016	1143.99
429.476	1139.84
429.936	1097.39
430.396	1058.74
430.856	1072.44
431.315	1104.29
431.775	1190.14
432.235	1254.14
432.694	1275.49
433.154	1195.79
433.614	1162.94
434.073	1120.49
434.533	1020.84
434.993	992.69
435.452	995.79
435.912	978.04
436.371	969.74
436.83	977.84
437.29	988.94
437.749	945.99
438.209	926.64
438.668	945.94
439.127	947.84
439.587	932.99
440.046	889.99
440.505	909.39
440.964	908.84
441.424	931.69
441.883	952.59
442.342	908.24
442.801	872.34
443.26	899.19
443.719	891.89
444.178	878.89
444.637	893.24
445.096	890.74
445.555	912.44
446.014	902.84
446.473	879.29
446.932	875.44
447.391	897.74
447.849	920.54
448.308	904.89
448.767	923.79
449.226	940.89
449.685	959.99
450.143	983.59
450.602	991.59
451.061	945.99
451.519	964.69
451.978	986.64
452.436	1008.94
452.895	962.09
453.353	934.89
453.812	948.69
454.27	939.19
454.729	913.89
455.187	926.94
455.646	927.44
456.104	943.69
456.562	931.94
457.021	916.39
457.479	894.69
457.937	910.24
458.395	933.29
458.854	923.84
459.312	913.09
459.77	932.64
460.228	932.49
460.686	950.34
461.144	952.24
461.602	942.09
462.06	947.89
462.518	963.34
462.976	960.44
463.434	965.69
463.892	979.29
464.35	997.99
464.808	1006.34
465.266	1021.44
465.724	1038.34
466.181	1041.09
466.639	1032.74
467.097	1072.94
467.555	1115.84
468.012	1102.74
468.47	1105.34
468.928	1160.74
469.385	1181.64
469.843	1197.99
470.3	1185.64
470.758	1218.59
471.215	1245.24
471.673	1268.29
472.13	1301.24
472.588	1319.49
473.045	1331.89
473.503	1350.29
473.96	1406.19
474.417	1428.14
474.875	1480.24
475.332	1531.49
475.789	1562.04
476.246	1601.49
476.704	1673.84
477.161	1721.34
477.618	1775.64
478.075	1855.44
478.532	2017.99
478.989	2155.14
479.446	2364.84
479.903	2503.59
480.36	2732.44
480.817	2902.69
481.274	3112.69
481.731	3414.29
482.188	3671.24
482.645	3963.29
483.102	4190.09
483.558	4523.69
484.015	4723.89
484.472	4750.69
484.929	4602.94
485.385	4407.39
485.842	4306.99
486.299	4087.99
486.755	3705.19
487.212	3340.69
487.668	3001.19
488.125	2776.89
488.582	2569.14
489.038	2460.64
489.494	2380.79
489.951	2314.69
490.407	2262.64
490.864	2227.29
491.32	2175.29
491.776	2152.69
492.233	2142.64
492.689	2115.34
493.145	2091.74
493.602	2068.34
494.058	2116.19
494.514	2136.59
494.97	2150.59
495.426	2178.74
495.882	2179.84
496.338	2174.29
496.794	2272.24
497.251	2284.54
497.707	2282.59
498.163	2286.49
498.618	2281.74
499.074	2293.44
499.53	2340.89
499.986	2379.44
500.442	2417.29
500.898	2418.94
501.354	2450.14
501.809	2456.84
502.265	2497.24
502.721	2609.74
503.177	2696.04
503.632	2555.44
504.088	2576.79
504.543	2823.14
504.999	2653.74
505.455	2346.14
505.91	2232.69
506.366	2215.44
506.821	2206.44
507.277	2184.54
507.732	2176.04
508.187	2191.59
508.643	2201.69
509.098	2221.19
509.553	2236.34
510.009	2261.44
510.464	2307.49
510.919	2327.59
511.375	2359.09
511.83	2382.59
512.285	2427.04
512.74	2459.49
513.195	2496.29
513.65	2559.69
514.105	2585.64
514.56	2600.19
515.015	2644.09
515.47	2672.74
515.925	2670.24
516.38	2654.99
516.835	2636.49
517.29	2646.14
517.745	2651.74
518.2	2618.74
518.655	2531.69
519.109	2489.34
519.564	2469.54
520.019	2459.04
520.474	2419.89
520.928	2418.49
521.383	2409.49
521.838	2392.59
522.292	2364.99
522.747	2344.09
523.201	2333.54
523.656	2306.04
524.11	2294.79
524.565	2295.94
525.019	2299.99
525.474	2316.69
525.928	2306.49
526.382	2279.54
526.837	2245.29
527.291	2278.39
527.745	2249.64
528.2	2251.59
528.654	2237.94
529.108	2239.09
529.562	2246.59
530.016	2246.54
530.47	2257.34
530.925	2243.39
531.379	2262.89
531.833	2294.84
532.287	2258.39
532.741	2250.24
533.195	2248.24
533.649	2240.94
534.103	2262.24
534.556	2244.74
535.01	2253.89
535.464	2248.79
535.918	2261.34
536.372	2264.09
536.826	2239.74
537.279	2237.39
537.733	2250.94
538.187	2271.14
538.64	2262.34
539.094	2279.54
539.548	2309.14
540.001	2310.84
540.455	2307.14
540.908	2320.29
541.362	2341.99
541.815	2369.29
542.269	2420.74
542.722	2401.49
543.175	2422.99
543.629	2448.19
544.082	2456.74
544.536	2484.79
544.989	2485.99
545.442	2511.04
545.895	2505.09
546.349	2500.84
546.802	2507.89
547.255	2500.19
547.708	2532.19
548.161	2556.14
548.614	2551.99
549.067	2558.84
549.52	2545.59
549.973	2517.24
550.426	2502.19
550.879	2479.24
551.332	2474.14
551.785	2495.39
552.238	2527.59
552.691	2511.04
553.144	2542.79
553.596	2597.79
554.049	2625.89
554.502	2689.34
554.955	2735.59
555.407	2762.59
555.86	2747.19
556.313	2709.09
556.765	2683.99
557.218	2633.99
557.67	2638.54
558.123	2617.59
558.576	2599.94
559.028	2583.54
559.48	2629.99
559.933	2609.29
560.385	2537.59
560.838	2450.29
561.29	2354.79
561.742	2371.94
562.195	2325.79
562.647	2316.34
563.099	2297.29
563.551	2274.29
564.004	2310.09
564.456	2286.14
564.908	2240.24
565.36	2207.04
565.812	2152.64
566.264	2131.44
566.716	2106.94
567.168	2079.19
567.62	2090.14
568.072	2055.94
568.524	2034.29
568.976	2037.49
569.428	2009.44
569.88	2006.39
570.332	2018.19
570.784	2023.09
571.235	1985.74
571.687	2023.14
572.139	2011.44
572.59	2030.59
573.042	2049.89
573.494	2042.74
573.945	2026.09
574.397	1989.79
574.849	1972.99
575.3	1985.84
575.752	1950.84
576.203	1938.14
576.655	1955.34
577.106	1909.34
577.557	1907.84
578.009	1902.49
578.46	1908.54
578.912	1890.44
579.363	1908.99
579.814	1895.44
580.265	1894.14
580.717	1889.99
581.168	1884.64
581.619	1898.19
582.07	1917.49
582.521	1906.29
582.972	1908.24
583.423	1932.94
583.875	1963.99
584.326	2064.19
584.777	2253.84
585.227	2454.79
585.678	2623.54
586.129	2662.99
586.58	2722.74
587.031	2761.69
587.482	2937.04
587.933	3448.14
588.384	3164.89
588.834	2609.24
589.285	2210.84
589.736	2165.84
590.186	2176.24
590.637	2144.34
591.088	2096.64
591.538	2065.49
591.989	2045.14
592.439	2034.09
592.89	2024.79
593.34	2023.39
593.791	2041.14
594.241	2054.34
594.692	2071.24
595.142	2046.64
595.593	2004.99
596.043	2015.09
596.493	2054.79
596.943	2097.59
597.394	2071.99
597.844	2052.59
598.294	2080.49
598.744	2150.59
599.195	2246.99
599.645	2362.44
600.095	2491.94
600.545	2598.74
600.995	2715.59
601.445	2808.09
601.895	2954.69
602.345	3050.84
602.795	2994.34
603.245	2872.69
603.695	2693.54
604.145	2549.49
604.594	2431.59
605.044	2296.49
605.494	2154.79
605.944	2053.04
606.393	2014.04
606.843	1987.19
607.293	1990.19
607.743	1982.84
608.192	1997.24
608.642	2002.09
609.091	2002.74
609.541	1998.24
609.99	1991.04
610.44	1952.19
610.889	1930.64
611.339	1911.14
611.788	1895.89
612.238	1917.84
612.687	1933.49
613.136	1960.49
613.586	1988.69
614.035	1993.69
614.484	2022.44
614.933	2031.04
615.383	1972.19
615.832	1921.54
616.281	1880.79
616.73	1825.49
617.179	1782.59
617.628	1737.99
618.077	1705.19
618.526	1681.04
618.975	1676.14
619.424	1631.99
619.873	1652.14
620.322	1630.54
620.771	1635.24
621.22	1615.79
621.669	1583.04
622.118	1568.99
622.567	1555.79
623.015	1523.29
623.464	1524.59
623.913	1500.19
624.361	1493.44
624.81	1494.44
625.259	1493.84
625.707	1474.84
626.156	1480.64
626.604	1496.49
627.053	1503.19
627.501	1495.09
627.95	1512.84
628.398	1528.19
628.847	1514.54
629.295	1520.44
629.744	1536.84
630.192	1575.79
630.64	1678.44
631.089	1836.89
631.537	1936.04
631.985	1936.19
632.433	2008.49
632.881	2005.54
633.33	2421.39
633.778	2636.14
634.226	1855.14
634.674	1725.29
635.122	1709.79
635.57	1732.84
636.018	2022.39
636.466	1647.49
636.914	1459.24
637.362	1462.74
637.81	1483.79
638.258	1517.54
638.705	1529.69
639.153	1582.29
639.601	1590.44
640.049	1615.64
640.497	1669.29
640.944	1704.29
641.392	1625.29
641.84	1535.89
642.287	1475.09
642.735	1450.54
643.182	1434.49
643.63	1440.34
644.078	1447.74
644.525	1463.94
644.973	1500.74
645.42	1509.49
645.867	1548.54
646.315	1570.79
646.762	1621.34
647.21	1656.64
647.657	1742.09
648.104	1819.54
648.551	1870.99
648.999	2032.04
649.446	2222.39
649.893	2495.64
650.34	2931.34
650.787	3622.19
651.234	4691.64
651.682	6505.19
652.129	9271.84
652.576	13264.54
653.023	15535.79
653.47	15538.99
653.917	15539.04
654.363	15538.94
654.81	15535.94
655.257	15536.59
655.704	15540.39
656.151	10237.59
656.598	6667.49
657.044	4753.59
657.491	3691.64
657.938	2993.79
658.385	2521.34
658.831	2242.94
659.278	2009.39
659.724	1836.69
660.171	1709.09
660.618	1586.89
661.064	1502.89
661.511	1442.74
661.957	1396.54
662.404	1374.94
662.85	1355.04
663.296	1335.64
663.743	1313.79
664.189	1301.24
664.635	1289.74
665.082	1260.09
665.528	1245.79
665.974	1226.84
666.42	1210.74
666.867	1233.74
667.313	1231.09
667.759	1283.14
668.205	1278.99
668.651	1292.09
669.097	1253.79
669.543	1381.29
669.989	1290.49
670.435	1139.94
670.881	1133.94
671.327	1174.49
671.773	1258.29
672.219	1354.69
672.665	1433.74
673.11	1493.49
673.556	1507.44
674.002	1541.09
674.448	1564.19
674.893	1319.94
675.339	1158.59
675.785	1062.74
676.23	1013.79
676.676	978.14
677.122	951.74
677.567	931.69
678.013	902.19
678.458	900.94
678.904	891.59
679.349	878.79
679.794	879.09
680.24	875.64
680.685	865.04
681.131	883.29
681.576	873.29
682.021	885.09
682.466	885.69
682.912	898.84
683.357	937.64
683.802	1018.14
684.247	1109.94
684.692	1189.09
685.137	1235.89
685.583	1250.74
686.028	1318.74
686.473	1250.34
686.918	1079.64
687.363	984.54
687.807	941.64
688.252	900.69
688.697	863.84
689.142	841.69
689.587	842.79
690.032	859.39
690.477	890.09
690.921	940.99
691.366	981.49
691.811	1028.59
692.255	1109.74
692.7	1342.69
693.145	1938.49
693.589	2980.34
694.034	3536.14
694.478	3757.39
694.923	3454.99
695.367	4935.19
695.812	2974.39
696.256	1269.24
696.701	922.99
697.145	856.29
697.59	830.29
698.034	818.34
698.478	813.04
698.922	818.09
699.367	838.74
699.811	885.64
700.255	960.39
700.699	1041.44
701.143	1132.94
701.588	1191.54
702.032	1248.49
702.476	1282.09
702.92	1355.29
703.364	1756.34
703.808	2725.04
704.252	3389.04
704.696	3562.94
705.14	3379.34
705.584	4671.04
706.027	2561.99
706.471	1285.24
706.915	964.29
707.359	860.44
707.803	811.09
708.246	785.59
708.69	775.64
709.134	772.89
709.577	762.59
710.021	773.64
710.465	771.24
710.908	772.09
711.352	801.14
711.795	882.14
712.239	946.59
712.682	975.79
713.126	973.84
713.569	1084.69
714.012	886.29
714.456	792.04
714.899	738.09
715.342	687.04
715.786	659.14
716.229	639.09
716.672	631.19
717.115	632.19
717.558	644.14
718.002	651.99
718.445	685.74
718.888	721.79
719.331	732.54
719.774	747.19
720.217	723.29
720.66	685.54
721.103	658.19
721.546	619.14
721.989	604.59
722.432	595.44
722.874	594.09
723.317	606.69
723.76	663.54
724.203	808.64
724.645	1079.94
725.088	1261.19
725.531	1231.79
725.974	1351.49
726.416	1215.34
726.859	752.34
727.301	623.24
727.744	590.19
728.187	588.79
728.629	607.79
729.071	630.64
729.514	657.54
729.956	686.59
730.399	691.89
730.841	690.39
731.283	677.14
731.726	657.19
732.168	671.44
732.61	703.94
733.053	750.59
733.495	842.44
733.937	933.04
734.379	1108.59
734.821	1409.99
735.263	2234.84
735.705	4024.64
736.148	5897.29
736.59	5879.19
737.032	6403.84
737.474	5268.34
737.916	2007.04
738.357	1061.74
738.799	819.14
739.241	753.89
739.683	759.09
740.125	768.99
740.567	772.14
741.008	811.34
741.45	847.04
741.892	863.64
742.334	876.29
742.775	867.74
743.217	812.29
743.658	707.74
744.1	719.04
744.542	802.84
744.983	827.79
745.425	868.69
745.866	856.14
746.307	758.49
746.749	839.14
747.19	1211.09
747.632	2375.74
748.073	4404.19
748.514	6044.99
748.956	8016.64
749.397	9382.19
749.838	6467.69
750.279	6189.04
750.72	3167.44
751.162	1338.04
751.603	768.74
752.044	620.89
752.485	552.34
752.926	516.94
753.367	489.89
753.808	484.74
754.249	472.64
754.69	465.79
755.131	463.44
755.572	459.39
756.013	457.09
756.453	462.59
756.894	471.14
757.335	476.99
757.776	483.04
758.216	503.59
758.657	524.79
759.098	577.99
759.538	701.74
759.979	1016.94
760.42	2077.74
760.86	5337.14
761.301	10942.79
761.741	12770.84
762.182	14642.19
762.622	9508.89
763.063	3407.29
763.503	1494.49
763.943	1127.64
764.384	1200.79
764.824	1136.74
765.264	1118.99
765.705	800.64
766.145	584.34
766.585	522.44
767.025	553.89
767.465	720.29
767.906	863.84
768.346	892.14
768.786	935.94
769.226	982.89
769.666	1690.29
770.106	3703.94
770.546	5202.99
770.986	5881.04
771.426	4427.49
771.866	1842.99
772.306	843.19
772.745	533.14
773.185	458.49
773.625	459.34
774.065	532.69
774.505	876.44
774.944	1714.54
775.384	2577.09
775.824	2938.99
776.263	2412.29
776.703	1183.54
777.142	602.59
777.582	425.99
778.021	376.44
778.461	359.39
778.9	344.69
779.34	321.44
779.779	302.49
780.219	300.44
780.658	294.44
781.097	291.99
781.537	280.34
781.976	277.19
782.415	275.74
782.855	279.89
783.294	278.64
783.733	268.84
784.172	280.04
784.611	277.19
785.05	284.29
785.489	288.89
785.928	294.14
786.367	308.29
786.806	319.29
787.245	336.19
787.684	356.74
788.123	352.94
788.562	336.64
789.001	320.19
789.44	314.64
789.879	312.39
790.317	325.04
790.756	341.74
791.195	389.19
791.634	519.79
792.072	956.64
792.511	2354.29
792.95	4303.64
793.388	5205.49
793.827	3351.74
794.265	1525.09
794.704	728.54
795.142	452.19
795.581	370.94
796.019	336.19
796.458	335.79
796.896	350.04
797.334	397.94
797.773	535.34
798.211	1026.24
798.649	2142.19
799.087	3597.04
799.526	5051.09
799.964	5196.94
800.402	3565.49
800.84	1599.34
801.278	787.99
801.716	479.59
802.154	387.84
802.592	365.69
803.03	367.49
803.468	372.49
803.906	377.29
804.344	369.44
804.782	358.34
805.22	364.99
805.658	378.74
806.096	398.89
806.533	441.79
806.971	575.89
807.409	834.74
807.847	1670.39
808.284	4293.69
808.722	7456.39
809.16	10492.29
809.597	14033.69
810.035	15540.94
810.472	11285.39
810.91	4789.14
811.347	2125.44
811.785	1002.44
812.222	631.79
812.66	486.24
813.097	416.24
813.535	365.69
813.972	325.49
814.409	300.09
814.846	289.89
815.284	274.69
815.721	275.39
816.158	297.34
816.595	381.89
817.032	465.79
817.47	434.99
817.907	333.99
818.344	295.54
818.781	283.59
819.218	331.29
819.655	474.74
820.092	609.54
820.529	562.19
820.966	473.99
821.403	339.94
821.839	304.24
822.276	319.24
822.713	369.39
823.15	351.74
823.587	383.14
824.023	695.49
824.46	1751.59
824.897	3051.24
825.333	2351.99
825.77	1073.09
826.206	563.04
826.643	329.79
827.08	250.99
827.516	219.69
827.953	209.09
828.389	192.54
828.825	182.19
829.262	179.99
829.698	169.59
830.135	165.19
830.571	159.69
831.007	167.24
831.443	167.44
831.88	167.84
832.316	179.79
832.752	168.59
833.188	172.84
833.624	179.79
834.06	179.84
834.497	181.49
834.933	184.94
835.369	197.19
835.805	209.89
836.241	215.84
836.677	238.89
837.112	282.94
837.548	346.89
837.984	506.24
838.42	1107.19
838.856	3087.54
839.292	6087.49
839.727	4438.74
840.163	3011.19
840.599	4596.04
841.034	7010.74
841.47	3475.09
841.906	1691.34
842.341	951.29
842.777	814.89
843.212	944.74
843.648	557.74
844.083	353.09
844.519	246.84
844.954	200.04
845.39	169.19
845.825	169.04
846.261	155.79
846.696	150.84
847.131	140.04
847.566	145.94
848.002	148.84
848.437	164.39
848.872	166.69
849.307	212.09
849.742	386.99
850.177	1005.59
850.613	2141.19
851.048	1511.99
851.483	694.94
851.918	392.14
852.353	228.64
852.788	178.39
853.223	147.74
853.657	131.79
854.092	123.49
854.527	119.49
854.962	122.44
855.397	140.54
855.832	122.14
856.266	108.79
856.701	108.29
857.136	112.39
857.57	126.14
858.005	149.59
858.44	137.59
858.874	132.09
859.309	136.39
859.743	132.44
860.178	126.94
860.612	139.09
861.047	175.49
861.481	227.29
861.915	161.69
862.35	127.69
862.784	109.04
863.218	102.14
863.653	111.29
864.087	132.89
864.521	174.49
864.955	294.94
865.39	490.39
865.824	358.34
866.258	411.54
866.692	594.99
867.126	427.24
867.56	236.24
867.994	152.39
868.428	140.44
868.862	165.09
869.296	155.34
869.73	181.99
870.164	157.14
870.598	142.89
871.031	105.49
871.465	96.39
871.899	85.34
872.333	76.69
872.766	82.69
873.2	81.74
873.634	78.39
874.067	87.09
874.501	82.69
874.935	88.89
875.368	84.49
875.802	78.94
876.235	75.94
876.669	73.24
877.102	63.59
877.535	62.09
877.969	65.44
878.402	65.94
878.836	63.79
879.269	64.34
879.702	66.29
880.135	69.54
880.569	67.64
881.002	67.09
881.435	64.59
881.868	60.09
882.301	56.69
882.734	57.54
883.167	57.19
883.601	57.14
884.034	52.19
884.467	48.89
884.899	58.44
885.332	48.99
885.765	50.89
886.198	50.79
886.631	51.49
887.064	54.74
887.497	52.04
887.929	56.34
888.362	51.44
888.795	53.84
889.228	48.89
889.66	52.04
890.093	52.14
890.526	51.64
890.958	52.34
891.391	49.04
891.823	50.29
892.256	49.09
892.688	49.59
893.121	43.24
893.553	51.59
893.985	45.59
894.418	39.29
894.85	46.59
895.282	49.99
895.715	44.49
896.147	38.39
896.579	44.49
897.011	43.74
897.444	41.44
897.876	39.39
898.308	44.09
898.74	48.49
899.172	44.14
899.604	48.99
900.036	47.94
900.468	48.74
900.9	48.54
901.332	60.09
901.764	56.89
902.196	55.09
902.628	56.44
903.06	80.04
903.491	82.69
903.923	67.94
904.355	68.84
904.787	75.94
905.218	65.59
905.65	61.39
906.082	56.19
906.513	56.29
906.945	58.49
907.376	56.09
907.808	64.74
908.239	68.89
908.671	66.34
909.102	72.89
909.534	99.39
909.965	195.89
910.397	499.94
910.828	1433.24
911.259	865.54
911.691	467.44
912.122	270.69
912.553	136.89
912.984	78.04
913.415	72.19
913.847	60.74
914.278	56.29
914.709	51.94
915.14	48.44
915.571	49.69
916.002	48.44
916.433	43.39
916.864	41.44
917.295	46.09
917.726	54.24
918.157	73.44
918.587	69.54
919.018	64.19
919.449	62.39
919.88	71.19
920.311	108.49
920.741	301.89
921.172	535.44
921.603	263.04
922.033	168.14
922.464	106.74
922.895	71.49
923.325	56.19
923.756	52.54
924.186	71.64
924.617	115.24
925.047	175.79
925.478	157.09
925.908	110.14
926.338	77.14
926.769	58.54
927.199	49.49
927.629	47.19
928.06	48.09
928.49	48.29
928.92	39.84
929.35	33.69
929.78	26.04
930.21	27.24
930.641	27.04
931.071	26.19
931.501	28.49
931.931	27.34
932.361	22.39
932.791	28.19
933.221	29.29
933.651	45.29
934.08	67.79
934.51	45.29
934.94	37.69
935.37	27.89
935.8	21.64
936.229	19.69
936.659	24.09
937.089	39.94
937.519	55.14
937.948	62.14
938.378	40.94
938.807	26.54
939.237	20.39
939.666	20.49
940.096	14.44
940.525	7.24
940.955	15.94
941.384	12.34
941.814	11.59
942.243	13.94
942.672	12.29
943.102	8.89
943.531	6.34
943.96	10.69
944.39	15.44
944.819	16.94
945.248	12.84
945.677	12.24
946.106	11.89
946.535	10.99
946.964	8.79
947.393	6.99
947.822	7.44
948.251	20.84
948.68	15.64
949.109	12.64
949.538	12.49
949.967	12.49
950.396	12.49
950.825	10.14
951.254	11.79
951.682	9.54
952.111	6.44
952.54	10.19
952.969	11.39
953.397	5.89
953.826	5.39
954.254	10.49
954.683	5.44
955.112	6.84
955.54	5.74
955.969	9.74
956.397	9.09
956.826	10.09
957.254	4.89
957.682	7.94
958.111	15.59
958.539	10.44
958.967	6.74
959.396	9.99
959.824	8.64
960.252	12.84
960.68	9.34
961.109	14.74
961.537	16.74
961.965	8.44
962.393	8.09
962.821	7.29
963.249	10.04
963.677	18.44
964.105	89.34
964.533	151.79
964.961	73.44
965.389	46.19
965.817	22.64
966.245	16.34
966.672	8.29
967.1	8.39
967.528	4.74
967.956	4.79
968.383	7.84
968.811	9.24
969.239	8.19
969.666	8.04
970.094	4.09
970.522	3.44
970.949	9.54
971.377	1.74
971.804	3.39
972.232	3.54
972.659	4.74
973.087	5.19
973.514	3.19
973.941	4.29
974.369	4.74
974.796	1.74
975.223	1.49
975.651	4.59
976.078	6.69
976.505	15.24
976.932	37.29
977.359	47.74
977.786	29.89
978.214	20.69
978.641	6.74
979.068	6.64
979.495	6.24
979.922	5.79
980.349	11.19
980.776	5.19
981.202	4.29
981.629	8.24
982.056	9.39
982.483	2.24
982.91	9.19
983.337	-2.86
983.763	5.59
984.19	6.24
984.617	0.99
985.043	8.89
985.47	8.94
985.897	9.89
986.323	7.89
986.75	6.89
987.176	0.44
987.603	6.49
988.029	3.94
988.456	4.54
988.882	4.49
989.308	-1.31
989.735	5.69
990.161	6.39
990.587	1.39
991.014	4.19
991.44	7.74
991.866	1.94
992.292	2.39
992.719	4.04
993.145	4.04
993.571	6.89
993.997	6.64
994.423	8.29
994.849	3.89
995.275	9.29
995.701	4.99
996.127	0.59
996.553	5.89
996.979	0.34
997.405	8.34
997.83	2.99
998.256	6.79
998.682	3.94
999.108	1.94
999.534	0.04
999.959	-3.91
1000.385	4.69
1000.811	0.24
1001.236	-2.81
1001.662	0.99
1002.087	5.64
1002.513	3.39
1002.938	-0.26
1003.364	0.59
1003.789	4.34
1004.215	4.44
1004.64	3.09
1005.066	7.44
1005.491	6.49
1005.916	2.29
1006.342	5.54
1006.767	4.04
1007.192	5.89
1007.617	5.44
1008.042	2.44
1008.468	2.29
1008.893	5.99
1009.318	9.24
1009.743	12.74
1010.168	23.29
1010.593	17.39
1011.018	17.44
1011.443	10.14
1011.868	13.19
1012.293	6.14
1012.718	1.89
1013.143	3.79
1013.567	3.19
1013.992	5.59
1014.417	4.79
1014.842	6.49
1015.267	2.14
1015.691	4.89
1016.116	3.69
1016.541	9.49
1016.965	2.64
1017.39	1.14
1017.814	-2.56
1018.239	-0.51
1018.663	-4.81
1019.088	-4.56
1019.512	2.44
1019.937	-1.91
1020.361	1.84
1020.785	-3.56
1021.21	-1.76
1021.634	2.34
1022.058	2.39
1022.483	-4.61
1022.907	-1.21
1023.331	-1.76
1023.755	1.69
1024.179	0.59
1024.604	0.14
1025.028	-0.76
1025.452	2.24
1025.876	3.39
1026.3	2.39
1026.724	-0.06
1027.148	6.64
1027.572	-2.96
1027.996	1.89
1028.42	1.64
1028.843	2.44
1029.267	-1.76
1029.691	5.09
1030.115	-0.51
1030.539	0.84
1030.962	0.84
1031.386	-0.21
1031.81	-2.81
1032.233	0.49
1032.657	-2.66
1033.08	2.74
1033.504	1.09
1033.927	2.19
1034.351	-2.51
1034.774	1.34
1035.198	-0.91
1035.621	-0.71
1036.045	2.69
1036.468	5.64
1036.891	-1.96
1037.315	4.49
1037.738	2.89
1038.161	1.19
1038.584	-0.96
1039.008	1.34
1039.431	2.09
1039.854	-6.26
1040.277	0.04
1040.7	-0.36
1041.123	1.64
1041.546	2.94
1041.969	0.94
1042.392	3.99
1042.815	-8.71
1043.238	-0.91
1043.661	-1.66
1044.084	-4.66
1044.507	0.09
1044.93	0.89
1045.352	-2.46
1045.775	2.19
1046.198	1.24
1046.621	5.99
1047.043	-0.01
1047.466	5.64
1047.889	2.19
1048.311	9.49
1048.734	-1.66
1049.156	0.79
1049.579	-4.36
1050.001	0.34
1050.424	0.39
1050.846	-5.26
1051.269	-4.91
1051.691	-4.86
1052.113	6.94
1052.536	-0.61
1052.958	-3.91
1053.38	-1.11
1053.802	-1.81
1054.225	-2.01
1054.647	1.29
1055.069	-1.96
1055.491	1.04
1055.913	-2.01
1056.335	-8.11
1056.757	-1.91
1057.179	-1.81
1057.601	-4.76
1058.023	-0.51
1058.445	-7.06
1058.867	3.54
1059.289	0.94
1059.711	-2.26
1060.133	1.39
1060.555	-4.01
1060.976	4.74
1061.398	-1.31
1061.82	-1.76
1062.241	-3.66
1062.663	1.19
1063.085	-1.91
1063.506	-7.71
1063.928	-7.86
1064.35	0.89
1064.771	1.04
1065.193	-5.41
1065.614	1.64
1066.035	1.64
1066.457	6.04
1066.878	2.09
1067.3	-0.21
1067.721	0.04
1068.142	2.14
1068.564	3.79
1068.985	-0.06
1069.406	-8.71
1069.827	0.54
1070.248	0.34
1070.67	-4.31
1071.091	-3.06
1071.512	-1.36
1071.933	-3.01
1072.354	-7.56
1072.775	-1.86
1073.196	1.49
1073.617	-6.51
1074.038	0.54
1074.459	-6.46
1074.88	-0.41
1075.3	0.79
1075.721	0.34
1076.142	-2.21
1076.563	-3.76
1076.983	1.54
1077.404	-3.31
1077.825	0.49
1078.246	-5.71
1078.666	-3.36
1079.087	-2.76
1079.507	-4.51
1079.928	-4.21
1080.348	-1.36
1080.769	-1.11
1081.189	-5.56
1081.61	-5.71
1082.03	3.44
1082.451	-0.11
1082.871	-7.36
1083.291	-3.16
1083.711	-1.01
1084.132	-3.46
1084.552	-1.86
1084.972	-5.46
1085.392	-6.36
1085.813	-4.16
1086.233	-3.46
1086.653	2.24
1087.073	-3.11
1087.493	-4.16
1087.913	-5.86
1088.333	-5.01
1088.753	-0.31
1089.173	3.09
1089.593	0.04
1090.013	-2.16
1090.433	-5.86
1090.852	0.39
1091.272	-7.26
1091.692	0.24
1092.112	-2.51
1092.531	-6.21
1092.951	-3.01
1093.371	-2.31
1093.79	-0.71
1094.21	-3.46
1094.63	2.09
1095.049	-1.71
1095.469	-5.91
1095.888	4.09
1096.308	-0.51
1096.727	-0.61
1097.146	0.89
1097.566	-3.66
1097.985	1.74
1098.405	0.79
1098.824	1.94
1099.243	-2.76
1099.662	-2.96
1100.082	-2.01
1100.501	-1.01
1100.92	2.44
1101.339	4.24
1101.758	3.09
