Data from MSPlasma+Separation6_Subt14_10-14-48-442.txt Node
Date: Fri Jul 21 10:14:48 EDT 2017
User: Ender
Spectrometer: HR+D1039
Trigger mode: 0
Integration Time (sec): 6.430000E-3
Scans to average: 20
Electric dark correction enabled: true
Nonlinearity correction enabled: false
Boxcar width: 0
XAxis mode: Wavelengths
Number of Pixels in Spectrum: 2048
>>>>>Begin Spectral Data<<<<<
187.836	-0.89
188.309	-0.89
188.782	-0.89
189.255	3.36
189.728	3.96
190.201	-2.74
190.674	0.06
191.147	0.71
191.619	-3.49
192.092	-1.59
192.565	-2.79
193.038	1.01
193.511	3.06
193.984	-2.34
194.456	1.96
194.929	-1.94
195.402	-1.09
195.874	2.71
196.347	1.76
196.82	1.11
197.292	-1.49
197.765	-0.04
198.237	-4.99
198.71	-4.94
199.182	-0.64
199.655	3.81
200.127	-1.49
200.6	0.61
201.072	3.26
201.544	-2.49
202.017	3.36
202.489	2.76
202.961	-2.14
203.433	1.56
203.906	-2.84
204.378	-2.99
204.85	3.21
205.322	2.91
205.794	5.26
206.266	4.81
206.739	7.51
207.211	-0.59
207.683	1.61
208.155	2.61
208.627	-0.49
209.099	6.31
209.57	5.11
210.042	3.31
210.514	6.11
210.986	13.96
211.458	23.86
211.93	12.21
212.402	4.06
212.873	1.06
213.345	-2.59
213.817	2.46
214.288	-0.59
214.76	1.86
215.232	0.76
215.703	3.96
216.175	6.56
216.646	5.01
217.118	3.21
217.589	-1.89
218.061	2.81
218.532	4.96
219.004	10.26
219.475	13.56
219.946	28.66
220.418	37.91
220.889	25.66
221.36	17.66
221.832	11.81
222.303	4.66
222.774	7.61
223.245	1.61
223.717	1.91
224.188	7.41
224.659	9.76
225.13	1.61
225.601	7.46
226.072	6.31
226.543	12.41
227.014	12.31
227.485	10.81
227.956	9.66
228.427	15.46
228.898	11.71
229.369	9.91
229.839	9.06
230.31	15.46
230.781	16.31
231.252	20.11
231.722	26.26
232.193	33.41
232.664	39.96
233.135	59.96
233.605	61.11
234.076	50.91
234.546	39.36
235.017	44.66
235.487	45.06
235.958	40.81
236.428	64.71
236.899	104.86
237.369	121.46
237.84	86.71
238.31	109.81
238.78	110.06
239.251	110.26
239.721	111.36
240.191	85.11
240.662	53.56
241.132	40.46
241.602	50.61
242.072	72.61
242.542	86.16
243.013	57.96
243.483	56.51
243.953	37.21
244.423	40.71
244.893	50.46
245.363	57.66
245.833	54.36
246.303	59.16
246.773	78.01
247.243	76.66
247.712	89.21
248.182	105.71
248.652	112.71
249.122	169.16
249.592	312.96
250.061	468.21
250.531	753.81
251.001	573.81
251.471	473.01
251.94	356.06
252.41	194.06
252.879	134.26
253.349	104.01
253.818	85.46
254.288	73.81
254.757	74.36
255.227	96.26
255.696	77.36
256.166	69.76
256.635	72.86
257.105	87.86
257.574	126.76
258.043	128.41
258.513	228.41
258.982	287.01
259.451	200.56
259.92	199.51
260.389	190.01
260.859	134.36
261.328	160.56
261.797	240.46
262.266	209.06
262.735	99.61
263.204	60.91
263.673	51.56
264.142	44.11
264.611	50.26
265.08	56.56
265.549	57.36
266.018	54.36
266.487	50.81
266.955	47.41
267.424	58.76
267.893	58.11
268.362	55.31
268.83	53.01
269.299	62.56
269.768	68.41
270.236	83.71
270.705	89.36
271.174	79.76
271.642	93.46
272.111	113.01
272.579	176.61
273.048	273.86
273.516	351.31
273.985	355.36
274.453	269.96
274.922	165.61
275.39	99.56
275.858	95.91
276.327	80.16
276.795	80.31
277.263	91.71
277.731	126.96
278.2	251.91
278.668	337.31
279.136	261.21
279.604	162.51
280.072	91.06
280.54	79.36
281.008	83.06
281.477	80.01
281.945	89.56
282.413	83.01
282.881	87.11
283.348	90.01
283.816	92.66
284.284	100.86
284.752	100.81
285.22	95.91
285.688	107.61
286.156	179.46
286.623	490.21
287.091	963.56
287.559	496.81
288.026	192.06
288.494	119.86
288.962	98.91
289.429	93.06
289.897	83.91
290.364	80.96
290.832	86.21
291.3	88.31
291.767	87.21
292.234	91.31
292.702	97.86
293.169	103.76
293.637	108.41
294.104	110.81
294.571	104.26
295.039	103.71
295.506	102.51
295.973	108.71
296.44	100.71
296.908	112.36
297.375	129.71
297.842	122.66
298.309	102.41
298.776	107.76
299.243	113.96
299.71	110.86
300.177	104.71
300.644	118.76
301.111	130.96
301.578	122.91
302.045	107.06
302.512	108.36
302.979	114.26
303.446	124.06
303.913	119.46
304.379	129.21
304.846	145.11
305.313	159.71
305.78	187.56
306.246	229.06
306.713	238.26
307.18	209.16
307.646	231.46
308.113	206.36
308.579	158.11
309.046	156.86
309.512	156.86
309.979	147.96
310.445	135.11
310.912	143.01
311.378	141.51
311.845	144.96
312.311	135.21
312.777	135.21
313.244	147.11
313.71	149.91
314.176	166.86
314.642	190.51
315.109	217.86
315.575	204.91
316.041	187.46
316.507	181.16
316.973	203.96
317.439	189.26
317.905	211.01
318.371	209.66
318.837	196.36
319.303	208.06
319.769	192.86
320.235	212.26
320.701	244.91
321.167	261.36
321.633	314.06
322.099	434.66
322.564	576.36
323.03	453.51
323.496	319.31
323.962	299.71
324.427	280.96
324.893	245.06
325.359	236.61
325.824	209.91
326.29	219.71
326.755	216.26
327.221	220.31
327.686	230.01
328.152	212.96
328.617	200.16
329.083	202.21
329.548	211.46
330.014	226.21
330.479	237.46
330.944	277.76
331.41	319.11
331.875	308.81
332.34	318.51
332.805	368.71
333.271	468.51
333.736	619.56
334.201	553.51
334.666	413.86
335.131	470.96
335.596	373.06
336.061	390.76
336.526	396.46
336.991	348.16
337.456	375.81
337.921	302.21
338.386	248.46
338.851	223.36
339.316	213.01
339.781	210.06
340.246	208.21
340.711	209.46
341.175	208.86
341.64	214.16
342.105	215.71
342.569	235.41
343.034	249.51
343.499	260.16
343.963	248.26
344.428	246.26
344.893	253.11
345.357	257.81
345.822	248.21
346.286	254.06
346.751	265.11
347.215	262.36
347.679	270.51
348.144	296.71
348.608	287.96
349.073	301.31
349.537	329.31
350.001	328.16
350.465	304.76
350.93	292.66
351.394	292.76
351.858	289.86
352.322	303.96
352.786	303.11
353.25	295.46
353.715	307.16
354.179	321.96
354.643	336.11
355.107	340.91
355.571	360.56
356.035	370.06
356.498	361.61
356.962	395.61
357.426	382.11
357.89	337.26
358.354	324.61
358.818	319.86
359.281	323.31
359.745	349.66
360.209	336.51
360.673	347.91
361.136	349.36
361.6	345.56
362.064	363.81
362.527	371.86
362.991	369.56
363.454	375.81
363.918	381.16
364.381	367.51
364.845	358.86
365.308	358.61
365.772	354.76
366.235	365.61
366.698	385.21
367.162	457.16
367.625	512.41
368.088	417.56
368.552	385.86
369.015	389.06
369.478	416.71
369.941	427.31
370.404	433.86
370.867	462.81
371.331	466.01
371.794	468.16
372.257	531.21
372.72	558.91
373.183	526.11
373.646	530.36
374.109	526.26
374.572	614.06
375.035	712.86
375.497	548.31
375.96	447.16
376.423	426.16
376.886	422.31
377.349	430.41
377.811	441.16
378.274	446.31
378.737	454.41
379.199	465.61
379.662	479.81
380.125	513.26
380.587	560.56
381.05	601.16
381.512	596.91
381.975	575.86
382.437	577.01
382.9	574.36
383.362	569.51
383.825	606.91
384.287	766.21
384.75	858.26
385.212	755.96
385.674	623.51
386.136	572.21
386.599	561.91
387.061	587.16
387.523	616.26
387.985	620.96
388.447	640.76
388.91	713.16
389.372	863.66
389.834	811.31
390.296	676.31
390.758	685.91
391.22	706.06
391.682	865.51
392.144	1348.96
392.606	1261.46
393.068	735.26
393.529	669.11
393.991	647.66
394.453	637.66
394.915	667.36
395.377	817.86
395.838	1008.71
396.3	715.16
396.762	551.56
397.224	519.61
397.685	515.26
398.147	518.71
398.608	518.76
399.07	527.21
399.531	521.06
399.993	527.11
400.454	540.51
400.916	531.01
401.377	554.16
401.839	553.56
402.3	558.46
402.762	586.41
403.223	649.01
403.684	655.81
404.145	606.01
404.607	588.56
405.068	591.36
405.529	605.81
405.99	615.56
406.451	618.81
406.913	609.76
407.374	611.96
407.835	621.66
408.296	642.66
408.757	641.66
409.218	666.96
409.679	668.86
410.14	680.16
410.601	709.11
411.062	739.76
411.522	848.01
411.983	939.56
412.444	802.56
412.905	702.06
413.366	702.86
413.826	718.41
414.287	804.56
414.748	951.76
415.208	976.31
415.669	811.01
416.13	748.81
416.59	724.16
417.051	759.01
417.511	780.86
417.972	844.61
418.432	900.66
418.893	1009.71
419.353	956.36
419.814	746.26
420.274	675.16
420.734	668.96
421.195	709.21
421.655	741.91
422.115	718.61
422.576	696.96
423.036	695.31
423.496	714.56
423.956	751.81
424.416	805.36
424.876	914.61
425.336	907.16
425.797	903.96
426.257	902.21
426.717	847.61
427.177	801.76
427.637	826.51
428.097	867.46
428.556	912.01
429.016	992.41
429.476	979.31
429.936	946.31
430.396	923.11
430.856	930.66
431.315	959.51
431.775	1025.91
432.235	1078.76
432.694	1095.16
433.154	1031.86
433.614	1004.01
434.073	969.86
434.533	882.31
434.993	854.56
435.452	858.11
435.912	844.71
436.371	836.71
436.83	839.06
437.29	845.21
437.749	808.86
438.209	790.51
438.668	803.71
439.127	805.46
439.587	794.01
440.046	760.26
440.505	775.26
440.964	775.61
441.424	785.56
441.883	807.11
442.342	769.96
442.801	742.06
443.26	768.81
443.719	758.36
444.178	744.91
444.637	759.31
445.096	750.46
445.555	767.66
446.014	764.51
446.473	750.81
446.932	747.51
447.391	762.11
447.849	779.41
448.308	768.26
448.767	788.51
449.226	803.66
449.685	810.76
450.143	841.36
450.602	844.61
451.061	807.41
451.519	822.76
451.978	838.76
452.436	867.81
452.895	831.06
453.353	802.91
453.812	812.06
454.27	800.21
454.729	781.96
455.187	787.41
455.646	794.21
456.104	804.46
456.562	795.56
457.021	784.41
457.479	753.51
457.937	774.51
458.395	800.76
458.854	791.16
459.312	778.71
459.77	788.41
460.228	799.96
460.686	805.46
461.144	814.66
461.602	803.56
462.06	799.86
462.518	823.01
462.976	824.76
463.434	828.61
463.892	833.51
464.35	852.91
464.808	866.31
465.266	876.36
465.724	896.91
466.181	893.36
466.639	890.36
467.097	921.91
467.555	948.41
468.012	944.41
468.47	954.51
468.928	989.51
469.385	1009.56
469.843	1023.46
470.3	1013.41
470.758	1050.41
471.215	1060.56
471.673	1087.41
472.13	1118.46
472.588	1140.46
473.045	1139.36
473.503	1163.41
473.96	1212.46
474.417	1230.01
474.875	1279.61
475.332	1327.76
475.789	1363.41
476.246	1390.26
476.704	1460.86
477.161	1491.16
477.618	1545.81
478.075	1636.46
478.532	1762.11
478.989	1903.01
479.446	2106.56
479.903	2231.96
480.36	2459.21
480.817	2615.41
481.274	2828.51
481.731	3090.21
482.188	3343.71
482.645	3604.91
483.102	3819.21
483.558	4083.61
484.015	4287.01
484.472	4301.96
484.929	4176.86
485.385	3981.96
485.842	3869.91
486.299	3668.41
486.755	3299.06
487.212	2942.61
487.668	2646.66
488.125	2449.71
488.582	2250.51
489.038	2163.56
489.494	2083.66
489.951	2023.16
490.407	1969.11
490.864	1944.81
491.32	1891.36
491.776	1858.86
492.233	1862.31
492.689	1840.41
493.145	1809.71
493.602	1794.76
494.058	1829.01
494.514	1866.66
494.97	1871.01
495.426	1876.26
495.882	1892.46
496.338	1907.01
496.794	1973.21
497.251	1994.01
497.707	1992.16
498.163	1995.71
498.618	1992.76
499.074	2003.46
499.53	2045.91
499.986	2075.26
500.442	2104.56
500.898	2113.96
501.354	2145.96
501.809	2157.86
502.265	2186.21
502.721	2303.36
503.177	2356.91
503.632	2236.41
504.088	2247.71
504.543	2472.51
504.999	2302.36
505.455	2034.51
505.91	1930.11
506.366	1906.41
506.821	1899.86
507.277	1875.76
507.732	1886.66
508.187	1881.06
508.643	1907.86
509.098	1905.71
509.553	1923.06
510.009	1943.56
510.464	1990.76
510.919	2012.56
511.375	2027.86
511.83	2049.41
512.285	2099.86
512.74	2150.86
513.195	2174.56
513.65	2208.66
514.105	2254.36
514.56	2255.01
515.015	2304.51
515.47	2334.16
515.925	2326.16
516.38	2306.66
516.835	2302.61
517.29	2281.11
517.745	2300.46
518.2	2253.81
518.655	2200.41
519.109	2160.26
519.564	2142.66
520.019	2134.76
520.474	2107.16
520.928	2090.01
521.383	2075.71
521.838	2083.26
522.292	2055.76
522.747	2034.01
523.201	2030.66
523.656	2003.81
524.11	1996.16
524.565	1992.51
525.019	1997.01
525.474	2008.46
525.928	2005.11
526.382	1982.61
526.837	1957.11
527.291	1973.31
527.745	1964.51
528.2	1955.56
528.654	1941.06
529.108	1953.46
529.562	1962.91
530.016	1951.06
530.47	1957.21
530.925	1963.41
531.379	1969.21
531.833	1989.46
532.287	1975.96
532.741	1955.56
533.195	1966.96
533.649	1970.86
534.103	1974.26
534.556	1944.41
535.01	1974.31
535.464	1963.36
535.918	1972.96
536.372	1976.31
536.826	1965.01
537.279	1954.51
537.733	1960.01
538.187	1964.66
538.64	1975.71
539.094	1992.61
539.548	2026.36
540.001	2000.21
540.455	2018.66
540.908	2021.46
541.362	2055.21
541.815	2068.41
542.269	2102.36
542.722	2094.86
543.175	2123.56
543.629	2136.96
544.082	2153.41
544.536	2190.41
544.989	2180.86
545.442	2179.21
545.895	2178.46
546.349	2179.91
546.802	2191.76
547.255	2194.71
547.708	2205.01
548.161	2224.06
548.614	2219.91
549.067	2240.36
549.52	2216.61
549.973	2189.06
550.426	2171.31
550.879	2159.06
551.332	2152.71
551.785	2180.21
552.238	2194.96
552.691	2195.51
553.144	2234.21
553.596	2264.66
554.049	2289.66
554.502	2346.56
554.955	2377.01
555.407	2417.26
555.86	2381.01
556.313	2364.26
556.765	2341.16
557.218	2321.21
557.67	2316.76
558.123	2278.71
558.576	2265.86
559.028	2269.36
559.48	2295.41
559.933	2275.61
560.385	2202.36
560.838	2131.96
561.29	2082.81
561.742	2065.61
562.195	2021.11
562.647	2011.91
563.099	2007.96
563.551	2006.81
564.004	2025.31
564.456	2011.51
564.908	1956.81
565.36	1919.01
565.812	1894.86
566.264	1868.11
566.716	1848.01
567.168	1814.71
567.62	1834.11
568.072	1807.56
568.524	1784.06
568.976	1784.21
569.428	1766.66
569.88	1756.21
570.332	1768.51
570.784	1769.01
571.235	1757.66
571.687	1773.66
572.139	1778.06
572.59	1782.81
573.042	1793.46
573.494	1795.61
573.945	1765.51
574.397	1742.06
574.849	1734.01
575.3	1737.76
575.752	1709.41
576.203	1701.46
576.655	1704.21
577.106	1690.41
577.557	1675.36
578.009	1668.31
578.46	1673.56
578.912	1657.16
579.363	1667.86
579.814	1674.11
580.265	1654.66
580.717	1662.21
581.168	1656.96
581.619	1671.11
582.07	1692.16
582.521	1681.81
582.972	1680.81
583.423	1709.76
583.875	1762.51
584.326	1866.21
584.777	2064.56
585.227	2298.76
585.678	2483.26
586.129	2526.81
586.58	2583.06
587.031	2594.91
587.482	2779.56
587.933	3313.46
588.384	3014.56
588.834	2397.91
589.285	1968.51
589.736	1912.46
590.186	1906.81
590.637	1888.81
591.088	1842.96
591.538	1825.11
591.989	1808.61
592.439	1793.81
592.89	1789.26
593.34	1798.36
593.791	1805.61
594.241	1811.36
594.692	1841.26
595.142	1810.96
595.593	1776.56
596.043	1785.36
596.493	1815.26
596.943	1860.26
597.394	1836.56
597.844	1810.36
598.294	1842.46
598.744	1898.31
599.195	1987.21
599.645	2095.66
600.095	2198.66
600.545	2303.41
600.995	2402.86
601.445	2476.01
601.895	2610.31
602.345	2679.01
602.795	2636.96
603.245	2506.46
603.695	2374.01
604.145	2239.46
604.594	2118.96
605.044	2019.81
605.494	1895.06
605.944	1807.81
606.393	1766.86
606.843	1739.11
607.293	1757.36
607.743	1748.76
608.192	1759.91
608.642	1766.81
609.091	1768.31
609.541	1768.16
609.99	1767.31
610.44	1729.01
610.889	1719.61
611.339	1698.01
611.788	1679.26
612.238	1698.96
612.687	1725.71
613.136	1748.06
613.586	1768.01
614.035	1779.36
614.484	1795.96
614.933	1805.96
615.383	1757.86
615.832	1697.36
616.281	1657.86
616.73	1613.86
617.179	1570.26
617.628	1536.11
618.077	1517.51
618.526	1490.86
618.975	1471.81
619.424	1457.41
619.873	1464.11
620.322	1458.21
620.771	1442.86
621.22	1420.71
621.669	1391.06
622.118	1383.11
622.567	1374.51
623.015	1343.51
623.464	1354.71
623.913	1325.16
624.361	1335.01
624.81	1330.81
625.259	1331.06
625.707	1297.51
626.156	1313.36
626.604	1328.16
627.053	1336.46
627.501	1323.01
627.95	1338.66
628.398	1357.56
628.847	1339.86
629.295	1351.56
629.744	1373.46
630.192	1396.81
630.64	1520.71
631.089	1682.66
631.537	1757.36
631.985	1755.01
632.433	1832.41
632.881	1837.26
633.33	2222.91
633.778	2422.21
634.226	1687.26
634.674	1555.81
635.122	1542.91
635.57	1564.86
636.018	1827.06
636.466	1478.81
636.914	1307.61
637.362	1291.51
637.81	1313.61
638.258	1351.41
638.705	1362.51
639.153	1405.51
639.601	1404.96
640.049	1433.21
640.497	1473.91
640.944	1517.91
641.392	1452.16
641.84	1370.56
642.287	1307.96
642.735	1306.71
643.182	1287.91
643.63	1294.16
644.078	1298.16
644.525	1313.86
644.973	1349.01
645.42	1371.01
645.867	1392.36
646.315	1412.61
646.762	1463.36
647.21	1509.11
647.657	1593.06
648.104	1658.96
648.551	1722.41
648.999	1868.26
649.446	2065.86
649.893	2330.06
650.34	2754.66
650.787	3438.86
651.234	4486.66
651.682	6316.96
652.129	9065.86
652.576	12989.31
653.023	15534.96
653.47	15538.16
653.917	15538.21
654.363	15538.11
654.81	15535.11
655.257	15535.76
655.704	15535.36
656.151	9714.71
656.598	6289.41
657.044	4445.26
657.491	3442.41
657.938	2778.11
658.385	2349.66
658.831	2054.41
659.278	1836.91
659.724	1678.96
660.171	1562.26
660.618	1454.56
661.064	1361.86
661.511	1306.21
661.957	1269.76
662.404	1233.61
662.85	1218.21
663.296	1200.16
663.743	1173.16
664.189	1162.71
664.635	1158.01
665.082	1133.76
665.528	1123.51
665.974	1090.86
666.42	1087.51
666.867	1102.56
667.313	1120.46
667.759	1178.11
668.205	1168.76
668.651	1191.21
669.097	1144.16
669.543	1264.86
669.989	1176.46
670.435	1021.41
670.881	1013.86
671.327	1048.26
671.773	1130.21
672.219	1209.86
672.665	1284.06
673.11	1325.51
673.556	1337.36
674.002	1366.61
674.448	1374.51
674.893	1173.41
675.339	1027.41
675.785	940.31
676.23	907.26
676.676	865.56
677.122	845.61
677.567	820.66
678.013	800.51
678.458	793.91
678.904	791.31
679.349	789.96
679.794	783.51
680.24	782.81
680.685	777.36
681.131	774.81
681.576	781.66
682.021	779.16
682.466	784.81
682.912	801.21
683.357	835.16
683.802	906.36
684.247	990.06
684.692	1050.46
685.137	1093.41
685.583	1096.51
686.028	1161.96
686.473	1097.06
686.918	953.61
687.363	875.11
687.807	837.91
688.252	797.16
688.697	769.01
689.142	743.46
689.587	748.26
690.032	762.21
690.477	794.36
690.921	839.76
691.366	882.46
691.811	913.16
692.255	982.61
692.7	1204.06
693.145	1743.16
693.589	2642.96
694.034	3127.86
694.478	3299.81
694.923	2993.01
695.367	4248.21
695.812	2606.16
696.256	1112.36
696.701	817.96
697.145	760.91
697.59	734.56
698.034	727.66
698.478	728.76
698.922	730.71
699.367	750.56
699.811	783.31
700.255	854.66
700.699	923.31
701.143	1003.86
701.588	1053.91
702.032	1090.36
702.476	1129.81
702.92	1199.96
703.364	1577.76
703.808	2410.16
704.252	2996.36
704.696	3145.06
705.14	2934.11
705.584	4010.66
706.027	2249.96
706.471	1149.01
706.915	849.11
707.359	761.76
707.803	712.21
708.246	690.91
708.69	687.86
709.134	689.66
709.577	680.76
710.021	685.36
710.465	685.11
710.908	679.86
711.352	706.31
711.795	789.76
712.239	842.11
712.682	867.01
713.126	859.56
713.569	952.96
714.012	789.61
714.456	701.01
714.899	653.76
715.342	613.26
715.786	594.16
716.229	578.51
716.672	558.16
717.115	553.76
717.558	565.81
718.002	583.06
718.445	607.26
718.888	641.86
719.331	651.66
719.774	663.06
720.217	642.31
720.66	611.11
721.103	579.66
721.546	554.31
721.989	541.91
722.432	528.51
722.874	523.81
723.317	532.26
723.76	587.66
724.203	721.21
724.645	952.81
725.088	1122.86
725.531	1084.11
725.974	1186.66
726.416	1062.41
726.859	662.96
727.301	548.71
727.744	526.31
728.187	525.86
728.629	534.16
729.071	553.26
729.514	581.51
729.956	602.56
730.399	616.21
730.841	612.26
731.283	598.11
731.726	582.11
732.168	587.96
732.61	621.21
733.053	670.81
733.495	746.31
733.937	826.86
734.379	974.76
734.821	1254.71
735.263	1981.01
735.705	3568.46
736.148	5198.36
736.59	5132.11
737.032	5511.31
737.474	4566.41
737.916	1763.66
738.357	935.51
738.799	719.71
739.241	666.61
739.683	676.51
740.125	689.46
740.567	690.41
741.008	722.41
741.45	747.86
741.892	771.81
742.334	772.96
742.775	757.31
743.217	725.06
743.658	625.66
744.1	632.41
744.542	712.01
744.983	735.56
745.425	771.86
745.866	766.26
746.307	680.41
746.749	744.01
747.19	1076.41
747.632	2112.41
748.073	3888.41
748.514	5330.46
748.956	7064.51
749.397	8195.11
749.838	5618.86
750.279	5330.91
750.72	2764.31
751.162	1177.96
751.603	679.26
752.044	548.76
752.485	479.16
752.926	456.11
753.367	438.61
753.808	422.66
754.249	415.56
754.69	414.36
755.131	408.16
755.572	413.71
756.013	408.96
756.453	414.21
756.894	416.66
757.335	420.46
757.776	432.86
758.216	445.31
758.657	468.76
759.098	514.51
759.538	630.76
759.979	912.56
760.42	1855.46
760.86	4741.76
761.301	9704.51
761.741	11245.11
762.182	12742.41
762.622	8257.46
763.063	3010.91
763.503	1345.96
763.943	1045.71
764.384	1146.31
764.824	1091.56
765.264	1086.31
765.705	757.21
766.145	538.01
766.585	477.16
767.025	509.91
767.465	674.81
767.906	825.46
768.346	861.26
768.786	888.96
769.226	888.61
769.666	1514.51
770.106	3273.11
770.546	4561.86
770.986	5080.71
771.426	3848.11
771.866	1628.41
772.306	746.61
772.745	469.56
773.185	408.96
773.625	410.06
774.065	488.61
774.505	816.31
774.944	1656.61
775.384	2484.71
775.824	2809.06
776.263	2271.41
776.703	1125.41
777.142	567.61
777.582	380.91
778.021	345.41
778.461	322.36
778.9	307.26
779.34	289.71
779.779	276.81
780.219	266.91
780.658	257.36
781.097	260.46
781.537	246.41
781.976	248.11
782.415	243.81
782.855	249.26
783.294	244.86
783.733	242.56
784.172	246.01
784.611	241.71
785.05	251.01
785.489	259.86
785.928	257.91
786.367	270.46
786.806	286.21
787.245	309.06
787.684	318.31
788.123	308.56
788.562	297.56
789.001	285.81
789.44	276.51
789.879	277.91
790.317	284.06
790.756	298.11
791.195	346.41
791.634	470.51
792.072	847.56
792.511	2093.16
792.95	3793.06
793.388	4505.36
793.827	2929.61
794.265	1351.56
794.704	655.66
795.142	394.76
795.581	331.96
796.019	299.16
796.458	300.11
796.896	304.51
797.334	349.91
797.773	473.01
798.211	912.46
798.649	1882.36
799.087	3150.96
799.526	4424.81
799.964	4524.61
800.402	3089.91
800.84	1412.21
801.278	696.41
801.716	420.96
802.154	349.31
802.592	323.91
803.03	330.21
803.468	334.41
803.906	332.91
804.344	326.36
804.782	318.56
805.22	318.76
805.658	331.46
806.096	350.96
806.533	394.76
806.971	504.86
807.409	735.01
807.847	1483.06
808.284	3769.11
808.722	6549.81
809.16	9151.41
809.597	12463.16
810.035	14843.81
810.472	9867.56
810.91	4211.11
811.347	1888.21
811.785	882.01
812.222	557.21
812.66	428.06
813.097	359.71
813.535	316.96
813.972	289.71
814.409	264.71
814.846	256.46
815.284	238.71
815.721	248.36
816.158	265.81
816.595	345.31
817.032	422.41
817.47	389.16
817.907	305.71
818.344	265.91
818.781	255.46
819.218	294.11
819.655	425.61
820.092	538.21
820.529	505.46
820.966	413.51
821.403	309.11
821.839	272.16
822.276	284.71
822.713	320.51
823.15	308.76
823.587	336.16
824.023	614.36
824.46	1541.86
824.897	2662.66
825.333	2049.36
825.77	951.36
826.206	501.81
826.643	283.81
827.08	219.01
827.516	190.66
827.953	177.06
828.389	168.11
828.825	165.71
829.262	155.91
829.698	149.21
830.135	140.86
830.571	144.81
831.007	143.96
831.443	148.81
831.88	152.61
832.316	155.66
832.752	151.51
833.188	152.11
833.624	153.01
834.06	159.26
834.497	155.46
834.933	162.21
835.369	177.96
835.805	182.76
836.241	193.91
836.677	214.96
837.112	246.06
837.548	302.41
837.984	452.91
838.42	982.71
838.856	2711.41
839.292	5269.71
839.727	3869.01
840.163	2650.81
840.599	4021.56
841.034	6123.26
841.47	3047.71
841.906	1502.01
842.341	848.41
842.777	745.56
843.212	892.71
843.648	520.71
844.083	322.26
844.519	223.61
844.954	178.31
845.39	151.61
845.825	142.11
846.261	138.61
846.696	127.56
847.131	125.11
847.566	125.81
848.002	137.81
848.437	142.46
848.872	140.66
849.307	187.96
849.742	336.31
850.177	880.36
850.613	1864.96
851.048	1326.71
851.483	616.31
851.918	350.16
852.353	203.06
852.788	160.11
853.223	138.21
853.657	115.91
854.092	112.61
854.527	110.76
854.962	113.16
855.397	118.66
855.832	107.51
856.266	96.91
856.701	98.81
857.136	98.41
857.57	115.56
858.005	133.61
858.44	118.06
858.874	116.01
859.309	120.91
859.743	113.51
860.178	112.71
860.612	119.76
861.047	154.91
861.481	203.61
861.915	139.56
862.35	114.21
862.784	96.66
863.218	88.91
863.653	98.11
864.087	119.36
864.521	155.41
864.955	259.31
865.39	435.46
865.824	311.96
866.258	368.46
866.692	523.16
867.126	376.56
867.56	205.96
867.994	140.86
868.428	125.96
868.862	146.86
869.296	131.66
869.73	163.36
870.164	134.71
870.598	127.46
871.031	95.41
871.465	86.86
871.899	70.91
872.333	68.81
872.766	69.26
873.2	74.21
873.634	74.11
874.067	74.81
874.501	68.91
874.935	71.51
875.368	76.51
875.802	71.36
876.235	61.06
876.669	62.31
877.102	57.51
877.535	56.91
877.969	57.01
878.402	58.11
878.836	57.06
879.269	58.21
879.702	56.16
880.135	58.46
880.569	65.11
881.002	58.21
881.435	53.06
881.868	54.56
882.301	47.36
882.734	50.51
883.167	51.31
883.601	48.41
884.034	49.76
884.467	50.26
884.899	46.41
885.332	44.11
885.765	44.91
886.198	48.06
886.631	43.31
887.064	44.66
887.497	42.76
887.929	49.11
888.362	40.11
888.795	48.51
889.228	49.61
889.66	42.26
890.093	45.91
890.526	43.86
890.958	45.16
891.391	52.01
891.823	44.71
892.256	44.71
892.688	42.21
893.121	42.21
893.553	43.66
893.985	44.21
894.418	40.01
894.85	40.26
895.282	38.21
895.715	36.11
896.147	34.06
896.579	35.76
897.011	47.81
897.444	37.71
897.876	34.71
898.308	39.46
898.74	39.76
899.172	41.71
899.604	43.46
900.036	43.21
900.468	37.21
900.9	41.36
901.332	51.41
901.764	51.26
902.196	49.01
902.628	47.71
903.06	69.01
903.491	72.51
903.923	61.11
904.355	68.86
904.787	67.81
905.218	55.31
905.65	55.66
906.082	51.51
906.513	48.66
906.945	50.81
907.376	55.96
907.808	54.01
908.239	59.31
908.671	60.86
909.102	66.41
909.534	92.21
909.965	174.71
910.397	438.76
910.828	1243.66
911.259	760.61
911.691	415.91
912.122	239.81
912.553	126.16
912.984	71.76
913.415	61.01
913.847	51.21
914.278	52.71
914.709	44.76
915.14	43.51
915.571	41.76
916.002	41.46
916.433	35.91
916.864	41.46
917.295	43.66
917.726	50.41
918.157	60.91
918.587	61.81
919.018	59.46
919.449	55.51
919.88	68.11
920.311	93.76
920.741	259.11
921.172	454.41
921.603	229.01
922.033	145.31
922.464	94.91
922.895	58.91
923.325	46.61
923.756	48.36
924.186	62.41
924.617	105.61
925.047	160.86
925.478	151.81
925.908	110.01
926.338	76.11
926.769	50.76
927.199	46.81
927.629	40.81
928.06	40.31
928.49	42.61
928.92	36.41
929.35	33.41
929.78	26.86
930.21	24.71
930.641	18.61
931.071	20.81
931.501	23.71
931.931	16.51
932.361	24.66
932.791	28.71
933.221	26.96
933.651	39.51
934.08	60.46
934.51	35.96
934.94	32.76
935.37	30.61
935.8	23.76
936.229	17.61
936.659	20.11
937.089	31.71
937.519	45.01
937.948	61.16
938.378	41.96
938.807	24.31
939.237	18.06
939.666	20.56
940.096	16.21
940.525	12.06
940.955	16.11
941.384	14.36
941.814	12.26
942.243	12.81
942.672	8.01
943.102	11.81
943.531	10.86
943.96	8.16
944.39	12.66
944.819	11.91
945.248	11.96
945.677	8.61
946.106	10.81
946.535	12.66
946.964	9.31
947.393	8.96
947.822	11.01
948.251	16.31
948.68	17.51
949.109	12.96
949.538	8.86
949.967	6.86
950.396	9.21
950.825	10.46
951.254	9.91
951.682	5.36
952.111	3.16
952.54	9.71
952.969	4.91
953.397	5.11
953.826	4.71
954.254	8.66
954.683	11.46
955.112	8.41
955.54	7.96
955.969	9.71
956.397	5.81
956.826	5.41
957.254	9.56
957.682	6.46
958.111	10.06
958.539	9.96
958.967	10.36
959.396	10.81
959.824	9.76
960.252	8.86
960.68	9.71
961.109	11.66
961.537	14.91
961.965	3.76
962.393	6.46
962.821	6.11
963.249	7.96
963.677	15.51
964.105	76.51
964.533	131.81
964.961	64.81
965.389	37.31
965.817	19.96
966.245	12.36
966.672	8.01
967.1	10.41
967.528	3.66
967.956	6.51
968.383	7.26
968.811	6.01
969.239	10.11
969.666	9.46
970.094	9.06
970.522	3.36
970.949	7.61
971.377	1.06
971.804	6.76
972.232	2.96
972.659	6.96
973.087	7.26
973.514	3.16
973.941	-1.09
974.369	1.41
974.796	5.71
975.223	1.06
975.651	4.51
976.078	3.26
976.505	9.26
976.932	28.51
977.359	33.51
977.786	25.51
978.214	19.61
978.641	9.96
979.068	8.31
979.495	5.51
979.922	4.51
980.349	7.21
980.776	5.46
981.202	2.61
981.629	10.26
982.056	6.66
982.483	-3.09
982.91	9.51
983.337	5.31
983.763	6.16
984.19	5.91
984.617	3.06
985.043	10.76
985.47	9.51
985.897	5.26
986.323	8.56
986.75	6.31
987.176	5.56
987.603	7.76
988.029	6.41
988.456	7.06
988.882	2.61
989.308	-0.54
989.735	2.41
990.161	2.11
990.587	1.16
991.014	4.41
991.44	3.81
991.866	3.51
992.292	3.81
992.719	3.41
993.145	5.96
993.571	3.26
993.997	5.86
994.423	2.51
994.849	-4.14
995.275	8.56
995.701	3.96
996.127	-2.24
996.553	5.31
996.979	-0.59
997.405	7.66
997.83	3.91
998.256	10.16
998.682	3.21
999.108	3.96
999.534	-8.99
999.959	2.66
1000.385	9.46
1000.811	-0.14
1001.236	-1.94
1001.662	2.71
1002.087	8.51
1002.513	3.31
1002.938	-0.19
1003.364	2.31
1003.789	4.21
1004.215	3.96
1004.64	4.46
1005.066	3.91
1005.491	6.71
1005.916	6.46
1006.342	3.41
1006.767	5.61
1007.192	6.96
1007.617	5.01
1008.042	4.01
1008.468	3.26
1008.893	5.51
1009.318	8.66
1009.743	11.71
1010.168	22.36
1010.593	21.91
1011.018	13.11
1011.443	8.86
1011.868	4.96
1012.293	3.56
1012.718	-0.04
1013.143	1.66
1013.567	8.51
1013.992	3.91
1014.417	4.41
1014.842	1.31
1015.267	2.06
1015.691	7.91
1016.116	2.61
1016.541	5.76
1016.965	4.91
1017.39	1.21
1017.814	-2.04
1018.239	3.06
1018.663	-3.99
1019.088	-2.69
1019.512	6.01
1019.937	0.41
1020.361	0.21
1020.785	0.11
1021.21	-2.54
1021.634	-2.54
1022.058	-1.99
1022.483	-2.44
1022.907	-2.44
1023.331	-3.99
1023.755	-1.84
1024.179	5.06
1024.604	3.71
1025.028	5.51
1025.452	2.76
1025.876	6.86
1026.3	-1.24
1026.724	-2.59
1027.148	4.51
1027.572	0.56
1027.996	2.81
1028.42	2.91
1028.843	3.61
1029.267	-1.94
1029.691	4.01
1030.115	-0.89
1030.539	0.91
1030.962	0.66
1031.386	1.46
1031.81	0.46
1032.233	1.66
1032.657	-4.09
1033.08	-0.39
1033.504	-1.44
1033.927	2.96
1034.351	2.71
1034.774	2.76
1035.198	-2.64
1035.621	1.66
1036.045	1.51
1036.468	2.81
1036.891	-0.44
1037.315	4.21
1037.738	0.06
1038.161	0.51
1038.584	-0.79
1039.008	0.91
1039.431	2.81
1039.854	-3.19
1040.277	3.91
1040.7	-1.39
1041.123	-0.54
1041.546	-0.44
1041.969	0.66
1042.392	4.71
1042.815	-6.94
1043.238	-1.69
1043.661	-3.79
1044.084	-2.94
1044.507	0.06
1044.93	1.46
1045.352	2.51
1045.775	3.36
1046.198	4.01
1046.621	3.11
1047.043	1.96
1047.466	-0.04
1047.889	-2.14
1048.311	1.56
1048.734	-1.29
1049.156	-5.59
1049.579	-0.19
1050.001	1.41
1050.424	-0.54
1050.846	-1.84
1051.269	-4.89
1051.691	0.46
1052.113	1.66
1052.536	-0.54
1052.958	-3.49
1053.38	0.26
1053.802	-2.09
1054.225	2.66
1054.647	6.86
1055.069	1.06
1055.491	-0.29
1055.913	0.56
1056.335	-7.74
1056.757	-0.49
1057.179	-1.99
1057.601	-2.34
1058.023	-0.69
1058.445	-6.09
1058.867	1.26
1059.289	-1.44
1059.711	-1.24
1060.133	-0.59
1060.555	0.21
1060.976	2.31
1061.398	-0.64
1061.82	-1.04
1062.241	-0.99
1062.663	-2.69
1063.085	-4.64
1063.506	-6.74
1063.928	-3.14
1064.35	2.16
1064.771	0.41
1065.193	-4.44
1065.614	-1.04
1066.035	6.06
1066.457	3.51
1066.878	0.06
1067.3	2.91
1067.721	-0.54
1068.142	2.41
1068.564	-1.39
1068.985	-1.94
1069.406	-4.54
1069.827	1.96
1070.248	-0.49
1070.67	-5.14
1071.091	-5.04
1071.512	-3.24
1071.933	1.16
1072.354	-8.59
1072.775	-1.14
1073.196	0.41
1073.617	-5.09
1074.038	-0.39
1074.459	-3.84
1074.88	-0.39
1075.3	1.96
1075.721	0.81
1076.142	-2.29
1076.563	-4.94
1076.983	0.51
1077.404	-6.24
1077.825	-0.04
1078.246	-5.59
1078.666	-3.44
1079.087	-1.69
1079.507	-6.79
1079.928	-2.49
1080.348	-6.99
1080.769	-1.14
1081.189	-1.74
1081.61	-4.39
1082.03	2.51
1082.451	-0.19
1082.871	-5.94
1083.291	-3.14
1083.711	4.76
1084.132	-4.44
1084.552	-6.49
1084.972	-6.34
1085.392	-4.24
1085.813	-0.84
1086.233	-1.19
1086.653	-3.29
1087.073	-5.29
1087.493	-1.74
1087.913	-3.84
1088.333	-4.94
1088.753	-2.94
1089.173	1.01
1089.593	0.51
1090.013	-4.39
1090.433	-7.29
1090.852	2.01
1091.272	-6.19
1091.692	-3.39
1092.112	-5.79
1092.531	-3.69
1092.951	-4.49
1093.371	-3.64
1093.79	-2.34
1094.21	-3.19
1094.63	1.76
1095.049	-2.69
1095.469	-6.59
1095.888	1.41
1096.308	-1.49
1096.727	0.06
1097.146	-7.44
1097.566	-3.39
1097.985	-4.99
1098.405	4.11
1098.824	-0.09
1099.243	-0.69
1099.662	-3.14
1100.082	-3.34
1100.501	2.71
1100.92	3.96
1101.339	3.21
1101.758	3.31
