Data from MSPlasma+Separation6_Subt14_10-15-40-264.txt Node
Date: Fri Jul 21 10:15:40 EDT 2017
User: Ender
Spectrometer: HR+D1039
Trigger mode: 0
Integration Time (sec): 2.510000E-3
Scans to average: 20
Electric dark correction enabled: true
Nonlinearity correction enabled: false
Boxcar width: 0
XAxis mode: Wavelengths
Number of Pixels in Spectrum: 2048
>>>>>Begin Spectral Data<<<<<
187.836	-1.5
188.309	-1.5
188.782	-1.5
189.255	0
189.728	1
190.201	-1.95
190.674	-1.25
191.147	0.65
191.619	1.8
192.092	-1.95
192.565	-1.75
193.038	4.6
193.511	2.05
193.984	3.85
194.456	-0.1
194.929	-2.85
195.402	-5.05
195.874	2.4
196.347	1.35
196.82	1.4
197.292	-3.05
197.765	1.2
198.237	-5.45
198.71	-6.55
199.182	-3
199.655	3.55
200.127	-3.35
200.6	-4.05
201.072	1.45
201.544	-0.55
202.017	0.55
202.489	0.45
202.961	-5.05
203.433	-0.7
203.906	-5.25
204.378	-5.7
204.85	-6.5
205.322	-2.55
205.794	-0.3
206.266	-1.75
206.739	3.05
207.211	-0.45
207.683	0.75
208.155	-0.65
208.627	1.25
209.099	2.85
209.57	-1.55
210.042	-1.5
210.514	-1.05
210.986	3.15
211.458	6.15
211.93	2.15
212.402	-2.85
212.873	-5.45
213.345	-7.05
213.817	1.45
214.288	-4.55
214.76	2.1
215.232	-4.05
215.703	-2.7
216.175	-1.25
216.646	-1.05
217.118	-3.5
217.589	-6.45
218.061	-4.1
218.532	-2.2
219.004	4.9
219.475	3.4
219.946	3.25
220.418	10.25
220.889	6.9
221.36	5.85
221.832	-0.95
222.303	-0.8
222.774	-1.75
223.245	-2.75
223.717	-2.85
224.188	-1.1
224.659	-1.65
225.13	-0.45
225.601	1.65
226.072	-1.15
226.543	1.65
227.014	-7.35
227.485	-0.2
227.956	1.55
228.427	5.3
228.898	-2
229.369	-3.5
229.839	0.7
230.31	3.75
230.781	3.65
231.252	5.15
231.722	8.7
232.193	8.05
232.664	10
233.135	16.65
233.605	22.5
234.076	16.9
234.546	9.8
235.017	16.85
235.487	10.85
235.958	11.95
236.428	27.05
236.899	34.45
237.369	41.6
237.84	28.05
238.31	36.8
238.78	35.45
239.251	36.8
239.721	40.85
240.191	29.65
240.662	14.95
241.132	11.95
241.602	17.2
242.072	22.75
242.542	28.1
243.013	15.55
243.483	23.2
243.953	12.9
244.423	9.15
244.893	16.15
245.363	17.9
245.833	14.6
246.303	16.75
246.773	29.25
247.243	26.6
247.712	33.05
248.182	37.35
248.652	39.75
249.122	61.8
249.592	116.15
250.061	180.6
250.531	292.4
251.001	222.85
251.471	189.15
251.94	137.3
252.41	74.05
252.879	52.65
253.349	39.65
253.818	26.35
254.288	27.55
254.757	27.05
255.227	35.6
255.696	32.45
256.166	27.6
256.635	28.9
257.105	35.4
257.574	48.65
258.043	51.8
258.513	91.15
258.982	113.8
259.451	86.05
259.92	75.95
260.389	76.6
260.859	54.85
261.328	65.2
261.797	95.4
262.266	79.45
262.735	39.2
263.204	20.65
263.673	25.95
264.142	14.6
264.611	16.55
265.08	20.3
265.549	20.05
266.018	18.95
266.487	19.7
266.955	15.6
267.424	21.25
267.893	25.65
268.362	20.1
268.83	20.6
269.299	21.95
269.768	31.35
270.236	32.8
270.705	40.05
271.174	30.75
271.642	34.4
272.111	45.35
272.579	76.9
273.048	119.55
273.516	153
273.985	153.55
274.453	114.25
274.922	67.8
275.39	43.1
275.858	39.85
276.327	36.15
276.795	32.2
277.263	38
277.731	55.3
278.2	108.7
278.668	139.65
279.136	106.7
279.604	68.55
280.072	40.7
280.54	36.65
281.008	38.7
281.477	38
281.945	35.45
282.413	37.75
282.881	36
283.348	37.5
283.816	42.6
284.284	46.55
284.752	45.3
285.22	46.65
285.688	46.6
286.156	83.45
286.623	215.95
287.091	433.8
287.559	226
288.026	91.65
288.494	55.4
288.962	44.6
289.429	41.25
289.897	41.05
290.364	36
290.832	36.55
291.3	40.7
291.767	42.95
292.234	42.25
292.702	42.35
293.169	50.4
293.637	49.65
294.104	49.2
294.571	45.65
295.039	50.15
295.506	46.5
295.973	51.2
296.44	43.9
296.908	54.3
297.375	60.05
297.842	59.5
298.309	46.6
298.776	51
299.243	54.55
299.71	48.6
300.177	48.95
300.644	55.15
301.111	66.25
301.578	54.9
302.045	46.85
302.512	44.5
302.979	50
303.446	56.15
303.913	56.75
304.379	62.85
304.846	70.95
305.313	72
305.78	86.25
306.246	104.1
306.713	113.45
307.18	98.5
307.646	110.95
308.113	96.3
308.579	72.75
309.046	78.65
309.512	76
309.979	73.25
310.445	62
310.912	63.85
311.378	75.2
311.845	72.25
312.311	62.2
312.777	64.8
313.244	70.5
313.71	75.85
314.176	83.75
314.642	90.95
315.109	101.6
315.575	95.6
316.041	92.25
316.507	85.5
316.973	94.45
317.439	94.4
317.905	100.7
318.371	102.7
318.837	93.1
319.303	96.95
319.769	92.4
320.235	102.6
320.701	117.45
321.167	127.05
321.633	151.7
322.099	206.55
322.564	278
323.03	217.4
323.496	150.1
323.962	141
324.427	137.85
324.893	125.45
325.359	117.5
325.824	101
326.29	110.65
326.755	106.4
327.221	104.8
327.686	114.7
328.152	102
328.617	97
329.083	98.95
329.548	109.1
330.014	107.95
330.479	124.75
330.944	137.1
331.41	160.4
331.875	151.4
332.34	150.95
332.805	174.6
333.271	224.55
333.736	299.3
334.201	269.8
334.666	206.55
335.131	229.55
335.596	182.25
336.061	191.45
336.526	191.85
336.991	163.9
337.456	187
337.921	146.35
338.386	115.95
338.851	109.45
339.316	102.9
339.781	99.95
340.246	100.25
340.711	99.65
341.175	101.9
341.64	107.7
342.105	109.7
342.569	114.1
343.034	121.25
343.499	128.4
343.963	121.95
344.428	123.45
344.893	122.05
345.357	129.55
345.822	120.95
346.286	128.75
346.751	127.95
347.215	128.4
347.679	129.8
348.144	144.15
348.608	141.2
349.073	147.45
349.537	161.7
350.001	156
350.465	148.8
350.93	139.1
351.394	146.4
351.858	139
352.322	147.1
352.786	151.6
353.25	147.85
353.715	152.4
354.179	158.5
354.643	162.6
355.107	169.4
355.571	170.75
356.035	177.25
356.498	171.8
356.962	183.6
357.426	175.75
357.89	164.45
358.354	156.3
358.818	152.3
359.281	159.05
359.745	173.75
360.209	162.25
360.673	168.15
361.136	166.65
361.6	168.3
362.064	177.3
362.527	184.4
362.991	178.95
363.454	181.2
363.918	186.35
364.381	184.3
364.845	174.95
365.308	175.3
365.772	180.8
366.235	178.4
366.698	185.45
367.162	224.15
367.625	249.75
368.088	199.95
368.552	182.35
369.015	189.95
369.478	196.35
369.941	199.25
370.404	206.25
370.867	220.05
371.331	220.95
371.794	226.25
372.257	250.6
372.72	259.95
373.183	254.35
373.646	256.25
374.109	249.95
374.572	291.9
375.035	342.35
375.497	265.15
375.96	215.95
376.423	200.3
376.886	206.7
377.349	208.85
377.811	210.9
378.274	218.05
378.737	213.65
379.199	221.25
379.662	226.3
380.125	241.85
380.587	267.05
381.05	282.15
381.512	279.45
381.975	277.55
382.437	277.7
382.9	270.2
383.362	269.8
383.825	293.05
384.287	369.6
384.75	413.3
385.212	364.4
385.674	292.9
386.136	273.05
386.599	272.2
387.061	284.8
387.523	291.4
387.985	288.4
388.447	302.05
388.91	340.2
389.372	410
389.834	384.75
390.296	319.8
390.758	329.85
391.22	334.8
391.682	415.85
392.144	626.85
392.606	591.15
393.068	357.75
393.529	312.3
393.991	308.05
394.453	303.3
394.915	326.55
395.377	387.9
395.838	478.15
396.3	339.5
396.762	264.25
397.224	251.1
397.685	253.75
398.147	256.55
398.608	254.95
399.07	261.8
399.531	253.35
399.993	264.95
400.454	265.85
400.916	257.65
401.377	267.2
401.839	278.1
402.3	272.35
402.762	290.5
403.223	315.35
403.684	320.65
404.145	296.3
404.607	289
405.068	283.5
405.529	297
405.99	297.1
406.451	304.45
406.913	302.65
407.374	299.2
407.835	302.6
408.296	316.75
408.757	317.05
409.218	323.1
409.679	330.4
410.14	335.8
410.601	347.9
411.062	362.8
411.522	420.75
411.983	458.2
412.444	383.25
412.905	338.55
413.366	345.6
413.826	351.85
414.287	391.75
414.748	462.1
415.208	468.6
415.669	401.85
416.13	372.05
416.59	354.35
417.051	369.75
417.511	386.9
417.972	410.45
418.432	445.5
418.893	489.05
419.353	469.05
419.814	364.95
420.274	323.35
420.734	319.2
421.195	349.5
421.655	356.35
422.115	351.15
422.576	340.75
423.036	338.55
423.496	349.4
423.956	373.3
424.416	397.55
424.876	448.15
425.336	443.7
425.797	439.05
426.257	438.75
426.717	416.35
427.177	388.6
427.637	402.4
428.097	424.8
428.556	440.15
429.016	481.4
429.476	485.25
429.936	465.6
430.396	455.45
430.856	458.2
431.315	479.6
431.775	508.9
432.235	533.7
432.694	549.45
433.154	512.1
433.614	494.7
434.073	486.7
434.533	435.3
434.993	416.3
435.452	424.05
435.912	411.6
436.371	416.55
436.83	412.7
437.29	412.15
437.749	390.6
438.209	388.4
438.668	396.25
439.127	387.95
439.587	384.95
440.046	371.85
440.505	381.55
440.964	374.45
441.424	389.1
441.883	398.1
442.342	383.6
442.801	361.65
443.26	372.3
443.719	369.95
444.178	364.55
444.637	370.75
445.096	364.9
445.555	377.05
446.014	376.4
446.473	363.25
446.932	364.4
447.391	374.85
447.849	380.9
448.308	371.05
448.767	384.25
449.226	387.9
449.685	394.5
450.143	409.6
450.602	410.5
451.061	396.8
451.519	394.3
451.978	403.05
452.436	420
452.895	404.95
453.353	386
453.812	393.15
454.27	385.75
454.729	374.55
455.187	379.2
455.646	381.8
456.104	388.45
456.562	394.3
457.021	382.7
457.479	364.4
457.937	380.2
458.395	389.8
458.854	387.45
459.312	381.45
459.77	385.05
460.228	389.25
460.686	388.2
461.144	397.2
461.602	389.75
462.06	387.45
462.518	395.85
462.976	396.65
463.434	403.4
463.892	407.85
464.35	418.1
464.808	419.65
465.266	428.6
465.724	433
466.181	430.4
466.639	422.45
467.097	445.15
467.555	462.4
468.012	461.85
468.47	454.6
468.928	479.6
469.385	496.85
469.843	494.85
470.3	489.55
470.758	509
471.215	520.85
471.673	511.3
472.13	541.2
472.588	559.1
473.045	557.75
473.503	558.5
473.96	587.55
474.417	601.3
474.875	630.1
475.332	652
475.789	649.35
476.246	672
476.704	707.15
477.161	726.5
477.618	751.1
478.075	796.85
478.532	862.5
478.989	941.25
479.446	1033.7
479.903	1093.2
480.36	1209.3
480.817	1285.6
481.274	1383.4
481.731	1516.15
482.188	1633.7
482.645	1766.55
483.102	1864.8
483.558	1996.1
484.015	2096.2
484.472	2105.55
484.929	2027.7
485.385	1942.85
485.842	1876.6
486.299	1788.25
486.755	1617.4
487.212	1451.3
487.668	1297.25
488.125	1194.8
488.582	1098.95
489.038	1053.35
489.494	1012.25
489.951	981.15
490.407	957.55
490.864	937.65
491.32	913.75
491.776	898.15
492.233	895.4
492.689	887.85
493.145	870.25
493.602	861.7
494.058	874.05
494.514	894.75
494.97	890.7
495.426	906.1
495.882	899.65
496.338	909.15
496.794	931.9
497.251	937.65
497.707	933
498.163	940.6
498.618	948.65
499.074	951.75
499.53	963
499.986	982.55
500.442	996.25
500.898	1002.3
501.354	1011.6
501.809	1024.75
502.265	1033.75
502.721	1079.75
503.177	1108.35
503.632	1059.95
504.088	1069.7
504.543	1158.45
504.999	1082.3
505.455	967.7
505.91	916.75
506.366	912.4
506.821	913.85
507.277	899.25
507.732	899.4
508.187	901.4
508.643	916.45
509.098	903.3
509.553	919.1
510.009	925.75
510.464	945.15
510.919	957.45
511.375	963.95
511.83	977.35
512.285	986.45
512.74	1023.4
513.195	1035.4
513.65	1050.3
514.105	1066.85
514.56	1060.8
515.015	1088.2
515.47	1105.1
515.925	1094.4
516.38	1087.25
516.835	1089.1
517.29	1076.8
517.745	1086.4
518.2	1067
518.655	1036.9
519.109	1024.05
519.564	1008.05
520.019	1008
520.474	995.4
520.928	989.45
521.383	984.3
521.838	991.35
522.292	973.2
522.747	961.3
523.201	963.2
523.656	956.35
524.11	948.65
524.565	944.95
525.019	946.4
525.474	957
525.928	954.6
526.382	937.5
526.837	940.9
527.291	932.95
527.745	925.4
528.2	924.4
528.654	924
529.108	922.4
529.562	923.4
530.016	924.3
530.47	930.05
530.925	927.25
531.379	935
531.833	946.5
532.287	943.2
532.741	929.25
533.195	926.85
533.649	928
534.103	932.8
534.556	924.5
535.01	936.4
535.464	927.3
535.918	926.85
536.372	933.4
536.826	934.05
537.279	929.65
537.733	925.5
538.187	930.15
538.64	930.4
539.094	939.6
539.548	949.85
540.001	947.85
540.455	957.8
540.908	959.1
541.362	974.05
541.815	977.05
542.269	1000.65
542.722	988.15
543.175	1003.15
543.629	1011.55
544.082	1020.7
544.536	1027.05
544.989	1029.7
545.442	1030.85
545.895	1033.95
546.349	1039.45
546.802	1034.05
547.255	1025.55
547.708	1045.15
548.161	1054.55
548.614	1041.9
549.067	1055.4
549.52	1051.3
549.973	1038.25
550.426	1032.25
550.879	1022.8
551.332	1021.35
551.785	1029.6
552.238	1037.7
552.691	1043.65
553.144	1049.9
553.596	1070.5
554.049	1072
554.502	1102.9
554.955	1122.5
555.407	1139
555.86	1127.85
556.313	1111.05
556.765	1105
557.218	1091.05
557.67	1087.9
558.123	1079.9
558.576	1068.15
559.028	1063.35
559.48	1089.5
559.933	1078
560.385	1049.4
560.838	1008.9
561.29	980.55
561.742	977.65
562.195	954.5
562.647	956.9
563.099	945.3
563.551	950.45
564.004	961.5
564.456	945.75
564.908	923.05
565.36	914.2
565.812	899.25
566.264	897.35
566.716	883.55
567.168	860.85
567.62	867.4
568.072	856.05
568.524	843.5
568.976	837.55
569.428	847.65
569.88	829.7
570.332	842
570.784	842.15
571.235	826.45
571.687	841.05
572.139	833.95
572.59	848.1
573.042	848.4
573.494	847.85
573.945	836.2
574.397	828.85
574.849	819.65
575.3	821.45
575.752	806.6
576.203	809.2
576.655	814.4
577.106	790.25
577.557	795.3
578.009	793.05
578.46	794
578.912	786.9
579.363	792.65
579.814	791
580.265	792.4
580.717	788.35
581.168	790.5
581.619	796.1
582.07	803.3
582.521	803.05
582.972	798.75
583.423	807.15
583.875	817.95
584.326	866.5
584.777	932.35
585.227	1009.85
585.678	1068
586.129	1086.95
586.58	1113.35
587.031	1133.55
587.482	1185.3
587.933	1376.1
588.384	1274.05
588.834	1062.9
589.285	924.95
589.736	897.75
590.186	902.4
590.637	892.35
591.088	870.2
591.538	855.7
591.989	856.2
592.439	855.25
592.89	844
593.34	846.75
593.791	855
594.241	858.85
594.692	864.4
595.142	857.15
595.593	847.35
596.043	848.6
596.493	855.6
596.943	870.3
597.394	864.7
597.844	852.35
598.294	862.3
598.744	895.45
599.195	938.25
599.645	984.85
600.095	1027.4
600.545	1077.4
600.995	1125.5
601.445	1162.3
601.895	1214.2
602.345	1249.9
602.795	1238.25
603.245	1177.3
603.695	1111.7
604.145	1047.3
604.594	1002.75
605.044	957.5
605.494	900.1
605.944	849.25
606.393	837.2
606.843	836
607.293	828.75
607.743	818.85
608.192	834.35
608.642	834.25
609.091	837.35
609.541	836.65
609.99	830.1
610.44	817.65
610.889	799.45
611.339	795.85
611.788	791.45
612.238	799.75
612.687	806.4
613.136	818.7
613.586	831.9
614.035	830.85
614.484	842.3
614.933	840.9
615.383	823.65
615.832	797.9
616.281	778.45
616.73	766.35
617.179	748.75
617.628	727.75
618.077	716.75
618.526	703.65
618.975	703.9
619.424	685.8
619.873	689.7
620.322	688.5
620.771	683.05
621.22	676.8
621.669	663.8
622.118	650.5
622.567	652.35
623.015	636.9
623.464	652.8
623.913	628.75
624.361	626.2
624.81	629.65
625.259	629.5
625.707	614.8
626.156	623.8
626.604	634.35
627.053	632.8
627.501	623.3
627.95	639.45
628.398	642.9
628.847	634.75
629.295	631.15
629.744	654.55
630.192	661.35
630.64	708.6
631.089	783.45
631.537	813
631.985	819
632.433	852.15
632.881	846.05
633.33	1012.9
633.778	1101.15
634.226	793.25
634.674	727.55
635.122	720.5
635.57	733.65
636.018	847.8
636.466	700.3
636.914	623.1
637.362	618
637.81	629.8
638.258	640.45
638.705	648.2
639.153	667.75
639.601	672.2
640.049	682.65
640.497	709.7
640.944	719.35
641.392	691.5
641.84	658.95
642.287	626.6
642.735	622.3
643.182	618.25
643.63	615
644.078	618.9
644.525	629.3
644.973	645.25
645.42	659.75
645.867	668.55
646.315	684.5
646.762	711.5
647.21	729.1
647.657	762.05
648.104	812.25
648.551	833.2
648.999	905.3
649.446	1008.7
649.893	1145.55
650.34	1355.5
650.787	1678.9
651.234	2182.05
651.682	3049.4
652.129	4424.8
652.576	6381.3
653.023	8512.9
653.47	9938.05
653.917	10741.75
654.363	11151.95
654.81	11829.85
655.257	11879.55
655.704	8122.3
656.151	4773.9
656.598	3096.7
657.044	2197.05
657.491	1696.2
657.938	1372.7
658.385	1157.35
658.831	1012.4
659.278	899
659.724	824.35
660.171	757.35
660.618	699.2
661.064	661.55
661.511	633.4
661.957	614
662.404	599.45
662.85	591.9
663.296	582.5
663.743	568.6
664.189	572.55
664.635	561.2
665.082	543.95
665.528	532.6
665.974	528.55
666.42	518.45
666.867	520.8
667.313	529.55
667.759	550.8
668.205	549.9
668.651	550.65
669.097	533.95
669.543	576.3
669.989	549.7
670.435	486.9
670.881	484.4
671.327	503.75
671.773	539.1
672.219	579.8
672.665	608.2
673.11	628.85
673.556	635.05
674.002	647.55
674.448	656.15
674.893	562.25
675.339	486.65
675.785	455.3
676.23	435.45
676.676	420.5
677.122	409.9
677.567	399.25
678.013	379.15
678.458	380.2
678.904	380.15
679.349	373.8
679.794	376.05
680.24	372.6
680.685	373.95
681.131	372.35
681.576	370.7
682.021	374.7
682.466	375.75
682.912	374.7
683.357	405.1
683.802	434.1
684.247	473.65
684.692	493.9
685.137	520.95
685.583	525.55
686.028	551.35
686.473	527.55
686.918	455.9
687.363	418.85
687.807	399.5
688.252	376.8
688.697	370.35
689.142	359.3
689.587	358.4
690.032	368
690.477	387.65
690.921	402.3
691.366	420.85
691.811	431.55
692.255	472.8
692.7	572.7
693.145	829.75
693.589	1234.05
694.034	1451.4
694.478	1535.65
694.923	1401.65
695.367	1933.45
695.812	1221.35
696.256	527.35
696.701	389.85
697.145	359.65
697.59	353.2
698.034	349
698.478	340.05
698.922	351.4
699.367	357.3
699.811	377
700.255	406.85
700.699	446.55
701.143	480.45
701.588	505.35
702.032	517.95
702.476	533.4
702.92	579.15
703.364	751.55
703.808	1132
704.252	1389.85
704.696	1448.4
705.14	1363.9
705.584	1838.35
706.027	1070.05
706.471	547.05
706.915	406.85
707.359	367.95
707.803	337.5
708.246	331.95
708.69	332.95
709.134	316.95
709.577	328
710.021	330.15
710.465	334.15
710.908	323.1
711.352	342.7
711.795	373.15
712.239	404.95
712.682	412
713.126	402.4
713.569	447.7
714.012	376.15
714.456	330.35
714.899	302.6
715.342	290.2
715.786	279.05
716.229	275.15
716.672	267.05
717.115	263
717.558	270.3
718.002	280.05
718.445	285.6
718.888	306.55
719.331	312.45
719.774	314.2
720.217	306
720.66	294.4
721.103	277.95
721.546	259.6
721.989	253.25
722.432	252.75
722.874	253.4
723.317	257.55
723.76	282.55
724.203	339.65
724.645	453.5
725.088	524.4
725.531	514.7
725.974	554.25
726.416	504.9
726.859	322.7
727.301	261.95
727.744	251.15
728.187	252.6
728.629	256.9
729.071	265.4
729.514	276.95
729.956	287.65
730.399	284.65
730.841	295.7
731.283	282.15
731.726	269.85
732.168	273.85
732.61	296.75
733.053	316.3
733.495	352.4
733.937	392.35
734.379	461.4
734.821	598.35
735.263	942
735.705	1646.3
736.148	2348
736.59	2338.9
737.032	2497.25
737.474	2085
737.916	852.85
738.357	443.75
738.799	342.65
739.241	322.15
739.683	318
740.125	322.9
740.567	321.9
741.008	333.8
741.45	353.25
741.892	371.2
742.334	365.05
742.775	361.25
743.217	343.25
743.658	298
744.1	304.75
744.542	339
744.983	349.35
745.425	365.85
745.866	364.8
746.307	324.4
746.749	351.7
747.19	510.35
747.632	987.85
748.073	1779
748.514	2416.45
748.956	3206
749.397	3735.7
749.838	2569.15
750.279	2401.25
750.72	1305.8
751.162	565.6
751.603	326.45
752.044	263.8
752.485	228.9
752.926	216.2
753.367	209
753.808	206.3
754.249	197.5
754.69	196.6
755.131	193.1
755.572	197.95
756.013	192.9
756.453	199.1
756.894	202
757.335	196.9
757.776	199.6
758.216	211.25
758.657	218.3
759.098	247.6
759.538	298.65
759.979	432.3
760.42	879.4
760.86	2168.25
761.301	4398.6
761.741	5070.75
762.182	5772.85
762.622	3756.8
763.063	1442.55
763.503	634.1
763.943	475.65
764.384	506.3
764.824	464.55
765.264	465.05
765.705	339
766.145	252
766.585	219.15
767.025	238.4
767.465	300
767.906	364.6
768.346	379.5
768.786	391.15
769.226	417.25
769.666	715.5
770.106	1511.7
770.546	2062.85
770.986	2281.95
771.426	1762.05
771.866	773.5
772.306	708.25
772.745	578.75
773.185	545.7
773.625	549.75
774.065	578.15
774.505	709.7
774.944	1032.4
775.384	1332.6
775.824	1453
776.263	1265.55
776.703	824
777.142	604.8
777.582	532
778.021	520
778.461	512.4
778.9	512.7
779.34	498.55
779.779	483.95
780.219	485.25
780.658	482.05
781.097	481.05
781.537	471.7
781.976	479.05
782.415	476.25
782.855	482.4
783.294	482.4
783.733	475.65
784.172	477.75
784.611	473.35
785.05	482.45
785.489	482.35
785.928	482.55
786.367	489.15
786.806	496.85
787.245	504
787.684	505.75
788.123	502.8
788.562	502.4
789.001	494.9
789.44	490.35
789.879	494.85
790.317	497.3
790.756	502.35
791.195	521.75
791.634	575.95
792.072	747.5
792.511	1295.9
792.95	1992.5
793.388	2289.8
793.827	1652.3
794.265	973.45
794.704	658.55
795.142	549.05
795.581	513.2
796.019	496.75
796.458	497.1
796.896	501.95
797.334	521.6
797.773	582.95
798.211	777.8
798.649	1212.2
799.087	1738.15
799.526	2278.9
799.964	2323
800.402	1718
800.84	999.5
801.278	679.75
801.716	555.25
802.154	520
802.592	515.7
803.03	515.3
803.468	510.95
803.906	518.8
804.344	509.9
804.782	505.05
805.22	511.15
805.658	514.65
806.096	525.1
806.533	535.85
806.971	590.4
807.409	702.05
807.847	1033.45
808.284	1998.45
808.722	3147.95
809.16	4298.3
809.597	5746.75
810.035	6882.95
810.472	4568.55
810.91	2231.5
811.347	1211.15
811.785	763.95
812.222	611.2
812.66	563.15
813.097	536.85
813.535	516.45
813.972	494
814.409	486.2
814.846	479.85
815.284	473.95
815.721	479.85
816.158	483.35
816.595	520
817.032	549.25
817.47	533.55
817.907	500.85
818.344	484.45
818.781	478.3
819.218	494.35
819.655	557.05
820.092	599.4
820.529	585.9
820.966	545.3
821.403	501.6
821.839	482.1
822.276	483.1
822.713	513.2
823.15	500.95
823.587	517.15
824.023	646.55
824.46	1053.3
824.897	1521.35
825.333	1265.3
825.77	787.15
826.206	587.4
826.643	498.9
827.08	465.7
827.516	448.75
827.953	448.85
828.389	440.75
828.825	442.95
829.262	438.9
829.698	435.65
830.135	431.05
830.571	428.95
831.007	435.45
831.443	428.3
831.88	435.95
832.316	442
832.752	434.65
833.188	436.2
833.624	436.7
834.06	432.2
834.497	436.75
834.933	431.75
835.369	450.3
835.805	454.45
836.241	449
836.677	463.35
837.112	477
837.548	505.05
837.984	572.45
838.42	803.05
838.856	1549.2
839.292	2599.3
839.727	2037.65
840.163	1542.1
840.599	2109.5
841.034	2952.05
841.47	1708.9
841.906	1035.15
842.341	741.85
842.777	681.7
843.212	724.35
843.648	577.7
844.083	508.35
844.519	465.8
844.954	445.3
845.39	431.95
845.825	426.25
846.261	427
846.696	428.9
847.131	420.45
847.566	425.35
848.002	423.85
848.437	432.6
848.872	429.4
849.307	454.05
849.742	520.2
850.177	761.65
850.613	1178.8
851.048	947.2
851.483	639.05
851.918	518.45
852.353	456.75
852.788	433.4
853.223	424.75
853.657	417
854.092	416.1
854.527	416.25
854.962	417.35
855.397	422
855.832	413.1
856.266	407.35
856.701	410.6
857.136	417.55
857.57	415.55
858.005	423.5
858.44	416.3
858.874	414.8
859.309	415.25
859.743	416.7
860.178	412.55
860.612	416.15
861.047	436.45
861.481	450.75
861.915	422.8
862.35	414.6
862.784	405.8
863.218	402.15
863.653	413
864.087	415.95
864.521	436.85
864.955	486.3
865.39	553.7
865.824	504.85
866.258	527.5
866.692	596.65
867.126	530.45
867.56	459.75
867.994	426.05
868.428	415.85
868.862	427.55
869.296	423.95
869.73	439.25
870.164	427.75
870.598	418.45
871.031	409.45
871.465	404.4
871.899	399.35
872.333	394.75
872.766	396.75
873.2	397
873.634	400.8
874.067	403.5
874.501	402.65
874.935	393.8
875.368	398.15
875.802	397.35
876.235	394.3
876.669	391.75
877.102	389.05
877.535	392.3
877.969	386.8
878.402	392.6
878.836	387.5
879.269	386.4
879.702	390.3
880.135	389.25
880.569	394.05
881.002	390.9
881.435	395.15
881.868	391.35
882.301	390.15
882.734	388.75
883.167	395.45
883.601	388.55
884.034	391.35
884.467	386.05
884.899	389.8
885.332	381.4
885.765	382.65
886.198	382.15
886.631	389.05
887.064	386.4
887.497	385.65
887.929	390.5
888.362	385.25
888.795	386.45
889.228	389.65
889.66	381
890.093	382.45
890.526	385.95
890.958	387.3
891.391	389.65
891.823	380.9
892.256	387.95
892.688	388.15
893.121	382.1
893.553	388.55
893.985	383.15
894.418	382.25
894.85	382.2
895.282	384.95
895.715	380.8
896.147	375.55
896.579	381
897.011	390.1
897.444	382.8
897.876	374.45
898.308	384.05
898.74	384.25
899.172	385.6
899.604	385.6
900.036	381.25
900.468	378.6
900.9	383.8
901.332	387.25
901.764	386
902.196	388
902.628	389.85
903.06	393.7
903.491	393.65
903.923	392.25
904.355	391.05
904.787	395.6
905.218	386.95
905.65	389.85
906.082	390.25
906.513	384.85
906.945	388.25
907.376	388.7
907.808	387.5
908.239	391.25
908.671	394
909.102	395
909.534	401.5
909.965	440
910.397	558.15
910.828	909.1
911.259	701.9
911.691	544.35
912.122	469.05
912.553	414.85
912.984	394.05
913.415	389.6
913.847	388.85
914.278	387.8
914.709	385.35
915.14	382.9
915.571	389.4
916.002	384.35
916.433	380.6
916.864	381.65
917.295	383.35
917.726	382.45
918.157	392.7
918.587	390.95
919.018	390.55
919.449	387.6
919.88	390.7
920.311	405.85
920.741	482.45
921.172	562.7
921.603	464.15
922.033	430.4
922.464	407.9
922.895	392.5
923.325	387.05
923.756	380.35
924.186	391.45
924.617	410
925.047	432.45
925.478	420.8
925.908	408.55
926.338	396.35
926.769	387.7
927.199	388.1
927.629	381.65
928.06	382.95
928.49	386.95
928.92	382.75
929.35	382.35
929.78	377
930.21	376.95
930.641	369.05
931.071	375.55
931.501	374.8
931.931	372.2
932.361	369.85
932.791	379.2
933.221	379.25
933.651	383.75
934.08	387.8
934.51	381.5
934.94	383.7
935.37	379.2
935.8	373
936.229	369.9
936.659	372.2
937.089	374.15
937.519	384.75
937.948	391.55
938.378	381.25
938.807	374.45
939.237	371.05
939.666	372.9
940.096	372.55
940.525	367.25
940.955	375.25
941.384	370.05
941.814	369.8
942.243	367.9
942.672	365.65
943.102	369.35
943.531	367.85
943.96	363.15
944.39	370.2
944.819	373.5
945.248	369.2
945.677	366.95
946.106	369.75
946.535	371.1
946.964	367
947.393	369.7
947.822	369.95
948.251	374
948.68	372.85
949.109	369.85
949.538	368.9
949.967	370.1
950.396	368.95
950.825	371.2
951.254	368.95
951.682	364.8
952.111	365.25
952.54	366.7
952.969	366.2
953.397	366.5
953.826	369.3
954.254	372.15
954.683	369.15
955.112	371.95
955.54	366.05
955.969	365.8
956.397	370.65
956.826	367
957.254	366.7
957.682	368.9
958.111	370.65
958.539	370.3
958.967	367.35
959.396	371.4
959.824	368.65
960.252	367.65
960.68	368.6
961.109	370.05
961.537	374.6
961.965	363.35
962.393	362.7
962.821	368.8
963.249	368.9
963.677	370.45
964.105	397.8
964.533	423.3
964.961	394.25
965.389	376
965.817	372.65
966.245	367.4
966.672	365.35
967.1	371.15
967.528	365.45
967.956	366.1
968.383	369.7
968.811	367.5
969.239	365.95
969.666	365.1
970.094	368.1
970.522	364.55
970.949	365.95
971.377	363.95
971.804	366.3
972.232	364.95
972.659	366.1
973.087	367.35
973.514	363.85
973.941	365.6
974.369	364.35
974.796	365.35
975.223	362.3
975.651	365.25
976.078	367.5
976.505	374.15
976.932	377.4
977.359	380
977.786	380.25
978.214	371.4
978.641	366
979.068	363.95
979.495	364.85
979.922	366.05
980.349	370
980.776	370.85
981.202	366.3
981.629	368.75
982.056	370.1
982.483	362.7
982.91	373.7
983.337	364.9
983.763	367
984.19	371.9
984.617	367
985.043	368.75
985.47	367.9
985.897	368.45
986.323	366.9
986.75	363.3
987.176	367.4
987.603	367.55
988.029	369.35
988.456	366.9
988.882	364.65
989.308	362.7
989.735	364.6
990.161	365.05
990.587	365.25
991.014	366.2
991.44	370.1
991.866	365.75
992.292	365.55
992.719	364.95
993.145	369.8
993.571	365.3
993.997	366.15
994.423	365.65
994.849	361.2
995.275	368.25
995.701	365.4
996.127	360.25
996.553	367.8
996.979	362.05
997.405	370.65
997.83	365.95
998.256	367.85
998.682	362.95
999.108	365.05
999.534	359
999.959	366.95
1000.385	370.4
1000.811	359.75
1001.236	360.9
1001.662	366.2
1002.087	367.9
1002.513	367.9
1002.938	368.25
1003.364	365.65
1003.789	371.75
1004.215	361.25
1004.64	366.1
1005.066	363.6
1005.491	371.25
1005.916	366.65
1006.342	368.95
1006.767	367.1
1007.192	367.95
1007.617	372.45
1008.042	366.6
1008.468	364.65
1008.893	365.4
1009.318	370.6
1009.743	365.5
1010.168	372.1
1010.593	377.3
1011.018	371.3
1011.443	366.15
1011.868	369.8
1012.293	365.75
1012.718	366.05
1013.143	367.25
1013.567	368.4
1013.992	364.55
1014.417	367.9
1014.842	361.1
1015.267	362.7
1015.691	368.15
1016.116	364.25
1016.541	366.15
1016.965	367.05
1017.39	370.25
1017.814	357.95
1018.239	363.9
1018.663	360.2
1019.088	362.8
1019.512	371.65
1019.937	362.8
1020.361	362.05
1020.785	364.85
1021.21	362.85
1021.634	363
1022.058	365.95
1022.483	362.8
1022.907	362
1023.331	361.55
1023.755	360.7
1024.179	366.2
1024.604	361.75
1025.028	368.35
1025.452	369.2
1025.876	367.3
1026.3	364.2
1026.724	365.15
1027.148	367.9
1027.572	365.1
1027.996	366.9
1028.42	366
1028.843	365.65
1029.267	365.5
1029.691	366.95
1030.115	364.25
1030.539	363.4
1030.962	360.65
1031.386	369
1031.81	366.7
1032.233	364.35
1032.657	356.45
1033.08	366.1
1033.504	364.4
1033.927	365.65
1034.351	365
1034.774	361.25
1035.198	366.25
1035.621	365.7
1036.045	366.5
1036.468	370.8
1036.891	366.85
1037.315	368
1037.738	365.25
1038.161	365.75
1038.584	367.65
1039.008	363.25
1039.431	361.5
1039.854	358.4
1040.277	366.4
1040.7	361.3
1041.123	364.45
1041.546	359.85
1041.969	367.75
1042.392	366.45
1042.815	360.65
1043.238	361.3
1043.661	364.6
1044.084	361.25
1044.507	365.35
1044.93	363.4
1045.352	365.35
1045.775	360.9
1046.198	365.35
1046.621	369.1
1047.043	363.5
1047.466	367.95
1047.889	366.6
1048.311	368.75
1048.734	362.1
1049.156	362.4
1049.579	360.05
1050.001	362.9
1050.424	359.35
1050.846	361.05
1051.269	363.05
1051.691	361.75
1052.113	363.9
1052.536	364.2
1052.958	359.25
1053.38	362.15
1053.802	367.1
1054.225	364.1
1054.647	369.75
1055.069	362.05
1055.491	366.8
1055.913	363.9
1056.335	355.65
1056.757	359.45
1057.179	365
1057.601	360.95
1058.023	368.15
1058.445	362.5
1058.867	366.75
1059.289	365.35
1059.711	366.05
1060.133	367.5
1060.555	363.9
1060.976	366.25
1061.398	361.8
1061.82	363.45
1062.241	366.6
1062.663	365.05
1063.085	361.05
1063.506	357.7
1063.928	367.3
1064.35	364.8
1064.771	367.7
1065.193	364.6
1065.614	361.55
1066.035	368
1066.457	367
1066.878	367.45
1067.3	364.05
1067.721	365.85
1068.142	366.1
1068.564	369.55
1068.985	367.3
1069.406	360.65
1069.827	364.5
1070.248	365.85
1070.67	359.2
1071.091	361.45
1071.512	363.65
1071.933	363.85
1072.354	360.25
1072.775	359.9
1073.196	364.15
1073.617	357.4
1074.038	363.35
1074.459	361.4
1074.88	361.05
1075.3	361.95
1075.721	366.75
1076.142	364.75
1076.563	359.7
1076.983	369.9
1077.404	359.6
1077.825	369.15
1078.246	359.4
1078.666	361.35
1079.087	363.55
1079.507	359.8
1079.928	363.3
1080.348	364.2
1080.769	367.15
1081.189	365.3
1081.61	360.4
1082.03	370.95
1082.451	364.85
1082.871	364.05
1083.291	363.95
1083.711	368.2
1084.132	360.5
1084.552	359.5
1084.972	358.55
1085.392	359.2
1085.813	366.9
1086.233	367.2
1086.653	363.15
1087.073	359.1
1087.493	362.6
1087.913	361.8
1088.333	364.3
1088.753	363.5
1089.173	366.15
1089.593	365.65
1090.013	364.25
1090.433	361.45
1090.852	366.25
1091.272	358.75
1091.692	365.85
1092.112	363.4
1092.531	360.5
1092.951	364.55
1093.371	363.45
1093.79	365.1
1094.21	362.75
1094.63	364.25
1095.049	367.25
1095.469	358.8
1095.888	366.75
1096.308	365.1
1096.727	359.2
1097.146	362.55
1097.566	364.95
1097.985	366.6
1098.405	365.1
1098.824	365.3
1099.243	359.05
1099.662	362.7
1100.082	362.7
1100.501	366.6
1100.92	370.8
1101.339	369.15
1101.758	365.85
