Data from MSPlasma+Separation6_Subt14_10-15-22-957.txt Node
Date: Fri Jul 21 10:15:22 EDT 2017
User: Ender
Spectrometer: HR+D1039
Trigger mode: 0
Integration Time (sec): 6.430000E-3
Scans to average: 20
Electric dark correction enabled: true
Nonlinearity correction enabled: false
Boxcar width: 0
XAxis mode: Wavelengths
Number of Pixels in Spectrum: 2048
>>>>>Begin Spectral Data<<<<<
187.836	2.48
188.309	2.48
188.782	2.48
189.255	0.93
189.728	2.98
190.201	1.18
190.674	-0.47
191.147	-3.52
191.619	-2.97
192.092	-2.02
192.565	-0.82
193.038	1.23
193.511	0.33
193.984	-1.92
194.456	0.23
194.929	-1.47
195.402	0.08
195.874	3.83
196.347	5.13
196.82	2.88
197.292	-5.87
197.765	3.03
198.237	1.28
198.71	-4.82
199.182	-1.27
199.655	4.53
200.127	3.33
200.6	1.28
201.072	2.43
201.544	-2.52
202.017	1.88
202.489	-2.67
202.961	1.68
203.433	-1.92
203.906	2.43
204.378	5.23
204.85	3.63
205.322	0.38
205.794	7.98
206.266	0.48
206.739	8.03
207.211	1.73
207.683	-2.47
208.155	5.13
208.627	2.68
209.099	7.08
209.57	-0.32
210.042	4.23
210.514	4.18
210.986	16.68
211.458	26.03
211.93	12.23
212.402	8.63
212.873	1.98
213.345	-1.52
213.817	9.03
214.288	-2.32
214.76	7.13
215.232	1.13
215.703	3.48
216.175	6.18
216.646	0.43
217.118	1.73
217.589	4.08
218.061	2.88
218.532	2.48
219.004	11.38
219.475	14.68
219.946	25.63
220.418	33.28
220.889	25.68
221.36	11.98
221.832	6.33
222.303	5.23
222.774	9.53
223.245	1.48
223.717	5.68
224.188	6.53
224.659	4.08
225.13	6.08
225.601	6.68
226.072	6.63
226.543	12.23
227.014	5.38
227.485	14.33
227.956	9.33
228.427	12.23
228.898	12.13
229.369	12.28
229.839	14.08
230.31	11.98
230.781	11.38
231.252	16.43
231.722	25.53
232.193	34.08
232.664	37.83
233.135	56.38
233.605	58.08
234.076	44.53
234.546	35.13
235.017	45.28
235.487	43.83
235.958	44.08
236.428	65.43
236.899	99.73
237.369	109.98
237.84	81.73
238.31	105.98
238.78	104.73
239.251	107.78
239.721	104.43
240.191	81.43
240.662	51.98
241.132	38.83
241.602	51.93
242.072	72.18
242.542	81.63
243.013	58.63
243.483	55.93
243.953	36.88
244.423	39.18
244.893	52.13
245.363	52.73
245.833	52.53
246.303	60.43
246.773	78.68
247.243	81.13
247.712	92.83
248.182	107.33
248.652	112.53
249.122	169.83
249.592	316.78
250.061	472.58
250.531	760.38
251.001	579.08
251.471	481.53
251.94	363.73
252.41	197.38
252.879	133.53
253.349	100.58
253.818	85.63
254.288	72.78
254.757	69.38
255.227	99.03
255.696	78.88
256.166	70.13
256.635	79.43
257.105	98.68
257.574	123.88
258.043	125.58
258.513	228.33
258.982	292.03
259.451	201.23
259.92	207.68
260.389	193.63
260.859	137.83
261.328	164.43
261.797	239.08
262.266	211.58
262.735	97.88
263.204	64.13
263.673	57.53
264.142	46.93
264.611	54.83
265.08	56.23
265.549	63.03
266.018	58.13
266.487	52.78
266.955	52.08
267.424	59.88
267.893	62.63
268.362	64.58
268.83	56.13
269.299	61.33
269.768	75.48
270.236	89.68
270.705	95.68
271.174	92.68
271.642	101.23
272.111	118.38
272.579	186.38
273.048	292.58
273.516	366.18
273.985	371.38
274.453	281.18
274.922	175.28
275.39	108.43
275.858	101.38
276.327	87.13
276.795	87.58
277.263	98.63
277.731	133.93
278.2	247.03
278.668	321.48
279.136	242.78
279.604	161.78
280.072	102.73
280.54	89.23
281.008	91.13
281.477	95.33
281.945	94.03
282.413	98.68
282.881	99.53
283.348	100.03
283.816	103.43
284.284	113.68
284.752	106.58
285.22	108.38
285.688	122.78
286.156	199.53
286.623	545.08
287.091	1072.08
287.559	553.53
288.026	213.93
288.494	131.33
288.962	109.48
289.429	101.78
289.897	101.53
290.364	90.88
290.832	98.58
291.3	97.28
291.767	104.78
292.234	106.98
292.702	107.68
293.169	115.23
293.637	124.43
294.104	118.73
294.571	114.83
295.039	111.93
295.506	110.93
295.973	118.48
296.44	114.28
296.908	127.18
297.375	142.68
297.842	140.48
298.309	122.73
298.776	121.83
299.243	127.98
299.71	117.53
300.177	117.98
300.644	135.68
301.111	142.63
301.578	135.23
302.045	125.83
302.512	122.78
302.979	129.38
303.446	138.98
303.913	138.58
304.379	149.53
304.846	159.88
305.313	177.08
305.78	215.93
306.246	260.68
306.713	280.88
307.18	243.88
307.646	265.08
308.113	233.33
308.579	182.83
309.046	183.43
309.512	181.53
309.979	163.98
310.445	152.88
310.912	161.83
311.378	160.03
311.845	157.53
312.311	157.23
312.777	152.43
313.244	164.48
313.71	174.48
314.176	189.38
314.642	214.28
315.109	249.78
315.575	235.08
316.041	214.23
316.507	203.43
316.973	228.53
317.439	219.12
317.905	247.62
318.371	232.73
318.837	222.73
319.303	242.08
319.769	222.33
320.235	242.03
320.701	286.23
321.167	305.78
321.633	362.38
322.099	504.63
322.564	675.58
323.03	528.93
323.496	358.78
323.962	348.23
324.427	326.38
324.893	283.63
325.359	272.28
325.824	232.73
326.29	251.58
326.755	252.28
327.221	253.48
327.686	261.48
328.152	248.28
328.617	229.03
329.083	234.73
329.548	249.18
330.014	256.83
330.479	278.08
330.944	321.93
331.41	368.68
331.875	352.58
332.34	366.08
332.805	426.83
333.271	541.53
333.736	720.83
334.201	644.78
334.666	478.38
335.131	539.48
335.596	425.88
336.061	453.13
336.526	458.18
336.991	397.68
337.456	434.23
337.921	346.53
338.386	281.48
338.851	252.18
339.316	240.53
339.781	238.23
340.246	235.18
340.711	233.83
341.175	237.63
341.64	251.48
342.105	254.68
342.569	270.43
343.034	289.08
343.499	296.68
343.963	282.33
344.428	281.03
344.893	285.68
345.357	288.23
345.822	281.33
346.286	288.73
346.751	305.53
347.215	297.13
347.679	305.38
348.144	325.58
348.608	322.48
349.073	338.73
349.537	370.33
350.001	368.68
350.465	346.58
350.93	334.08
351.394	335.03
351.858	329.78
352.322	346.53
352.786	348.73
353.25	342.68
353.715	346.63
354.179	364.38
354.643	378.88
355.107	390.73
355.571	413.88
356.035	421.33
356.498	406.53
356.962	431.08
357.426	421.68
357.89	385.83
358.354	363.93
358.818	357.28
359.281	372.93
359.745	388.33
360.209	386.43
360.673	388.68
361.136	383.03
361.6	384.08
362.064	410.88
362.527	422.63
362.991	421.63
363.454	414.83
363.918	430.28
364.381	416.88
364.845	410.08
365.308	409.58
365.772	401.03
366.235	406.93
366.698	435.73
367.162	523.62
367.625	584.68
368.088	470.38
368.552	427.88
369.015	433.38
369.478	463.93
369.941	475.43
370.404	485.58
370.867	508.38
371.331	519.43
371.794	529.73
372.257	591.28
372.72	613.08
373.183	589.58
373.646	590.63
374.109	598.28
374.572	696.28
375.035	813.03
375.497	621.98
375.96	496.33
376.423	472.03
376.886	475.83
377.349	483.98
377.811	489.63
378.274	502.58
378.737	503.78
379.199	519.88
379.662	526.73
380.125	569.93
380.587	622.98
381.05	665.18
381.512	661.18
381.975	643.53
382.437	629.93
382.9	635.83
383.362	626.38
383.825	674.63
384.287	846.62
384.75	945.28
385.212	831.13
385.674	687.08
386.136	628.62
386.599	623.38
387.061	647.98
387.523	681.08
387.985	678.18
388.447	704.03
388.91	783.93
389.372	953.08
389.834	887.93
390.296	732.78
390.758	740.58
391.22	769.13
391.682	931.43
392.144	1426.22
392.606	1331.58
393.068	801.53
393.529	733.73
393.991	717.43
394.453	696.88
394.915	732.33
395.377	885.93
395.838	1073.38
396.3	780.18
396.762	609.68
397.224	583.53
397.685	575.23
398.147	587.53
398.608	586.03
399.07	602.38
399.531	584.28
399.993	596.78
400.454	601.38
400.916	600.28
401.377	619.28
401.839	627.73
402.3	628.28
402.762	655.93
403.223	717.88
403.684	728.13
404.145	675.23
404.607	654.83
405.068	658.43
405.529	671.12
405.99	684.43
406.451	691.93
406.913	670.23
407.374	695.98
407.835	695.98
408.296	710.28
408.757	712.93
409.218	742.08
409.679	748.28
410.14	755.88
410.601	785.98
411.062	826.03
411.522	941.23
411.983	1042.83
412.444	890.68
412.905	783.38
413.366	786.98
413.826	809.98
414.287	909.03
414.748	1081.83
415.208	1095.22
415.669	923.83
416.13	840.23
416.59	827.38
417.051	848.68
417.511	887.13
417.972	957.98
418.432	1028.47
418.893	1154.53
419.353	1080.23
419.814	834.93
420.274	754.53
420.734	748.43
421.195	799.78
421.655	830.53
422.115	800.68
422.576	772.63
423.036	776.78
423.496	803.28
423.956	842.03
424.416	902.43
424.876	1017.73
425.336	1016.03
425.797	1014.03
426.257	1017.78
426.717	949.93
427.177	893.58
427.637	909.68
428.097	957.03
428.556	1009.73
429.016	1098.98
429.476	1098.22
429.936	1041.33
430.396	1014.38
430.856	1027.83
431.315	1066.83
431.775	1139.22
432.235	1206.62
432.694	1212.38
433.154	1150.88
433.614	1112.03
434.073	1062.03
434.533	976.93
434.993	948.53
435.452	954.03
435.912	938.58
436.371	937.48
436.83	932.18
437.29	945.38
437.749	897.48
438.209	886.88
438.668	900.58
439.127	906.43
439.587	887.78
440.046	852.78
440.505	869.53
440.964	879.88
441.424	893.58
441.883	918.13
442.342	865.38
442.801	835.68
443.26	852.73
443.719	847.08
444.178	840.38
444.637	856.68
445.096	847.43
445.555	870.18
446.014	874.63
446.473	842.98
446.932	842.18
447.391	856.48
447.849	872.78
448.308	870.83
448.767	884.98
449.226	912.38
449.685	914.03
450.143	950.88
450.602	954.48
451.061	912.48
451.519	920.93
451.978	943.13
452.436	984.63
452.895	931.68
453.353	907.83
453.812	920.68
454.27	904.88
454.729	875.03
455.187	886.68
455.646	893.48
456.104	897.53
456.562	892.53
457.021	885.28
457.479	840.73
457.937	874.38
458.395	901.78
458.854	885.63
459.312	869.13
459.77	882.43
460.228	903.48
460.686	910.68
461.144	912.13
461.602	901.58
462.06	906.38
462.518	923.63
462.976	920.93
463.434	925.73
463.892	946.78
464.35	958.18
464.808	969.23
465.266	982.43
465.724	991.28
466.181	995.68
466.639	985.93
467.097	1033.53
467.555	1072.62
468.012	1059.03
468.47	1070.12
468.928	1111.33
469.385	1134.18
469.843	1141.68
470.3	1142.33
470.758	1175.88
471.215	1190.38
471.673	1213.93
472.13	1242.88
472.588	1285.93
473.045	1286.22
473.503	1302.78
473.96	1346.17
474.417	1361.93
474.875	1434.73
475.332	1485.88
475.789	1500.88
476.246	1549.82
476.704	1613.28
477.161	1656.17
477.618	1703.23
478.075	1785.43
478.532	1925.28
478.989	2073.68
479.446	2294.58
479.903	2425.43
480.36	2643.47
480.817	2811.68
481.274	3016.12
481.731	3310.48
482.188	3561.98
482.645	3844.48
483.102	4083.78
483.558	4356.52
484.015	4578.98
484.472	4583.03
484.929	4450.08
485.385	4246.33
485.842	4148.68
486.299	3930.83
486.755	3563.97
487.212	3182.62
487.668	2873.53
488.125	2665.97
488.582	2454.38
489.038	2360.82
489.494	2290.78
489.951	2224.53
490.407	2176.98
490.864	2146.88
491.32	2094.82
491.776	2073.78
492.233	2059.18
492.689	2048.32
493.145	2009.18
493.602	2008.57
494.058	2030.88
494.514	2078.33
494.97	2081.12
495.426	2112.48
495.882	2111.88
496.338	2111.38
496.794	2208.98
497.251	2209.48
497.707	2227.28
498.163	2225.73
498.618	2220.42
499.074	2232.13
499.53	2281.38
499.986	2307.38
500.442	2332.82
500.898	2335.72
501.354	2383.03
501.809	2387.72
502.265	2425.32
502.721	2540.88
503.177	2597.72
503.632	2456.08
504.088	2490.28
504.543	2727.48
504.999	2543.63
505.455	2262.63
505.91	2156.73
506.366	2132.52
506.821	2116.72
507.277	2103.68
507.732	2116.53
508.187	2106.73
508.643	2125.53
509.098	2135.07
509.553	2150.23
510.009	2179.62
510.464	2216.63
510.919	2257.12
511.375	2278.62
511.83	2296.97
512.285	2336.08
512.74	2394.18
513.195	2422.68
513.65	2468.52
514.105	2514.77
514.56	2527.13
515.015	2562.03
515.47	2599.23
515.925	2583.08
516.38	2567.98
516.835	2559.93
517.29	2557.83
517.745	2577.38
518.2	2539.57
518.655	2452.18
519.109	2419.03
519.564	2392.82
520.019	2391.43
520.474	2356.08
520.928	2329.18
521.383	2321.38
521.838	2316.97
522.292	2284.63
522.747	2263.23
523.201	2259.88
523.656	2227.12
524.11	2224.08
524.565	2221.57
525.019	2223.03
525.474	2233.38
525.928	2228.17
526.382	2217.63
526.837	2192.88
527.291	2199.98
527.745	2187.93
528.2	2190.88
528.654	2167.03
529.108	2170.33
529.562	2176.77
530.016	2171.82
530.47	2192.27
530.925	2178.03
531.379	2178.83
531.833	2217.72
532.287	2190.78
532.741	2193.38
533.195	2185.13
533.649	2195.23
534.103	2202.27
534.556	2166.48
535.01	2197.17
535.464	2197.18
535.918	2209.03
536.372	2208.78
536.826	2196.03
537.279	2174.88
537.733	2181.92
538.187	2189.93
538.64	2189.62
539.094	2208.57
539.548	2234.33
540.001	2230.03
540.455	2243.57
540.908	2261.57
541.362	2289.18
541.815	2300.18
542.269	2344.47
542.722	2326.12
543.175	2357.03
543.629	2371.23
544.082	2395.77
544.536	2421.63
544.989	2427.98
545.442	2430.18
545.895	2447.98
546.349	2432.38
546.802	2423.83
547.255	2426.83
547.708	2451.77
548.161	2483.12
548.614	2488.48
549.067	2504.53
549.52	2465.73
549.973	2453.82
550.426	2434.28
550.879	2411.38
551.332	2406.83
551.785	2430.62
552.238	2452.73
552.691	2445.27
553.144	2491.43
553.596	2525.92
554.049	2552.17
554.502	2607.53
554.955	2645.03
555.407	2690.88
555.86	2674.33
556.313	2640.57
556.765	2611.93
557.218	2582.57
557.67	2565.48
558.123	2537.93
558.576	2518.98
559.028	2527.97
559.48	2557.83
559.933	2539.22
560.385	2456.88
560.838	2384.72
561.29	2307.93
561.742	2298.18
562.195	2257.68
562.647	2236.18
563.099	2243.88
563.551	2227.18
564.004	2255.62
564.456	2232.12
564.908	2174.43
565.36	2133.32
565.812	2102.92
566.264	2080.88
566.716	2046.03
567.168	2024.78
567.62	2031.42
568.072	2011.07
568.524	1981.28
568.976	1971.88
569.428	1959.78
569.88	1955.62
570.332	1959.53
570.784	1958.32
571.235	1947.32
571.687	1969.98
572.139	1968.33
572.59	1985.48
573.042	2000.37
573.494	1991.18
573.945	1967.13
574.397	1934.82
574.849	1929.98
575.3	1925.47
575.752	1886.13
576.203	1883.58
576.655	1909.03
577.106	1871.38
577.557	1866.43
578.009	1859.43
578.46	1851.22
578.912	1842.03
579.363	1856.58
579.814	1838.08
580.265	1838.57
580.717	1848.62
581.168	1836.13
581.619	1847.48
582.07	1885.73
582.521	1861.28
582.972	1877.33
583.423	1893.62
583.875	1929.72
584.326	2039.42
584.777	2223.68
585.227	2417.63
585.678	2591.93
586.129	2635.22
586.58	2681.18
587.031	2724.27
587.482	2878.03
587.933	3373.98
588.384	3095.67
588.834	2554.68
589.285	2159.28
589.736	2110.68
590.186	2115.17
590.637	2093.72
591.088	2051.77
591.538	2019.87
591.989	1998.88
592.439	1992.18
592.89	1977.68
593.34	1981.78
593.791	1992.87
594.241	1997.58
594.692	2025.93
595.142	2008.52
595.593	1973.12
596.043	1976.92
596.493	2010.63
596.943	2052.07
597.394	2032.48
597.844	2006.42
598.294	2032.98
598.744	2107.03
599.195	2202.62
599.645	2311.52
600.095	2458.38
600.545	2557.23
600.995	2676.38
601.445	2771.62
601.895	2894.73
602.345	2993.03
602.795	2944.43
603.245	2806.68
603.695	2631.13
604.145	2484.98
604.594	2375.23
605.044	2252.28
605.494	2117.98
605.944	2008.47
606.393	1969.12
606.843	1943.18
607.293	1938.18
607.743	1942.88
608.192	1959.08
608.642	1951.03
609.091	1967.72
609.541	1965.53
609.99	1955.93
610.44	1903.83
610.889	1900.62
611.339	1867.43
611.788	1856.78
612.238	1891.33
612.687	1910.53
613.136	1933.47
613.586	1960.48
614.035	1961.42
614.484	1992.83
614.933	2005.53
615.383	1953.38
615.832	1893.78
616.281	1845.78
616.73	1781.12
617.179	1749.63
617.628	1703.03
618.077	1670.72
618.526	1655.78
618.975	1650.12
619.424	1605.38
619.873	1607.83
620.322	1607.33
620.771	1604.13
621.22	1572.12
621.669	1546.38
622.118	1539.08
622.567	1513.73
623.015	1498.73
623.464	1487.23
623.913	1470.58
624.361	1477.78
624.81	1476.08
625.259	1454.93
625.707	1442.13
626.156	1452.33
626.604	1467.68
627.053	1473.18
627.501	1472.38
627.95	1476.78
628.398	1499.83
628.847	1474.48
629.295	1481.48
629.744	1507.67
630.192	1534.58
630.64	1658.42
631.089	1820.43
631.537	1895.83
631.985	1906.97
632.433	1978.62
632.881	1985.13
633.33	2380.67
633.778	2596.03
634.226	1827.83
634.674	1702.22
635.122	1681.53
635.57	1702.58
636.018	1980.97
636.466	1605.83
636.914	1432.88
637.362	1439.97
637.81	1448.12
638.258	1498.38
638.705	1503.08
639.153	1547.98
639.601	1555.08
640.049	1575.97
640.497	1628.98
640.944	1666.12
641.392	1590.88
641.84	1494.08
642.287	1441.08
642.735	1433.23
643.182	1411.98
643.63	1418.53
644.078	1414.82
644.525	1436.38
644.973	1478.98
645.42	1481.22
645.867	1505.72
646.315	1533.38
646.762	1578.78
647.21	1621.07
647.657	1705.68
648.104	1780.22
648.551	1834.68
648.999	1975.78
649.446	2178.82
649.893	2449.53
650.34	2876.03
650.787	3551.18
651.234	4618.23
651.682	6460.38
652.129	9252.92
652.576	13191.38
653.023	15537.07
653.47	15540.27
653.917	15540.32
654.363	15540.22
654.81	15537.22
655.257	15537.88
655.704	15525.72
656.151	9921.97
656.598	6419.57
657.044	4580.38
657.491	3578.08
657.938	2892.07
658.385	2465.97
658.831	2189.73
659.278	1947.13
659.724	1795.43
660.171	1663.28
660.618	1554.48
661.064	1461.18
661.511	1418.28
661.957	1371.92
662.404	1338.23
662.85	1327.23
663.296	1307.18
663.743	1280.38
664.189	1271.08
664.635	1255.23
665.082	1245.98
665.528	1225.38
665.974	1203.38
666.42	1190.73
666.867	1208.22
667.313	1219.23
667.759	1272.78
668.205	1264.78
668.651	1283.28
669.097	1240.98
669.543	1348.53
669.989	1276.88
670.435	1122.78
670.881	1121.68
671.327	1156.93
671.773	1237.72
672.219	1333.83
672.665	1419.42
673.11	1472.38
673.556	1479.08
674.002	1501.62
674.448	1530.82
674.893	1304.97
675.339	1137.78
675.785	1049.28
676.23	998.73
676.676	955.63
677.122	935.63
677.567	910.68
678.013	884.78
678.458	876.23
678.904	882.38
679.349	864.83
679.794	866.43
680.24	863.23
680.685	855.58
681.131	860.63
681.576	869.33
682.021	869.93
682.466	872.68
682.912	876.83
683.357	919.98
683.802	1000.28
684.247	1104.88
684.692	1166.83
685.137	1219.83
685.583	1229.83
686.028	1296.18
686.473	1226.72
686.918	1059.83
687.363	966.03
687.807	925.33
688.252	872.38
688.697	850.73
689.142	820.18
689.587	832.43
690.032	855.08
690.477	881.28
690.921	921.88
691.366	971.33
691.811	1012.63
692.255	1100.53
692.7	1335.78
693.145	1940.28
693.589	2963.32
694.034	3495.43
694.478	3692.73
694.923	3357.03
695.367	4768.23
695.812	2891.23
696.256	1237.68
696.701	906.08
697.145	843.18
697.59	821.48
698.034	797.23
698.478	799.53
698.922	808.62
699.367	830.38
699.811	872.83
700.255	949.23
700.699	1020.33
701.143	1122.18
701.588	1170.38
702.032	1224.23
702.476	1253.03
702.92	1335.53
703.364	1764.83
703.808	2715.68
704.252	3353.78
704.696	3493.53
705.14	3303.18
705.584	4503.83
706.027	2495.47
706.471	1263.98
706.915	944.58
707.359	840.98
707.803	797.12
708.246	774.03
708.69	764.83
709.134	749.28
709.577	749.33
710.021	764.08
710.465	752.18
710.908	753.68
711.352	788.53
711.795	874.13
712.239	934.78
712.682	966.08
713.126	961.58
713.569	1063.97
714.012	875.63
714.456	777.93
714.899	725.23
715.342	677.88
715.786	651.63
716.229	630.28
716.672	613.68
717.115	625.58
717.558	627.23
718.002	644.73
718.445	680.68
718.888	708.48
719.331	723.58
719.774	731.18
720.217	711.78
720.66	682.43
721.103	637.88
721.546	604.53
721.989	593.18
722.432	588.68
722.874	588.23
723.317	596.08
723.76	651.18
724.203	802.88
724.645	1070.68
725.088	1248.47
725.531	1213.58
725.974	1323.18
726.416	1180.12
726.859	735.83
727.301	610.83
727.744	582.43
728.187	585.53
728.629	602.03
729.071	622.93
729.514	649.28
729.956	676.38
730.399	681.73
730.841	679.93
731.283	667.83
731.726	648.23
732.168	656.33
732.61	686.03
733.053	747.48
733.495	827.78
733.937	922.33
734.379	1090.48
734.821	1393.88
735.263	2227.07
735.705	4000.28
736.148	5809.68
736.59	5728.43
737.032	6200.62
737.474	5080.83
737.916	1951.73
738.357	1029.43
738.799	799.08
739.241	738.23
739.683	741.78
740.125	755.53
740.567	757.98
741.008	793.18
741.45	814.38
741.892	853.18
742.334	846.98
742.775	841.12
743.217	798.23
743.658	693.28
744.1	706.63
744.542	774.48
744.983	794.73
745.425	833.73
745.866	831.12
746.307	754.62
746.749	819.58
747.19	1199.83
747.632	2372.23
748.073	4378.43
748.514	5968.82
748.956	7878.22
749.397	9137.02
749.838	6289.98
750.279	5969.83
750.72	3073.07
751.162	1294.33
751.603	750.48
752.044	603.63
752.485	538.68
752.926	505.38
753.367	477.68
753.808	468.83
754.249	461.88
754.69	452.33
755.131	458.23
755.572	451.23
756.013	452.63
756.453	456.88
756.894	464.23
757.335	461.83
757.776	470.73
758.216	481.38
758.657	524.58
759.098	570.23
759.538	691.08
759.979	1015.83
760.42	2074.13
760.86	5342.78
761.301	10838.47
761.741	12459.12
762.182	14089.22
762.622	9155.38
763.063	3316.58
763.503	1456.28
763.943	1110.78
764.384	1185.78
764.824	1119.38
765.264	1104.88
765.705	789.38
766.145	585.38
766.585	509.28
767.025	544.08
767.465	704.28
767.906	853.08
768.346	890.13
768.786	931.48
769.226	969.38
769.666	1695.83
770.106	3682.88
770.546	5100.43
770.986	5709.23
771.426	4280.33
771.866	1787.38
772.306	829.58
772.745	526.68
773.185	447.53
773.625	453.18
774.065	542.83
774.505	899.33
774.944	1809.97
775.384	2691.32
775.824	3045.68
776.263	2471.43
776.703	1217.62
777.142	613.88
777.582	414.63
778.021	376.58
778.461	353.68
778.9	345.03
779.34	316.08
779.779	308.88
780.219	294.63
780.658	290.48
781.097	286.38
781.537	275.28
781.976	275.03
782.415	271.43
782.855	270.43
783.294	270.58
783.733	262.08
784.172	277.68
784.611	267.68
785.05	276.48
785.489	281.98
785.928	289.43
786.367	299.93
786.806	310.63
787.245	341.28
787.684	347.48
788.123	344.33
788.562	326.08
789.001	319.78
789.44	307.78
789.879	305.23
790.317	311.28
790.756	331.93
791.195	382.48
791.634	518.48
792.072	945.23
792.511	2337.38
792.95	4221.38
793.388	5024.83
793.827	3241.28
794.265	1489.33
794.704	723.18
795.142	441.68
795.581	365.98
796.019	332.88
796.458	330.23
796.896	339.48
797.334	394.38
797.773	527.68
798.211	1018.93
798.649	2120.82
799.087	3543.97
799.526	4957.23
799.964	5046.23
800.402	3426.23
800.84	1561.28
801.278	758.03
801.716	466.03
802.154	382.83
802.592	360.13
803.03	357.78
803.468	373.33
803.906	367.58
804.344	356.28
804.782	348.23
805.22	358.08
805.658	362.48
806.096	394.78
806.533	441.18
806.971	560.73
807.409	819.68
807.847	1663.73
808.284	4231.53
808.722	7268.58
809.16	10212.17
809.597	13773.98
810.035	15542.22
810.472	10837.97
810.91	4653.28
811.347	2084.93
811.785	978.38
812.222	622.43
812.66	472.38
813.097	400.43
813.535	348.23
813.972	320.62
814.409	294.48
814.846	280.48
815.284	264.58
815.721	268.78
816.158	286.63
816.595	368.93
817.032	446.38
817.47	409.78
817.907	321.48
818.344	285.48
818.781	273.58
819.218	318.03
819.655	451.73
820.092	581.53
820.529	541.38
820.966	442.23
821.403	332.33
821.839	293.78
822.276	306.58
822.713	350.48
823.15	340.28
823.587	377.98
824.023	690.53
824.46	1732.17
824.897	2958.03
825.333	2250.68
825.77	1041.43
826.206	551.78
826.643	321.78
827.08	244.28
827.516	214.33
827.953	199.68
828.389	190.83
828.825	181.83
829.262	177.08
829.698	171.98
830.135	159.83
830.571	158.48
831.007	165.28
831.443	160.73
831.88	168.08
832.316	173.93
832.752	168.73
833.188	168.48
833.624	169.63
834.06	174.48
834.497	177.43
834.933	177.03
835.369	191.78
835.805	205.23
836.241	211.23
836.677	232.23
837.112	273.53
837.548	335.68
837.984	501.78
838.42	1089.38
838.856	3039.93
839.292	5883.78
839.727	4270.98
840.163	2953.82
840.599	4506.78
841.034	6785.03
841.47	3328.32
841.906	1645.78
842.341	940.08
842.777	829.13
843.212	967.23
843.648	567.13
844.083	359.53
844.519	247.13
844.954	196.03
845.39	168.83
845.825	162.48
846.261	156.13
846.696	148.28
847.131	142.53
847.566	144.48
848.002	149.23
848.437	158.08
848.872	164.48
849.307	208.08
849.742	382.83
850.177	999.08
850.613	2077.38
851.048	1467.08
851.483	677.73
851.918	379.03
852.353	222.98
852.788	176.33
853.223	146.48
853.657	134.13
854.092	123.68
854.527	119.38
854.962	120.53
855.397	130.68
855.832	115.83
856.266	106.28
856.701	107.48
857.136	106.78
857.57	127.43
858.005	148.38
858.44	133.08
858.874	128.18
859.309	130.88
859.743	127.33
860.178	122.78
860.612	135.13
861.047	164.03
861.481	214.28
861.915	154.33
862.35	124.83
862.784	106.08
863.218	103.43
863.653	106.63
864.087	129.73
864.521	171.43
864.955	290.03
865.39	477.83
865.824	344.73
866.258	397.03
866.692	555.68
867.126	405.88
867.56	228.43
867.994	153.83
868.428	129.73
868.862	152.03
869.296	145.73
869.73	173.23
870.164	149.78
870.598	141.63
871.031	99.18
871.465	94.83
871.899	83.28
872.333	72.13
872.766	76.78
873.2	80.33
873.634	77.23
874.067	84.28
874.501	90.23
874.935	81.38
875.368	84.08
875.802	77.03
876.235	69.48
876.669	70.28
877.102	64.88
877.535	61.63
877.969	60.63
878.402	68.63
878.836	64.78
879.269	62.68
879.702	65.78
880.135	66.38
880.569	77.43
881.002	65.53
881.435	64.18
881.868	61.08
882.301	57.28
882.734	55.63
883.167	61.78
883.601	53.73
884.034	54.63
884.467	48.78
884.899	54.13
885.332	49.83
885.765	49.93
886.198	52.38
886.631	51.43
887.064	50.78
887.497	47.13
887.929	53.68
888.362	52.43
888.795	49.33
889.228	49.78
889.66	49.28
890.093	46.33
890.526	49.43
890.958	50.08
891.391	50.98
891.823	43.43
892.256	48.73
892.688	48.38
893.121	42.33
893.553	53.18
893.985	47.03
894.418	45.03
894.85	45.68
895.282	47.93
895.715	40.63
896.147	39.73
896.579	39.58
897.011	49.38
897.444	44.38
897.876	37.88
898.308	43.98
898.74	45.43
899.172	47.78
899.604	46.88
900.036	44.48
900.468	41.08
900.9	48.38
901.332	61.13
901.764	56.88
902.196	60.48
902.628	54.48
903.06	71.93
903.491	76.93
903.923	67.68
904.355	72.13
904.787	71.13
905.218	64.23
905.65	58.43
906.082	55.13
906.513	54.73
906.945	54.73
907.376	57.13
907.808	60.58
908.239	72.63
908.671	72.38
909.102	76.63
909.534	101.03
909.965	187.73
910.397	484.88
910.828	1385.12
911.259	830.78
911.691	452.98
912.122	264.98
912.553	134.88
912.984	77.08
913.415	66.28
913.847	60.28
914.278	57.33
914.709	50.93
915.14	47.43
915.571	47.03
916.002	44.88
916.433	43.98
916.864	45.93
917.295	47.73
917.726	53.98
918.157	66.18
918.587	66.23
919.018	62.38
919.449	59.28
919.88	75.78
920.311	108.43
920.741	291.03
921.172	504.93
921.603	255.53
922.033	167.23
922.464	110.18
922.895	67.58
923.325	50.38
923.756	49.73
924.186	74.43
924.617	112.43
925.047	176.68
925.478	164.38
925.908	114.13
926.338	81.38
926.769	65.03
927.199	54.53
927.629	47.28
928.06	44.93
928.49	41.73
928.92	42.93
929.35	34.83
929.78	25.78
930.21	29.28
930.641	23.48
931.071	25.83
931.501	23.73
931.931	22.93
932.361	26.28
932.791	30.23
933.221	26.13
933.651	43.53
934.08	71.53
934.51	39.03
934.94	39.68
935.37	27.28
935.8	22.93
936.229	20.23
936.659	20.53
937.089	33.68
937.519	48.03
937.948	62.58
938.378	41.08
938.807	27.93
939.237	22.43
939.666	21.68
940.096	18.63
940.525	8.73
940.955	18.93
941.384	13.03
941.814	11.13
942.243	10.98
942.672	10.58
943.102	6.93
943.531	8.48
943.96	7.83
944.39	11.48
944.819	9.23
945.248	10.68
945.677	10.78
946.106	9.08
946.535	11.28
946.964	12.73
947.393	7.98
947.822	11.68
948.251	13.78
948.68	16.48
949.109	9.53
949.538	11.23
949.967	10.88
950.396	9.38
950.825	14.88
951.254	7.03
951.682	5.43
952.111	2.78
952.54	7.83
952.969	9.38
953.397	7.98
953.826	6.13
954.254	15.73
954.683	12.63
955.112	13.43
955.54	7.13
955.969	5.93
956.397	7.68
956.826	8.03
957.254	4.18
957.682	8.98
958.111	7.48
958.539	13.28
958.967	7.13
959.396	7.83
959.824	6.23
960.252	8.48
960.68	7.48
961.109	10.03
961.537	16.38
961.965	1.68
962.393	12.13
962.821	9.48
963.249	12.83
963.677	18.78
964.105	86.18
964.533	142.88
964.961	71.68
965.389	40.43
965.817	23.28
966.245	13.38
966.672	7.08
967.1	9.18
967.528	6.78
967.956	7.28
968.383	13.43
968.811	5.53
969.239	7.93
969.666	10.68
970.094	6.13
970.522	2.13
970.949	5.13
971.377	2.03
971.804	3.48
972.232	7.18
972.659	5.03
973.087	4.08
973.514	3.88
973.941	-0.02
974.369	5.38
974.796	6.93
975.223	6.73
975.651	10.63
976.078	8.78
976.505	11.03
976.932	38.58
977.359	43.68
977.786	26.33
978.214	16.48
978.641	6.93
979.068	9.28
979.495	5.13
979.922	4.63
980.349	7.68
980.776	7.58
981.202	6.98
981.629	12.88
982.056	7.08
982.483	3.18
982.91	9.03
983.337	-1.27
983.763	5.93
984.19	8.98
984.617	6.88
985.043	8.38
985.47	5.68
985.897	7.73
986.323	10.83
986.75	5.28
987.176	5.33
987.603	3.93
988.029	1.88
988.456	7.18
988.882	4.53
989.308	1.58
989.735	4.78
990.161	4.83
990.587	1.88
991.014	4.38
991.44	1.28
991.866	6.13
992.292	3.38
992.719	4.08
993.145	5.28
993.571	1.78
993.997	7.33
994.423	9.08
994.849	0.23
995.275	10.38
995.701	5.73
996.127	-0.47
996.553	0.43
996.979	1.73
997.405	9.78
997.83	5.53
998.256	5.18
998.682	0.43
999.108	5.78
999.534	-3.52
999.959	2.38
1000.385	6.53
1000.811	0.18
1001.236	0.28
1001.662	1.73
1002.087	8.88
1002.513	4.38
1002.938	2.58
1003.364	4.33
1003.789	6.43
1004.215	2.03
1004.64	-0.17
1005.066	4.33
1005.491	3.33
1005.916	6.08
1006.342	8.18
1006.767	1.73
1007.192	6.08
1007.617	3.18
1008.042	2.78
1008.468	3.08
1008.893	4.68
1009.318	7.53
1009.743	15.58
1010.168	25.78
1010.593	19.08
1011.018	13.78
1011.443	4.33
1011.868	7.73
1012.293	7.68
1012.718	1.93
1013.143	5.98
1013.567	6.78
1013.992	4.98
1014.417	5.08
1014.842	-0.12
1015.267	2.43
1015.691	4.43
1016.116	3.68
1016.541	0.03
1016.965	5.63
1017.39	2.13
1017.814	-3.17
1018.239	-3.22
1018.663	-3.02
1019.088	-0.77
1019.512	6.78
1019.937	-2.77
1020.361	5.63
1020.785	0.98
1021.21	-2.62
1021.634	0.33
1022.058	1.43
1022.483	-5.07
1022.907	-0.52
1023.331	1.48
1023.755	-1.97
1024.179	4.68
1024.604	2.58
1025.028	0.73
1025.452	1.73
1025.876	5.38
1026.3	5.08
1026.724	-1.97
1027.148	-1.27
1027.572	1.98
1027.996	6.23
1028.42	3.33
1028.843	-2.52
1029.267	0.18
1029.691	-1.32
1030.115	-3.12
1030.539	-0.17
1030.962	-1.32
1031.386	-0.62
1031.81	2.83
1032.233	-0.92
1032.657	-5.27
1033.08	-1.32
1033.504	2.43
1033.927	-3.22
1034.351	-1.87
1034.774	2.13
1035.198	1.23
1035.621	2.23
1036.045	-5.47
1036.468	2.23
1036.891	0.38
1037.315	4.48
1037.738	2.88
1038.161	2.43
1038.584	0.03
1039.008	-1.02
1039.431	-0.82
1039.854	-4.92
1040.277	3.88
1040.7	-0.87
1041.123	3.13
1041.546	-0.02
1041.969	4.93
1042.392	7.98
1042.815	-3.32
1043.238	1.33
1043.661	-2.72
1044.084	-4.62
1044.507	1.43
1044.93	-2.52
1045.352	-0.07
1045.775	0.68
1046.198	3.83
1046.621	4.58
1047.043	-0.37
1047.466	5.48
1047.889	-2.92
1048.311	1.73
1048.734	-3.82
1049.156	4.33
1049.579	-0.57
1050.001	2.83
1050.424	0.03
1050.846	-3.82
1051.269	-3.42
1051.691	-4.22
1052.113	3.73
1052.536	0.78
1052.958	-7.52
1053.38	2.73
1053.802	0.53
1054.225	0.33
1054.647	8.53
1055.069	-0.92
1055.491	3.03
1055.913	-1.22
1056.335	-9.32
1056.757	-4.22
1057.179	1.23
1057.601	-3.72
1058.023	1.23
1058.445	-2.17
1058.867	2.23
1059.289	-1.22
1059.711	-0.42
1060.133	-0.22
1060.555	-3.92
1060.976	2.23
1061.398	-3.22
1061.82	-3.27
1062.241	-3.17
1062.663	-2.37
1063.085	-1.57
1063.506	-8.17
1063.928	-3.47
1064.35	-0.72
1064.771	-2.37
1065.193	-2.32
1065.614	0.48
1066.035	8.23
1066.457	4.68
1066.878	2.38
1067.3	-0.07
1067.721	1.38
1068.142	3.73
1068.564	0.93
1068.985	0.43
1069.406	-5.67
1069.827	-3.17
1070.248	-5.27
1070.67	-4.82
1071.091	-4.42
1071.512	-2.22
1071.933	-1.22
1072.354	-5.77
1072.775	-2.12
1073.196	0.68
1073.617	-6.02
1074.038	-1.87
1074.459	-3.67
1074.88	-4.37
1075.3	0.18
1075.721	0.18
1076.142	-5.22
1076.563	-7.27
1076.983	-0.32
1077.404	-8.47
1077.825	3.33
1078.246	-4.62
1078.666	-7.32
1079.087	-3.27
1079.507	-4.87
1079.928	-2.57
1080.348	1.43
1080.769	-0.77
1081.189	0.83
1081.61	-6.42
1082.03	0.58
1082.451	-0.52
1082.871	-6.67
1083.291	-5.12
1083.711	-1.12
1084.132	-3.97
1084.552	-9.17
1084.972	-7.62
1085.392	-3.22
1085.813	-1.62
1086.233	-1.67
1086.653	1.33
1087.073	-3.32
1087.493	0.68
1087.913	-0.77
1088.333	-0.42
1088.753	1.88
1089.173	1.83
1089.593	-0.97
1090.013	-3.12
1090.433	-6.67
1090.852	4.38
1091.272	-9.87
1091.692	2.83
1092.112	-4.02
1092.531	-7.97
1092.951	-0.72
1093.371	-2.87
1093.79	0.58
1094.21	-4.57
1094.63	-1.72
1095.049	-6.17
1095.469	-7.27
1095.888	0.88
1096.308	-0.87
1096.727	-0.47
1097.146	-7.62
1097.566	0.63
1097.985	-4.67
1098.405	0.88
1098.824	0.38
1099.243	-4.87
1099.662	-0.97
1100.082	-2.07
1100.501	-0.37
1100.92	-0.62
1101.339	1.58
1101.758	3.63
