Data from MSPlasma+Separation6_Subt14_10-14-46-384.txt Node
Date: Fri Jul 21 10:14:46 EDT 2017
User: Ender
Spectrometer: HR+D1039
Trigger mode: 0
Integration Time (sec): 6.430000E-3
Scans to average: 20
Electric dark correction enabled: true
Nonlinearity correction enabled: false
Boxcar width: 0
XAxis mode: Wavelengths
Number of Pixels in Spectrum: 2048
>>>>>Begin Spectral Data<<<<<
187.836	0.89
188.309	0.89
188.782	0.89
189.255	2.69
189.728	2.04
190.201	0.79
190.674	-2.51
191.147	0.39
191.619	-2.36
192.092	-3.06
192.565	-3.26
193.038	0.24
193.511	1.94
193.984	0.59
194.456	-0.06
194.929	-1.21
195.402	0.54
195.874	2.39
196.347	3.39
196.82	2.64
197.292	-6.11
197.765	0.09
198.237	-2.96
198.71	-4.46
199.182	2.14
199.655	4.34
200.127	0.84
200.6	4.84
201.072	-0.31
201.544	1.89
202.017	3.09
202.489	3.59
202.961	3.49
203.433	-1.66
203.906	-0.11
204.378	4.34
204.85	3.74
205.322	4.84
205.794	8.94
206.266	0.59
206.739	5.39
207.211	-2.21
207.683	4.69
208.155	6.39
208.627	4.29
209.099	2.94
209.57	0.09
210.042	8.39
210.514	5.79
210.986	16.34
211.458	28.69
211.93	10.59
212.402	9.04
212.873	1.99
213.345	-1.86
213.817	3.64
214.288	-0.11
214.76	3.99
215.232	3.59
215.703	3.74
216.175	3.14
216.646	4.99
217.118	5.39
217.589	-1.21
218.061	3.39
218.532	0.39
219.004	11.19
219.475	18.94
219.946	30.24
220.418	38.59
220.889	23.74
221.36	15.99
221.832	8.49
222.303	8.14
222.774	8.34
223.245	4.69
223.717	4.69
224.188	8.54
224.659	11.29
225.13	0.54
225.601	5.49
226.072	1.64
226.543	10.84
227.014	6.99
227.485	10.39
227.956	11.89
228.427	18.44
228.898	11.04
229.369	15.24
229.839	14.34
230.31	14.79
230.781	14.99
231.252	20.59
231.722	29.04
232.193	34.44
232.664	40.39
233.135	55.69
233.605	66.89
234.076	50.04
234.546	41.54
235.017	48.74
235.487	48.59
235.958	45.09
236.428	67.14
236.899	111.09
237.369	120.04
237.84	88.64
238.31	111.59
238.78	112.39
239.251	110.49
239.721	111.64
240.191	85.09
240.662	53.04
241.132	44.34
241.602	50.39
242.072	74.49
242.542	90.59
243.013	61.29
243.483	52.69
243.953	40.44
244.423	40.84
244.893	53.14
245.363	57.39
245.833	57.24
246.303	63.69
246.773	77.84
247.243	79.49
247.712	91.74
248.182	111.79
248.652	106.69
249.122	167.74
249.592	315.14
250.061	466.49
250.531	749.09
251.001	572.59
251.471	471.84
251.94	359.14
252.41	197.14
252.879	137.39
253.349	101.64
253.818	80.99
254.288	68.39
254.757	69.44
255.227	99.84
255.696	83.54
256.166	72.94
256.635	77.39
257.105	96.49
257.574	123.39
258.043	133.59
258.513	226.09
258.982	290.14
259.451	206.64
259.92	205.09
260.389	187.74
260.859	137.59
261.328	162.09
261.797	235.39
262.266	208.24
262.735	95.89
263.204	54.54
263.673	55.49
264.142	46.79
264.611	51.79
265.08	54.84
265.549	62.34
266.018	51.09
266.487	48.04
266.955	44.54
267.424	58.84
267.893	60.29
268.362	59.49
268.83	56.29
269.299	62.69
269.768	71.09
270.236	83.19
270.705	91.94
271.174	86.29
271.642	92.44
272.111	109.44
272.579	174.09
273.048	277.89
273.516	350.99
273.985	357.49
274.453	269.84
274.922	164.54
275.39	103.39
275.858	94.69
276.327	82.84
276.795	82.09
277.263	92.14
277.731	128.64
278.2	264.19
278.668	357.64
279.136	268.89
279.604	167.24
280.072	93.19
280.54	80.44
281.008	80.49
281.477	83.79
281.945	89.24
282.413	83.84
282.881	88.69
283.348	90.74
283.816	92.94
284.284	102.49
284.752	97.89
285.22	95.49
285.688	107.99
286.156	179.19
286.623	487.04
287.091	957.94
287.559	497.64
288.026	188.89
288.494	114.99
288.962	97.84
289.429	93.59
289.897	88.19
290.364	80.49
290.832	87.39
291.3	87.09
291.767	89.84
292.234	96.29
292.702	95.14
293.169	107.64
293.637	109.69
294.104	103.84
294.571	101.24
295.039	100.34
295.506	100.59
295.973	104.69
296.44	105.69
296.908	109.84
297.375	129.84
297.842	123.94
298.309	108.94
298.776	106.09
299.243	111.54
299.71	103.39
300.177	102.04
300.644	117.59
301.111	133.89
301.578	122.44
302.045	103.34
302.512	108.74
302.979	112.94
303.446	118.49
303.913	118.09
304.379	131.19
304.846	146.29
305.313	158.44
305.78	186.09
306.246	222.59
306.713	241.49
307.18	208.49
307.646	234.14
308.113	200.54
308.579	160.49
309.046	156.69
309.512	157.84
309.979	149.74
310.445	134.29
310.912	141.14
311.378	143.44
311.845	141.89
312.311	142.54
312.777	132.74
313.244	145.39
313.71	151.19
314.176	165.29
314.642	194.69
315.109	223.99
315.575	207.54
316.041	189.74
316.507	179.84
316.973	202.79
317.439	190.89
317.905	212.09
318.371	211.69
318.837	201.19
319.303	209.74
319.769	191.14
320.235	216.14
320.701	248.89
321.167	266.24
321.633	307.89
322.099	436.29
322.564	580.89
323.03	453.54
323.496	318.39
323.962	301.14
324.427	278.54
324.893	250.79
325.359	236.89
325.824	206.34
326.29	218.34
326.755	221.49
327.221	220.04
327.686	229.94
328.152	207.39
328.617	201.74
329.083	206.04
329.548	217.24
330.014	224.19
330.479	239.89
330.944	282.19
331.41	321.99
331.875	307.59
332.34	316.04
332.805	366.49
333.271	470.59
333.736	623.74
334.201	555.54
334.666	410.54
335.131	472.99
335.596	373.84
336.061	401.09
336.526	399.34
336.991	349.09
337.456	378.54
337.921	301.69
338.386	247.44
338.851	224.49
339.316	213.34
339.781	208.34
340.246	210.44
340.711	210.14
341.175	215.49
341.64	217.99
342.105	220.29
342.569	238.44
343.034	254.84
343.499	263.64
343.963	252.54
344.428	246.59
344.893	255.44
345.357	259.79
345.822	255.89
346.286	255.64
346.751	267.74
347.215	262.79
347.679	269.39
348.144	292.19
348.608	284.74
349.073	297.29
349.537	331.49
350.001	319.09
350.465	306.24
350.93	291.09
351.394	290.04
351.858	291.89
352.322	305.44
352.786	303.09
353.25	302.49
353.715	299.04
354.179	319.04
354.643	333.69
355.107	350.54
355.571	364.74
356.035	378.59
356.498	365.99
356.962	381.24
357.426	381.49
357.89	343.84
358.354	317.94
358.818	318.04
359.281	333.24
359.745	341.14
360.209	337.54
360.673	343.49
361.136	346.39
361.6	347.99
362.064	364.14
362.527	374.39
362.991	371.04
363.454	377.64
363.918	381.84
364.381	367.34
364.845	361.24
365.308	359.19
365.772	350.59
366.235	361.19
366.698	384.59
367.162	459.09
367.625	520.74
368.088	417.74
368.552	376.44
369.015	393.49
369.478	422.24
369.941	430.79
370.404	430.59
370.867	461.14
371.331	467.84
371.794	470.89
372.257	526.74
372.72	558.89
373.183	525.94
373.646	537.89
374.109	528.94
374.572	615.74
375.035	717.24
375.497	549.74
375.96	448.94
376.423	420.19
376.886	422.04
377.349	429.89
377.811	438.79
378.274	445.29
378.737	450.09
379.199	459.89
379.662	470.84
380.125	509.34
380.587	560.69
381.05	597.99
381.512	603.59
381.975	577.89
382.437	572.19
382.9	565.39
383.362	564.84
383.825	603.29
384.287	765.39
384.75	855.34
385.212	751.69
385.674	623.54
386.136	562.74
386.599	559.94
387.061	590.59
387.523	613.89
387.985	620.49
388.447	636.04
388.91	713.64
389.372	868.49
389.834	809.29
390.296	666.29
390.758	684.34
391.22	707.14
391.682	873.99
392.144	1357.94
392.606	1263.59
393.068	737.79
393.529	671.09
393.991	651.09
394.453	636.04
394.915	669.39
395.377	820.84
395.838	1011.29
396.3	713.44
396.762	543.89
397.224	520.04
397.685	509.74
398.147	523.14
398.608	531.09
399.07	528.49
399.531	517.59
399.993	521.69
400.454	532.14
400.916	536.79
401.377	550.14
401.839	553.99
402.3	553.44
402.762	581.59
403.223	653.99
403.684	660.14
404.145	601.94
404.607	586.79
405.068	589.04
405.529	607.79
405.99	609.24
406.451	612.89
406.913	606.29
407.374	613.34
407.835	618.49
408.296	634.44
408.757	641.29
409.218	657.84
409.679	665.74
410.14	678.74
410.601	706.39
411.062	733.94
411.522	848.39
411.983	935.84
412.444	800.34
412.905	704.39
413.366	703.59
413.826	717.24
414.287	802.24
414.748	960.39
415.208	973.99
415.669	811.84
416.13	741.19
416.59	724.99
417.051	750.64
417.511	789.64
417.972	841.89
418.432	912.89
418.893	1009.54
419.353	954.64
419.814	744.44
420.274	672.14
420.734	669.24
421.195	709.14
421.655	750.79
422.115	724.24
422.576	692.94
423.036	695.89
423.496	720.64
423.956	746.09
424.416	803.89
424.876	903.44
425.336	907.29
425.797	904.89
426.257	906.44
426.717	848.74
427.177	798.64
427.637	823.24
428.097	859.94
428.556	906.94
429.016	986.94
429.476	973.59
429.936	941.84
430.396	927.69
430.856	929.99
431.315	958.54
431.775	1028.34
432.235	1078.69
432.694	1098.49
433.154	1046.44
433.614	997.89
434.073	966.84
434.533	881.59
434.993	853.79
435.452	850.74
435.912	842.34
436.371	831.74
436.83	829.49
437.29	844.34
437.749	798.09
438.209	780.39
438.668	797.19
439.127	802.79
439.587	793.99
440.046	751.19
440.505	775.94
440.964	772.04
441.424	795.84
441.883	794.34
442.342	763.09
442.801	739.99
443.26	758.29
443.719	752.49
444.178	747.14
444.637	758.74
445.096	743.64
445.555	760.79
446.014	762.79
446.473	740.54
446.932	749.29
447.391	758.84
447.849	774.54
448.308	766.34
448.767	784.59
449.226	795.14
449.685	805.49
450.143	839.94
450.602	846.69
451.061	810.39
451.519	822.24
451.978	845.84
452.436	872.34
452.895	821.79
453.353	805.69
453.812	812.39
454.27	805.34
454.729	781.24
455.187	769.89
455.646	788.39
456.104	792.79
456.562	786.09
457.021	784.34
457.479	750.19
457.937	779.54
458.395	799.19
458.854	784.79
459.312	769.94
459.77	783.64
460.228	796.44
460.686	802.59
461.144	803.64
461.602	793.64
462.06	799.64
462.518	814.94
462.976	819.49
463.434	821.09
463.892	837.54
464.35	847.14
464.808	862.34
465.266	874.54
465.724	883.64
466.181	883.94
466.639	882.94
467.097	919.74
467.555	949.64
468.012	941.29
468.47	947.79
468.928	986.79
469.385	1011.39
469.843	1010.39
470.3	1005.99
470.758	1048.69
471.215	1053.84
471.673	1081.69
472.13	1115.04
472.588	1139.14
473.045	1133.89
473.503	1164.34
473.96	1210.64
474.417	1228.59
474.875	1276.29
475.332	1323.89
475.789	1349.44
476.246	1384.79
476.704	1448.59
477.161	1483.99
477.618	1532.29
478.075	1623.74
478.532	1733.19
478.989	1886.84
479.446	2091.04
479.903	2221.59
480.36	2440.14
480.817	2606.29
481.274	2797.59
481.731	3073.44
482.188	3319.24
482.645	3591.29
483.102	3798.44
483.558	4060.84
484.015	4278.54
484.472	4272.59
484.929	4156.29
485.385	3968.99
485.842	3852.84
486.299	3648.59
486.755	3290.09
487.212	2938.59
487.668	2646.69
488.125	2438.24
488.582	2245.79
489.038	2143.59
489.494	2062.59
489.951	2002.89
490.407	1954.99
490.864	1930.59
491.32	1885.79
491.776	1854.29
492.233	1850.49
492.689	1821.69
493.145	1800.24
493.602	1783.29
494.058	1816.64
494.514	1849.04
494.97	1854.69
495.426	1869.24
495.882	1875.34
496.338	1893.14
496.794	1967.84
497.251	1970.99
497.707	1977.14
498.163	1986.54
498.618	1964.04
499.074	1988.24
499.53	2023.04
499.986	2065.14
500.442	2093.54
500.898	2089.59
501.354	2133.74
501.809	2136.94
502.265	2169.54
502.721	2269.69
503.177	2338.44
503.632	2214.19
504.088	2242.79
504.543	2439.94
504.999	2288.14
505.455	2010.19
505.91	1914.94
506.366	1889.24
506.821	1891.94
507.277	1871.94
507.732	1889.79
508.187	1877.09
508.643	1897.04
509.098	1886.39
509.553	1914.59
510.009	1941.54
510.464	1976.94
510.919	2005.99
511.375	2017.94
511.83	2042.84
512.285	2087.44
512.74	2139.69
513.195	2163.59
513.65	2193.54
514.105	2243.44
514.56	2234.39
515.015	2275.64
515.47	2314.14
515.925	2306.59
516.38	2288.19
516.835	2275.19
517.29	2277.39
517.745	2278.39
518.2	2256.54
518.655	2185.29
519.109	2155.74
519.564	2135.04
520.019	2119.99
520.474	2092.64
520.928	2074.89
521.383	2075.34
521.838	2068.49
522.292	2030.14
522.747	2011.49
523.201	2011.79
523.656	1994.69
524.11	1977.54
524.565	1973.44
525.019	1979.59
525.474	1991.14
525.928	1987.74
526.382	1962.89
526.837	1951.84
527.291	1953.89
527.745	1944.74
528.2	1945.24
528.654	1913.59
529.108	1938.19
529.562	1945.64
530.016	1936.64
530.47	1942.59
530.925	1947.09
531.379	1955.09
531.833	1978.69
532.287	1960.94
532.741	1947.19
533.195	1948.04
533.649	1952.49
534.103	1947.09
534.556	1936.79
535.01	1941.94
535.464	1927.34
535.918	1963.04
536.372	1965.64
536.826	1959.29
537.279	1945.04
537.733	1940.04
538.187	1943.44
538.64	1945.69
539.094	1970.84
539.548	1994.39
540.001	1987.04
540.455	1993.39
540.908	2016.84
541.362	2024.84
541.815	2053.84
542.269	2090.29
542.722	2081.44
543.175	2108.44
543.629	2112.24
544.082	2122.89
544.536	2151.54
544.989	2139.19
545.442	2156.59
545.895	2160.54
546.349	2145.39
546.802	2175.54
547.255	2163.09
547.708	2172.79
548.161	2201.74
548.614	2192.64
549.067	2215.54
549.52	2197.79
549.973	2178.64
550.426	2168.24
550.879	2146.49
551.332	2131.74
551.785	2162.49
552.238	2179.64
552.691	2175.34
553.144	2208.74
553.596	2244.04
554.049	2278.54
554.502	2322.84
554.955	2375.04
555.407	2386.44
555.86	2362.59
556.313	2344.84
556.765	2315.94
557.218	2291.49
557.67	2296.94
558.123	2246.59
558.576	2249.59
559.028	2242.44
559.48	2272.39
559.933	2254.14
560.385	2181.74
560.838	2116.64
561.29	2055.89
561.742	2054.09
562.195	2012.29
562.647	1996.99
563.099	1994.24
563.551	1978.24
564.004	1991.99
564.456	1981.14
564.908	1950.14
565.36	1917.74
565.812	1871.19
566.264	1854.29
566.716	1831.79
567.168	1801.99
567.62	1819.84
568.072	1794.74
568.524	1770.29
568.976	1760.09
569.428	1757.14
569.88	1742.74
570.332	1753.54
570.784	1747.84
571.235	1738.04
571.687	1754.94
572.139	1748.49
572.59	1772.59
573.042	1773.59
573.494	1769.44
573.945	1744.64
574.397	1719.09
574.849	1713.84
575.3	1716.44
575.752	1686.54
576.203	1674.14
576.655	1696.64
577.106	1660.84
577.557	1658.89
578.009	1653.99
578.46	1667.69
578.912	1642.99
579.363	1652.99
579.814	1649.34
580.265	1649.64
580.717	1637.44
581.168	1648.64
581.619	1643.14
582.07	1668.24
582.521	1673.04
582.972	1664.59
583.423	1689.39
583.875	1741.34
584.326	1853.79
584.777	2066.49
585.227	2308.29
585.678	2485.44
586.129	2545.74
586.58	2586.39
587.031	2616.34
587.482	2802.19
587.933	3383.84
588.384	3033.14
588.834	2412.04
589.285	1952.54
589.736	1890.24
590.186	1896.59
590.637	1869.44
591.088	1814.94
591.538	1798.04
591.989	1780.89
592.439	1771.69
592.89	1769.69
593.34	1769.34
593.791	1793.84
594.241	1784.14
594.692	1815.64
595.142	1802.94
595.593	1765.29
596.043	1764.64
596.493	1803.94
596.943	1832.89
597.394	1811.24
597.844	1786.64
598.294	1808.89
598.744	1870.09
599.195	1959.09
599.645	2065.99
600.095	2170.44
600.545	2279.54
600.995	2370.54
601.445	2452.39
601.895	2565.34
602.345	2657.29
602.795	2600.04
603.245	2486.29
603.695	2338.54
604.145	2216.04
604.594	2112.49
605.044	1998.74
605.494	1881.94
605.944	1787.29
606.393	1753.89
606.843	1728.94
607.293	1737.24
607.743	1726.24
608.192	1740.94
608.642	1743.29
609.091	1753.79
609.541	1750.84
609.99	1737.69
610.44	1702.99
610.889	1691.34
611.339	1677.14
611.788	1659.64
612.238	1680.49
612.687	1702.09
613.136	1727.84
613.586	1751.69
614.035	1750.49
614.484	1777.29
614.933	1796.99
615.383	1752.14
615.832	1694.74
616.281	1649.14
616.73	1597.59
617.179	1554.44
617.628	1508.89
618.077	1497.39
618.526	1471.24
618.975	1469.79
619.424	1438.64
619.873	1438.49
620.322	1434.99
620.771	1424.59
621.22	1408.14
621.669	1381.29
622.118	1372.29
622.567	1356.74
623.015	1339.29
623.464	1331.64
623.913	1311.19
624.361	1315.24
624.81	1319.99
625.259	1301.69
625.707	1284.69
626.156	1296.04
626.604	1306.59
627.053	1316.84
627.501	1304.39
627.95	1324.69
628.398	1335.94
628.847	1331.24
629.295	1322.99
629.744	1343.59
630.192	1387.29
630.64	1483.04
631.089	1647.99
631.537	1735.69
631.985	1737.94
632.433	1807.19
632.881	1802.29
633.33	2183.54
633.778	2391.94
634.226	1669.74
634.674	1529.74
635.122	1517.44
635.57	1540.19
636.018	1798.34
636.466	1469.74
636.914	1286.94
637.362	1285.64
637.81	1295.39
638.258	1342.09
638.705	1344.14
639.153	1379.69
639.601	1397.99
640.049	1423.24
640.497	1458.09
640.944	1495.79
641.392	1427.84
641.84	1349.64
642.287	1296.74
642.735	1279.89
643.182	1276.64
643.63	1272.59
644.078	1274.89
644.525	1301.99
644.973	1346.59
645.42	1352.89
645.867	1367.14
646.315	1404.04
646.762	1452.69
647.21	1485.49
647.657	1576.59
648.104	1639.34
648.551	1698.49
648.999	1853.09
649.446	2037.54
649.893	2294.99
650.34	2721.64
650.787	3388.64
651.234	4439.04
651.682	6214.24
652.129	8926.69
652.576	12799.34
653.023	15535.29
653.47	15538.49
653.917	15538.54
654.363	15538.44
654.81	15535.44
655.257	15536.09
655.704	15523.39
656.151	9624.49
656.598	6220.79
657.044	4392.64
657.491	3421.84
657.938	2754.44
658.385	2321.24
658.831	2047.19
659.278	1823.84
659.724	1662.84
660.171	1541.59
660.618	1419.44
661.064	1342.49
661.511	1297.24
661.957	1253.84
662.404	1218.39
662.85	1210.14
663.296	1185.44
663.743	1170.99
664.189	1148.74
664.635	1141.84
665.082	1123.59
665.528	1109.44
665.974	1080.19
666.42	1074.09
666.867	1083.24
667.313	1113.24
667.759	1167.79
668.205	1161.14
668.651	1176.99
669.097	1135.84
669.543	1248.89
669.989	1162.19
670.435	1008.04
670.881	1001.59
671.327	1036.44
671.773	1110.89
672.219	1193.79
672.665	1275.69
673.11	1303.79
673.556	1326.29
674.002	1346.74
674.448	1362.64
674.893	1159.49
675.339	1015.69
675.785	940.34
676.23	888.54
676.676	861.59
677.122	835.34
677.567	811.94
678.013	785.89
678.458	784.19
678.904	782.89
679.349	769.24
679.794	770.19
680.24	769.39
680.685	763.54
681.131	764.44
681.576	772.49
682.021	767.49
682.466	770.69
682.912	781.39
683.357	829.64
683.802	893.44
684.247	976.94
684.692	1040.94
685.137	1080.04
685.583	1090.29
686.028	1158.74
686.473	1091.84
686.918	951.29
687.363	867.49
687.807	818.04
688.252	783.14
688.697	758.34
689.142	732.49
689.587	746.29
690.032	756.59
690.477	789.19
690.921	827.64
691.366	872.54
691.811	903.54
692.255	977.09
692.7	1190.64
693.145	1719.89
693.589	2609.59
694.034	3083.64
694.478	3254.69
694.923	2977.29
695.367	4203.59
695.812	2567.59
696.256	1092.14
696.701	807.04
697.145	755.24
697.59	727.64
698.034	713.99
698.478	721.99
698.922	724.89
699.367	739.74
699.811	777.64
700.255	845.34
700.699	918.44
701.143	992.74
701.588	1039.49
702.032	1082.14
702.476	1111.59
702.92	1184.34
703.364	1558.84
703.808	2382.59
704.252	2968.99
704.696	3119.89
705.14	2917.34
705.584	3982.69
706.027	2232.29
706.471	1126.24
706.915	846.49
707.359	751.59
707.803	702.64
708.246	683.79
708.69	683.34
709.134	667.44
709.577	670.89
710.021	683.74
710.465	671.34
710.908	670.49
711.352	703.79
711.795	778.19
712.239	833.79
712.682	856.29
713.126	853.79
713.569	945.94
714.012	781.39
714.456	697.74
714.899	651.44
715.342	605.64
715.786	584.29
716.229	568.44
716.672	549.69
717.115	546.89
717.558	565.59
718.002	578.44
718.445	598.89
718.888	631.64
719.331	647.04
719.774	658.19
720.217	647.34
720.66	601.84
721.103	581.14
721.546	546.49
721.989	528.09
722.432	522.49
722.874	522.79
723.317	532.09
723.76	572.59
724.203	716.89
724.645	946.34
725.088	1109.44
725.531	1079.69
725.974	1172.69
726.416	1051.39
726.859	661.64
727.301	537.54
727.744	518.04
728.187	515.79
728.629	524.94
729.071	556.54
729.514	575.14
729.956	600.69
730.399	611.39
730.841	605.14
731.283	586.44
731.726	574.34
732.168	579.99
732.61	607.79
733.053	662.69
733.495	735.59
733.937	817.64
734.379	960.69
734.821	1235.94
735.263	1957.74
735.705	3518.69
736.148	5129.54
736.59	5091.99
737.032	5480.29
737.474	4514.84
737.916	1751.19
738.357	929.29
738.799	710.14
739.241	665.74
739.683	668.54
740.125	671.79
740.567	679.64
741.008	712.44
741.45	735.59
741.892	765.39
742.334	771.84
742.775	760.09
743.217	721.09
743.658	614.99
744.1	641.64
744.542	705.04
744.983	741.09
745.425	763.09
745.866	749.19
746.307	676.69
746.749	726.89
747.19	1062.99
747.632	2083.19
748.073	3852.89
748.514	5255.29
748.956	6979.24
749.397	8090.19
749.838	5574.79
750.279	5287.69
750.72	2734.84
751.162	1169.14
751.603	671.39
752.044	536.19
752.485	481.94
752.926	451.54
753.367	432.14
753.808	423.94
754.249	414.14
754.69	408.39
755.131	398.59
755.572	404.04
756.013	407.09
756.453	404.19
756.894	413.34
757.335	416.34
757.776	421.04
758.216	440.84
758.657	463.49
759.098	511.44
759.538	621.89
759.979	902.29
760.42	1828.04
760.86	4688.34
761.301	9596.54
761.741	11126.84
762.182	12681.24
762.622	8156.64
763.063	2979.29
763.503	1325.34
763.943	1029.49
764.384	1133.69
764.824	1070.19
765.264	1064.69
765.705	748.79
766.145	534.84
766.585	473.14
767.025	503.19
767.465	656.39
767.906	807.19
768.346	835.74
768.786	876.34
769.226	880.44
769.666	1499.74
770.106	3238.44
770.546	4521.44
770.986	5064.14
771.426	3805.04
771.866	1614.84
772.306	738.59
772.745	467.14
773.185	407.64
773.625	410.29
774.065	481.14
774.505	800.39
774.944	1636.64
775.384	2447.54
775.824	2770.04
776.263	2256.34
776.703	1105.99
777.142	554.39
777.582	376.44
778.021	343.34
778.461	320.69
778.9	306.74
779.34	285.74
779.779	269.99
780.219	267.49
780.658	258.79
781.097	254.24
781.537	248.94
781.976	243.09
782.415	239.89
782.855	247.79
783.294	244.19
783.733	235.84
784.172	248.79
784.611	238.59
785.05	249.69
785.489	258.04
785.928	260.19
786.367	270.24
786.806	281.79
787.245	300.39
787.684	313.79
788.123	300.59
788.562	296.84
789.001	283.29
789.44	277.79
789.879	274.14
790.317	278.14
790.756	297.74
791.195	339.09
791.634	457.89
792.072	845.79
792.511	2064.29
792.95	3758.34
793.388	4460.39
793.827	2899.29
794.265	1337.34
794.704	646.19
795.142	389.69
795.581	322.99
796.019	296.89
796.458	287.09
796.896	302.64
797.334	350.79
797.773	465.69
798.211	900.94
798.649	1870.64
799.087	3110.14
799.526	4383.49
799.964	4492.04
800.402	3069.99
800.84	1397.39
801.278	688.14
801.716	416.44
802.154	341.09
802.592	314.59
803.03	323.19
803.468	322.19
803.906	328.64
804.344	324.59
804.782	315.49
805.22	314.24
805.658	326.44
806.096	343.54
806.533	390.29
806.971	501.99
807.409	724.09
807.847	1461.89
808.284	3731.24
808.722	6488.59
809.16	9072.49
809.597	12341.54
810.035	14884.54
810.472	9780.64
810.91	4169.89
811.347	1864.14
811.785	871.49
812.222	548.59
812.66	427.54
813.097	361.24
813.535	316.59
813.972	282.39
814.409	262.14
814.846	249.64
815.284	243.14
815.721	246.54
816.158	269.04
816.595	343.34
817.032	415.89
817.47	388.79
817.907	311.54
818.344	272.09
818.781	253.99
819.218	295.34
819.655	420.59
820.092	541.84
820.529	513.19
820.966	416.24
821.403	303.44
821.839	272.84
822.276	280.89
822.713	314.79
823.15	304.89
823.587	339.74
824.023	604.24
824.46	1520.69
824.897	2631.79
825.333	2030.54
825.77	946.19
826.206	496.34
826.643	286.84
827.08	215.24
827.516	190.49
827.953	175.59
828.389	169.39
828.825	163.74
829.262	160.99
829.698	151.14
830.135	143.99
830.571	144.74
831.007	145.94
831.443	146.34
831.88	150.29
832.316	156.04
832.752	147.79
833.188	153.04
833.624	152.49
834.06	157.04
834.497	154.29
834.933	161.09
835.369	176.24
835.805	179.34
836.241	187.64
836.677	208.89
837.112	243.59
837.548	302.99
837.984	453.94
838.42	962.29
838.856	2676.94
839.292	5233.64
839.727	3851.09
840.163	2624.89
840.599	3984.94
841.034	6050.74
841.47	3015.59
841.906	1486.89
842.341	844.64
842.777	742.24
843.212	885.54
843.648	516.99
844.083	324.44
844.519	218.34
844.954	177.54
845.39	150.99
845.825	146.39
846.261	134.34
846.696	131.64
847.131	128.39
847.566	129.29
848.002	134.09
848.437	145.24
848.872	148.59
849.307	189.89
849.742	341.64
850.177	874.34
850.613	1854.54
851.048	1308.84
851.483	609.84
851.918	342.79
852.353	201.19
852.788	162.84
853.223	136.04
853.657	114.34
854.092	110.14
854.527	109.54
854.962	111.79
855.397	119.89
855.832	105.49
856.266	94.44
856.701	95.09
857.136	95.89
857.57	116.54
858.005	136.24
858.44	121.04
858.874	112.99
859.309	113.19
859.743	114.69
860.178	109.74
860.612	124.79
861.047	154.44
861.481	206.19
861.915	144.24
862.35	110.69
862.784	93.34
863.218	88.74
863.653	97.64
864.087	119.44
864.521	154.14
864.955	254.69
865.39	432.89
865.824	311.39
866.258	364.04
866.692	519.49
867.126	378.34
867.56	212.14
867.994	139.44
868.428	121.14
868.862	149.94
869.296	138.89
869.73	163.39
870.164	141.39
870.598	127.09
871.031	94.84
871.465	87.84
871.899	75.99
872.333	67.14
872.766	65.14
873.2	70.09
873.634	74.34
874.067	76.09
874.501	78.49
874.935	73.19
875.368	73.49
875.802	64.99
876.235	65.04
876.669	61.64
877.102	56.94
877.535	59.69
877.969	52.54
878.402	59.79
878.836	60.14
879.269	56.34
879.702	55.69
880.135	58.94
880.569	67.94
881.002	53.54
881.435	57.04
881.868	54.69
882.301	51.34
882.734	49.29
883.167	54.19
883.601	50.34
884.034	51.24
884.467	49.94
884.899	47.54
885.332	42.04
885.765	45.64
886.198	43.74
886.631	49.39
887.064	47.94
887.497	44.39
887.929	49.99
888.362	47.69
888.795	43.34
889.228	48.59
889.66	47.69
890.093	44.09
890.526	42.84
890.958	39.74
891.391	47.04
891.823	43.44
892.256	45.49
892.688	42.64
893.121	38.94
893.553	46.94
893.985	38.89
894.418	38.39
894.85	42.29
895.282	41.89
895.715	40.14
896.147	37.69
896.579	37.94
897.011	43.79
897.444	41.99
897.876	35.79
898.308	32.69
898.74	40.24
899.172	41.39
899.604	44.84
900.036	45.04
900.468	39.49
900.9	40.79
901.332	51.74
901.764	47.39
902.196	47.04
902.628	47.79
903.06	65.24
903.491	72.19
903.923	62.49
904.355	63.54
904.787	71.39
905.218	58.04
905.65	54.69
906.082	46.24
906.513	45.79
906.945	50.74
907.376	51.74
907.808	53.69
908.239	57.54
908.671	59.09
909.102	61.79
909.534	93.24
909.965	171.39
910.397	434.04
910.828	1236.09
911.259	755.74
911.691	410.89
912.122	236.54
912.553	122.04
912.984	68.69
913.415	62.84
913.847	57.79
914.278	53.14
914.709	41.74
915.14	42.89
915.571	44.09
916.002	45.09
916.433	41.99
916.864	39.04
917.295	45.04
917.726	47.79
918.157	61.34
918.587	55.24
919.018	55.64
919.449	53.14
919.88	59.14
920.311	93.89
920.741	259.24
921.172	456.59
921.603	227.94
922.033	146.34
922.464	93.09
922.895	64.19
923.325	46.24
923.756	46.29
924.186	61.04
924.617	105.59
925.047	162.19
925.478	148.59
925.908	105.24
926.338	71.79
926.769	52.79
927.199	47.29
927.629	38.34
928.06	40.24
928.49	40.69
928.92	34.44
929.35	32.59
929.78	24.44
930.21	25.24
930.641	18.99
931.071	24.19
931.501	26.29
931.931	19.89
932.361	20.94
932.791	27.69
933.221	28.04
933.651	37.19
934.08	62.39
934.51	37.04
934.94	29.24
935.37	27.09
935.8	20.34
936.229	15.44
936.659	16.69
937.089	33.94
937.519	48.49
937.948	58.89
938.378	39.39
938.807	25.79
939.237	19.39
939.666	22.74
940.096	12.34
940.525	11.74
940.955	18.14
941.384	13.09
941.814	17.24
942.243	12.84
942.672	9.54
943.102	8.49
943.531	9.84
943.96	6.09
944.39	10.49
944.819	12.29
945.248	10.29
945.677	12.49
946.106	10.04
946.535	10.29
946.964	8.79
947.393	12.74
947.822	7.04
948.251	12.59
948.68	12.44
949.109	13.19
949.538	10.44
949.967	13.99
950.396	9.64
950.825	10.44
951.254	12.09
951.682	4.89
952.111	5.64
952.54	11.24
952.969	5.34
953.397	10.59
953.826	10.64
954.254	13.29
954.683	11.74
955.112	9.49
955.54	8.14
955.969	10.04
956.397	12.39
956.826	2.89
957.254	12.59
957.682	7.09
958.111	11.99
958.539	10.64
958.967	7.19
959.396	11.69
959.824	9.94
960.252	9.09
960.68	7.89
961.109	8.29
961.537	11.29
961.965	3.49
962.393	5.34
962.821	10.19
963.249	9.74
963.677	13.84
964.105	80.84
964.533	131.69
964.961	59.29
965.389	40.44
965.817	21.54
966.245	12.69
966.672	12.99
967.1	11.09
967.528	2.59
967.956	5.34
968.383	8.99
968.811	7.59
969.239	6.84
969.666	2.79
970.094	3.99
970.522	2.94
970.949	5.74
971.377	1.74
971.804	5.24
972.232	7.29
972.659	5.44
973.087	8.34
973.514	0.19
973.941	4.29
974.369	1.79
974.796	3.54
975.223	4.14
975.651	11.39
976.078	7.89
976.505	10.44
976.932	33.74
977.359	37.69
977.786	21.79
978.214	17.69
978.641	8.19
979.068	3.69
979.495	1.94
979.922	5.89
980.349	8.34
980.776	8.24
981.202	7.89
981.629	8.24
982.056	7.84
982.483	-1.16
982.91	7.54
983.337	3.49
983.763	0.74
984.19	9.59
984.617	3.24
985.043	3.64
985.47	4.89
985.897	5.54
986.323	10.54
986.75	2.64
987.176	6.99
987.603	4.89
988.029	3.49
988.456	8.34
988.882	2.59
989.308	3.39
989.735	-2.26
990.161	3.14
990.587	1.29
991.014	5.84
991.44	5.89
991.866	5.44
992.292	1.49
992.719	1.74
993.145	3.09
993.571	4.19
993.997	8.29
994.423	7.39
994.849	-2.81
995.275	6.34
995.701	5.74
996.127	-0.86
996.553	4.64
996.979	-1.46
997.405	4.39
997.83	4.34
998.256	6.29
998.682	3.79
999.108	1.69
999.534	-1.56
999.959	-0.26
1000.385	7.69
1000.811	-2.36
1001.236	1.54
1001.662	3.89
1002.087	7.64
1002.513	3.09
1002.938	1.74
1003.364	2.44
1003.789	5.94
1004.215	1.09
1004.64	0.64
1005.066	5.44
1005.491	9.69
1005.916	9.24
1006.342	7.29
1006.767	0.44
1007.192	5.24
1007.617	3.09
1008.042	1.04
1008.468	2.69
1008.893	6.39
1009.318	7.09
1009.743	12.04
1010.168	20.19
1010.593	21.19
1011.018	12.74
1011.443	7.99
1011.868	6.19
1012.293	2.74
1012.718	1.59
1013.143	3.84
1013.567	6.74
1013.992	2.89
1014.417	6.74
1014.842	5.04
1015.267	2.99
1015.691	6.24
1016.116	4.14
1016.541	3.59
1016.965	6.19
1017.39	7.04
1017.814	-2.46
1018.239	-0.66
1018.663	-1.16
1019.088	-2.36
1019.512	4.39
1019.937	-2.36
1020.361	-3.01
1020.785	0.69
1021.21	-3.01
1021.634	5.74
1022.058	4.49
1022.483	-1.26
1022.907	-3.56
1023.331	0.09
1023.755	-2.36
1024.179	2.24
1024.604	-1.36
1025.028	-0.91
1025.452	3.04
1025.876	4.39
1026.3	1.49
1026.724	-4.66
1027.148	2.64
1027.572	2.09
1027.996	6.94
1028.42	1.49
1028.843	0.69
1029.267	-2.61
1029.691	4.14
1030.115	-1.16
1030.539	1.19
1030.962	-1.36
1031.386	3.09
1031.81	-2.51
1032.233	-0.96
1032.657	-3.51
1033.08	0.74
1033.504	-1.76
1033.927	0.54
1034.351	1.09
1034.774	1.29
1035.198	-0.56
1035.621	1.44
1036.045	-1.36
1036.468	1.59
1036.891	1.19
1037.315	4.99
1037.738	3.04
1038.161	2.24
1038.584	0.39
1039.008	0.49
1039.431	-1.81
1039.854	-2.66
1040.277	4.99
1040.7	-1.96
1041.123	-0.61
1041.546	-7.31
1041.969	5.79
1042.392	-0.51
1042.815	-5.71
1043.238	-2.61
1043.661	-0.91
1044.084	-1.86
1044.507	2.99
1044.93	4.04
1045.352	-0.01
1045.775	0.79
1046.198	5.94
1046.621	5.39
1047.043	2.49
1047.466	4.29
1047.889	1.24
1048.311	6.04
1048.734	-1.51
1049.156	0.39
1049.579	-0.66
1050.001	-1.46
1050.424	-3.21
1050.846	-2.36
1051.269	-5.01
1051.691	-3.06
1052.113	0.44
1052.536	1.79
1052.958	-4.26
1053.38	-1.36
1053.802	2.29
1054.225	3.39
1054.647	-1.81
1055.069	-3.36
1055.491	1.39
1055.913	-0.86
1056.335	-6.66
1056.757	-2.96
1057.179	-3.66
1057.601	-1.81
1058.023	-0.76
1058.445	-5.41
1058.867	3.34
1059.289	1.99
1059.711	-2.46
1060.133	1.14
1060.555	-2.41
1060.976	1.14
1061.398	-1.51
1061.82	0.84
1062.241	-2.81
1062.663	0.74
1063.085	0.79
1063.506	-4.06
1063.928	2.24
1064.35	-1.51
1064.771	-2.11
1065.193	-5.01
1065.614	-1.11
1066.035	1.34
1066.457	4.59
1066.878	0.59
1067.3	0.44
1067.721	1.29
1068.142	5.64
1068.564	5.24
1068.985	-1.96
1069.406	-5.26
1069.827	0.04
1070.248	1.44
1070.67	-0.31
1071.091	-2.56
1071.512	-2.96
1071.933	-3.16
1072.354	-6.01
1072.775	-4.01
1073.196	0.69
1073.617	-3.01
1074.038	3.34
1074.459	-4.61
1074.88	0.54
1075.3	-2.01
1075.721	-0.56
1076.142	1.94
1076.563	-3.46
1076.983	5.44
1077.404	-5.71
1077.825	0.04
1078.246	-7.81
1078.666	-4.81
1079.087	-1.31
1079.507	-2.71
1079.928	-0.76
1080.348	-4.36
1080.769	1.94
1081.189	-2.26
1081.61	-2.66
1082.03	-2.41
1082.451	0.64
1082.871	-2.36
1083.291	-3.31
1083.711	-1.01
1084.132	-4.66
1084.552	-5.71
1084.972	-3.16
1085.392	-0.26
1085.813	-2.21
1086.233	-5.36
1086.653	1.79
1087.073	-2.31
1087.493	-4.31
1087.913	-6.86
1088.333	-0.76
1088.753	0.89
1089.173	2.04
1089.593	1.84
1090.013	-0.51
1090.433	-6.41
1090.852	0.94
1091.272	-4.01
1091.692	-0.91
1092.112	-2.56
1092.531	-3.41
1092.951	-0.06
1093.371	-2.01
1093.79	-3.01
1094.21	-1.96
1094.63	-0.46
1095.049	1.59
1095.469	-8.71
1095.888	1.79
1096.308	2.14
1096.727	-0.51
1097.146	-4.61
1097.566	-2.41
1097.985	-1.21
1098.405	-0.21
1098.824	-1.21
1099.243	-1.91
1099.662	-3.96
1100.082	-1.16
1100.501	2.24
1100.92	9.19
1101.339	3.64
1101.758	4.44
