Data from MSPlasma+Separation6_Subt14_10-14-39-183.txt Node
Date: Fri Jul 21 10:14:39 EDT 2017
User: Ender
Spectrometer: HR+D1039
Trigger mode: 0
Integration Time (sec): 6.430000E-3
Scans to average: 20
Electric dark correction enabled: true
Nonlinearity correction enabled: false
Boxcar width: 0
XAxis mode: Wavelengths
Number of Pixels in Spectrum: 2048
>>>>>Begin Spectral Data<<<<<
187.836	-1.29
188.309	-1.29
188.782	-1.29
189.255	-4.44
189.728	0.81
190.201	0.01
190.674	1.66
191.147	-1.34
191.619	1.11
192.092	3.21
192.565	-1.34
193.038	0.81
193.511	1.96
193.984	-0.09
194.456	-0.14
194.929	1.41
195.402	-1.49
195.874	-0.89
196.347	6.41
196.82	3.76
197.292	-5.14
197.765	1.56
198.237	-1.49
198.71	-5.79
199.182	2.01
199.655	7.61
200.127	3.96
200.6	1.06
201.072	2.96
201.544	-0.44
202.017	7.31
202.489	-2.19
202.961	-1.84
203.433	-0.89
203.906	-0.44
204.378	3.91
204.85	0.06
205.322	-0.74
205.794	2.56
206.266	3.71
206.739	4.21
207.211	3.11
207.683	2.76
208.155	3.16
208.627	-1.99
209.099	2.06
209.57	4.81
210.042	5.66
210.514	8.76
210.986	9.81
211.458	17.11
211.93	12.61
212.402	6.66
212.873	0.76
213.345	-0.29
213.817	6.21
214.288	0.51
214.76	4.81
215.232	5.06
215.703	5.56
216.175	5.71
216.646	6.51
217.118	6.71
217.589	1.51
218.061	3.81
218.532	0.61
219.004	9.06
219.475	12.61
219.946	20.46
220.418	32.01
220.889	26.31
221.36	13.01
221.832	11.96
222.303	7.46
222.774	8.01
223.245	8.16
223.717	6.31
224.188	5.16
224.659	4.91
225.13	1.81
225.601	3.21
226.072	7.01
226.543	12.36
227.014	4.26
227.485	11.41
227.956	13.36
228.427	19.31
228.898	16.91
229.369	15.06
229.839	13.46
230.31	14.26
230.781	14.76
231.252	20.26
231.722	22.91
232.193	33.11
232.664	36.76
233.135	42.31
233.605	55.61
234.076	43.16
234.546	35.66
235.017	41.71
235.487	37.86
235.958	41.11
236.428	58.26
236.899	91.21
237.369	102.61
237.84	73.61
238.31	94.61
238.78	94.96
239.251	92.21
239.721	91.01
240.191	71.61
240.662	43.16
241.132	34.11
241.602	44.01
242.072	61.66
242.542	74.31
243.013	49.96
243.483	50.66
243.953	34.36
244.423	39.16
244.893	43.16
245.363	52.91
245.833	52.91
246.303	52.06
246.773	72.11
247.243	73.46
247.712	83.36
248.182	95.21
248.652	99.56
249.122	138.71
249.592	252.81
250.061	382.41
250.531	602.56
251.001	464.31
251.471	382.76
251.94	288.76
252.41	166.61
252.879	116.76
253.349	91.61
253.818	76.41
254.288	66.41
254.757	68.76
255.227	89.41
255.696	77.31
256.166	68.96
256.635	68.56
257.105	86.86
257.574	114.21
258.043	116.66
258.513	197.86
258.982	242.16
259.451	174.31
259.92	168.46
260.389	161.16
260.859	121.01
261.328	139.81
261.797	190.91
262.266	173.21
262.735	88.06
263.204	55.16
263.673	59.96
264.142	48.76
264.611	49.01
265.08	58.01
265.549	56.76
266.018	53.36
266.487	53.06
266.955	49.11
267.424	62.51
267.893	59.41
268.362	61.61
268.83	56.51
269.299	58.26
269.768	63.61
270.236	77.36
270.705	88.86
271.174	85.31
271.642	85.96
272.111	97.46
272.579	156.06
273.048	224.96
273.516	283.21
273.985	285.46
274.453	225.01
274.922	141.71
275.39	89.76
275.858	90.61
276.327	81.76
276.795	84.96
277.263	97.11
277.731	141.91
278.2	294.41
278.668	393.16
279.136	296.31
279.604	183.36
280.072	102.26
280.54	85.76
281.008	84.16
281.477	83.26
281.945	86.41
282.413	86.96
282.881	89.11
283.348	88.41
283.816	95.51
284.284	102.96
284.752	94.71
285.22	95.46
285.688	99.76
286.156	155.91
286.623	387.16
287.091	748.96
287.559	403.51
288.026	166.16
288.494	115.51
288.962	97.31
289.429	92.86
289.897	84.86
290.364	86.16
290.832	89.01
291.3	91.76
291.767	94.76
292.234	102.21
292.702	97.86
293.169	101.16
293.637	106.91
294.104	106.36
294.571	101.96
295.039	105.26
295.506	103.26
295.973	108.61
296.44	108.31
296.908	110.86
297.375	123.26
297.842	125.21
298.309	110.56
298.776	106.56
299.243	114.66
299.71	113.11
300.177	108.76
300.644	119.56
301.111	131.16
301.578	121.76
302.045	116.16
302.512	112.91
302.979	120.96
303.446	125.96
303.913	128.01
304.379	131.61
304.846	141.56
305.313	148.01
305.78	161.76
306.246	186.21
306.713	193.66
307.18	179.71
307.646	183.56
308.113	175.51
308.579	159.41
309.046	156.66
309.512	151.36
309.979	143.41
310.445	142.06
310.912	146.51
311.378	145.51
311.845	146.36
312.311	140.71
312.777	142.61
313.244	150.51
313.71	156.66
314.176	164.61
314.642	182.21
315.109	196.31
315.575	186.81
316.041	176.91
316.507	173.86
316.973	190.81
317.439	181.66
317.905	189.86
318.371	192.71
318.837	188.71
319.303	189.36
319.769	183.21
320.235	199.91
320.701	221.16
321.167	225.86
321.633	257.46
322.099	322.61
322.564	412.06
323.03	342.46
323.496	267.41
323.962	253.76
324.427	242.26
324.893	222.36
325.359	218.06
325.824	200.66
326.29	214.56
326.755	212.56
327.221	208.81
327.686	217.91
328.152	206.21
328.617	203.21
329.083	204.51
329.548	211.31
330.014	217.06
330.479	232.06
330.944	253.76
331.41	276.86
331.875	270.11
332.34	272.01
332.805	302.16
333.271	359.31
333.736	447.76
334.201	414.66
334.666	336.61
335.131	366.01
335.596	312.26
336.061	326.46
336.526	332.76
336.991	294.66
337.456	310.66
337.921	264.31
338.386	239.91
338.851	224.71
339.316	223.21
339.781	217.61
340.246	222.11
340.711	222.06
341.175	227.46
341.64	236.66
342.105	230.01
342.569	253.11
343.034	263.81
343.499	265.91
343.963	260.46
344.428	254.81
344.893	257.36
345.357	264.01
345.822	253.61
346.286	270.76
346.751	273.91
347.215	277.06
347.679	283.06
348.144	302.81
348.608	299.86
349.073	310.81
349.537	330.11
350.001	316.81
350.465	306.66
350.93	302.86
351.394	308.46
351.858	307.16
352.322	319.21
352.786	324.21
353.25	317.26
353.715	323.51
354.179	341.96
354.643	348.71
355.107	362.51
355.571	373.56
356.035	391.11
356.498	371.76
356.962	394.81
357.426	386.66
357.89	358.36
358.354	331.36
358.818	330.86
359.281	345.46
359.745	359.56
360.209	354.91
360.673	359.21
361.136	358.46
361.6	355.61
362.064	377.81
362.527	378.46
362.991	374.21
363.454	378.76
363.918	385.61
364.381	382.11
364.845	377.01
365.308	370.11
365.772	373.41
366.235	379.36
366.698	388.41
367.162	431.71
367.625	468.76
368.088	420.66
368.552	403.66
369.015	401.21
369.478	422.61
369.941	430.76
370.404	440.66
370.867	459.71
371.331	464.61
371.794	468.96
372.257	513.71
372.72	537.21
373.183	510.36
373.646	519.91
374.109	515.81
374.572	546.36
375.035	606.16
375.497	512.86
375.96	449.41
376.423	436.66
376.886	438.61
377.349	450.96
377.811	450.76
378.274	463.61
378.737	468.11
379.199	480.36
379.662	487.26
380.125	521.26
380.587	557.46
381.05	592.51
381.512	584.26
381.975	577.91
382.437	571.61
382.9	567.21
383.362	568.51
383.825	588.06
384.287	710.96
384.75	771.51
385.212	696.51
385.674	609.16
386.136	572.11
386.599	569.86
387.061	584.11
387.523	607.51
387.985	609.91
388.447	631.66
388.91	680.01
389.372	791.66
389.834	755.41
390.296	653.06
390.758	670.86
391.22	694.21
391.682	815.71
392.144	1219.51
392.606	1154.76
393.068	723.36
393.529	671.76
393.991	654.91
394.453	638.21
394.915	654.11
395.377	782.96
395.838	949.61
396.3	710.31
396.762	568.51
397.224	543.56
397.685	535.61
398.147	542.91
398.608	555.71
399.07	551.71
399.531	551.86
399.993	560.91
400.454	568.06
400.916	570.86
401.377	587.36
401.839	588.51
402.3	591.31
402.762	615.21
403.223	672.76
403.684	687.36
404.145	632.46
404.607	618.16
405.068	615.61
405.529	631.26
405.99	635.41
406.451	649.46
406.913	637.61
407.374	646.86
407.835	642.96
408.296	660.16
408.757	661.36
409.218	682.96
409.679	690.11
410.14	706.91
410.601	727.91
411.062	742.16
411.522	825.76
411.983	885.76
412.444	796.86
412.905	730.21
413.366	729.81
413.826	764.61
414.287	852.76
414.748	1009.51
415.208	1029.46
415.669	864.36
416.13	794.01
416.59	770.31
417.051	791.26
417.511	836.21
417.972	898.31
418.432	960.61
418.893	1066.36
419.353	1013.46
419.814	793.06
420.274	710.06
420.734	713.46
421.195	748.76
421.655	786.66
422.115	754.41
422.576	733.66
423.036	732.76
423.496	757.56
423.956	795.36
424.416	842.91
424.876	957.76
425.336	954.51
425.797	945.91
426.257	937.11
426.717	884.61
427.177	827.51
427.637	842.51
428.097	881.16
428.556	924.21
429.016	1007.86
429.476	1010.01
429.936	977.51
430.396	962.41
430.856	974.71
431.315	1004.31
431.775	1076.21
432.235	1141.26
432.694	1158.16
433.154	1089.86
433.614	1060.36
434.073	1014.71
434.533	939.86
434.993	894.91
435.452	900.76
435.912	883.56
436.371	878.91
436.83	879.91
437.29	882.31
437.749	836.01
438.209	821.81
438.668	827.46
439.127	839.26
439.587	819.81
440.046	795.51
440.505	809.61
440.964	802.36
441.424	830.66
441.883	844.36
442.342	801.06
442.801	774.96
443.26	791.66
443.719	779.66
444.178	774.31
444.637	795.06
445.096	791.06
445.555	798.36
446.014	799.06
446.473	785.06
446.932	793.41
447.391	801.71
447.849	812.51
448.308	801.46
448.767	810.76
449.226	834.36
449.685	833.76
450.143	870.81
450.602	869.01
451.061	831.46
451.519	839.56
451.978	845.01
452.436	856.66
452.895	841.36
453.353	818.66
453.812	818.46
454.27	826.01
454.729	802.81
455.187	816.16
455.646	814.36
456.104	830.21
456.562	825.01
457.021	823.71
457.479	792.81
457.937	816.61
458.395	845.81
458.854	828.31
459.312	818.46
459.77	827.71
460.228	838.61
460.686	849.16
461.144	855.91
461.602	846.66
462.06	844.96
462.518	862.31
462.976	865.41
463.434	878.66
463.892	881.11
464.35	903.86
464.808	912.81
465.266	924.91
465.724	939.21
466.181	942.61
466.639	930.26
467.097	972.06
467.555	1002.21
468.012	997.51
468.47	1005.61
468.928	1034.26
469.385	1062.36
469.843	1076.11
470.3	1067.16
470.758	1113.56
471.215	1121.76
471.673	1140.66
472.13	1174.31
472.588	1201.11
473.045	1204.71
473.503	1220.36
473.96	1276.36
474.417	1290.91
474.875	1344.11
475.332	1400.66
475.789	1421.46
476.246	1459.16
476.704	1528.36
477.161	1574.11
477.618	1620.46
478.075	1706.81
478.532	1850.16
478.989	2005.41
479.446	2201.71
479.903	2334.01
480.36	2580.46
480.817	2745.36
481.274	2938.06
481.731	3226.26
482.188	3485.71
482.645	3757.61
483.102	3959.01
483.558	4255.66
484.015	4476.71
484.472	4452.96
484.929	4329.11
485.385	4120.81
485.842	4020.86
486.299	3818.91
486.755	3463.31
487.212	3108.16
487.668	2778.51
488.125	2568.51
488.582	2368.16
489.038	2275.86
489.494	2193.01
489.951	2117.96
490.407	2062.46
490.864	2031.36
491.32	1978.91
491.776	1957.31
492.233	1953.06
492.689	1918.76
493.145	1895.41
493.602	1872.11
494.058	1901.46
494.514	1921.36
494.97	1929.21
495.426	1935.66
495.882	1935.61
496.338	1945.51
496.794	1987.36
497.251	1991.86
497.707	2003.31
498.163	2005.46
498.618	2005.61
499.074	2020.71
499.53	2049.61
499.986	2083.01
500.442	2101.91
500.898	2093.06
501.354	2122.16
501.809	2130.61
502.265	2160.96
502.721	2231.56
503.177	2272.26
503.632	2196.11
504.088	2215.56
504.543	2360.86
504.999	2254.21
505.455	2069.56
505.91	1998.16
506.366	1981.41
506.821	1976.61
507.277	1968.06
507.732	1974.61
508.187	1970.61
508.643	1990.06
509.098	1996.91
509.553	2017.36
510.009	2033.76
510.464	2083.06
510.919	2098.11
511.375	2131.56
511.83	2132.71
512.285	2184.71
512.74	2232.41
513.195	2247.31
513.65	2294.71
514.105	2331.46
514.56	2327.31
515.015	2383.61
515.47	2414.76
515.925	2389.41
516.38	2376.31
516.835	2371.16
517.29	2372.01
517.745	2371.71
518.2	2330.76
518.655	2272.11
519.109	2244.76
519.564	2228.66
520.019	2209.06
520.474	2180.41
520.928	2173.86
521.383	2152.06
521.838	2161.91
522.292	2132.11
522.747	2111.81
523.201	2111.36
523.656	2097.81
524.11	2076.96
524.565	2067.76
525.019	2067.56
525.474	2091.16
525.928	2079.61
526.382	2056.16
526.837	2042.96
527.291	2061.21
527.745	2040.41
528.2	2046.36
528.654	2024.41
529.108	2030.31
529.562	2047.31
530.016	2036.71
530.47	2036.46
530.925	2020.36
531.379	2041.71
531.833	2056.36
532.287	2042.16
532.741	2035.71
533.195	2045.91
533.649	2026.61
534.103	2045.51
534.556	2033.46
535.01	2040.66
535.464	2040.51
535.918	2043.11
536.372	2050.91
536.826	2041.56
537.279	2023.61
537.733	2025.66
538.187	2046.46
538.64	2039.46
539.094	2073.36
539.548	2086.61
540.001	2075.46
540.455	2093.11
540.908	2101.56
541.362	2132.41
541.815	2139.66
542.269	2183.01
542.722	2177.21
543.175	2205.71
543.629	2214.21
544.082	2230.71
544.536	2248.26
544.989	2244.76
545.442	2256.66
545.895	2252.71
546.349	2257.76
546.802	2258.96
547.255	2266.61
547.708	2279.31
548.161	2300.76
548.614	2299.81
549.067	2309.06
549.52	2286.36
549.973	2269.36
550.426	2264.01
550.879	2238.86
551.332	2248.76
551.785	2264.86
552.238	2299.21
552.691	2287.36
553.144	2312.36
553.596	2347.26
554.049	2381.86
554.502	2430.41
554.955	2461.71
555.407	2497.41
555.86	2470.01
556.313	2448.91
556.765	2415.46
557.218	2394.66
557.67	2391.56
558.123	2351.61
558.576	2360.11
559.028	2332.66
559.48	2373.61
559.933	2355.56
560.385	2284.41
560.838	2211.56
561.29	2144.86
561.742	2131.41
562.195	2094.91
562.647	2085.86
563.099	2085.76
563.551	2062.96
564.004	2086.96
564.456	2068.81
564.908	2029.71
565.36	1986.01
565.812	1955.76
566.264	1943.11
566.716	1917.46
567.168	1889.76
567.62	1891.41
568.072	1863.41
568.524	1848.36
568.976	1836.51
569.428	1820.06
569.88	1819.06
570.332	1825.91
570.784	1830.81
571.235	1808.16
571.687	1827.56
572.139	1830.96
572.59	1844.66
573.042	1861.76
573.494	1854.31
573.945	1827.76
574.397	1798.61
574.849	1791.31
575.3	1784.56
575.752	1771.61
576.203	1755.71
576.655	1762.71
577.106	1734.36
577.557	1730.76
578.009	1718.36
578.46	1730.81
578.912	1713.91
579.363	1726.61
579.814	1721.56
580.265	1721.21
580.717	1727.41
581.168	1724.66
581.619	1727.16
582.07	1759.06
582.521	1738.66
582.972	1751.31
583.423	1779.21
583.875	1840.41
584.326	1992.81
584.777	2288.16
585.227	2647.41
585.678	2893.51
586.129	2977.66
586.58	3036.71
587.031	3054.16
587.482	3307.21
587.933	4113.16
588.384	3639.81
588.834	2723.46
589.285	2073.46
589.736	1989.31
590.186	1974.41
590.637	1947.41
591.088	1900.31
591.538	1885.36
591.989	1856.56
592.439	1844.91
592.89	1826.41
593.34	1831.16
593.791	1831.86
594.241	1820.81
594.692	1837.11
595.142	1816.06
595.593	1805.11
596.043	1806.36
596.493	1825.41
596.943	1864.96
597.394	1872.36
597.844	1856.46
598.294	1886.76
598.744	1956.41
599.195	2045.11
599.645	2151.16
600.095	2257.36
600.545	2366.66
600.995	2473.06
601.445	2550.31
601.895	2672.96
602.345	2746.96
602.795	2707.56
603.245	2593.96
603.695	2442.91
604.145	2325.61
604.594	2199.81
605.044	2104.31
605.494	1972.66
605.944	1865.71
606.393	1833.51
606.843	1797.01
607.293	1803.26
607.743	1805.96
608.192	1805.51
608.642	1799.86
609.091	1812.36
609.541	1821.46
609.99	1813.51
610.44	1764.41
610.889	1753.76
611.339	1732.51
611.788	1725.46
612.238	1734.56
612.687	1759.56
613.136	1780.21
613.586	1800.71
614.035	1814.91
614.484	1822.71
614.933	1833.41
615.383	1776.96
615.832	1728.71
616.281	1689.91
616.73	1647.66
617.179	1610.81
617.628	1565.06
618.077	1544.06
618.526	1519.71
618.975	1505.56
619.424	1471.56
619.873	1482.06
620.322	1476.21
620.771	1470.46
621.22	1448.51
621.669	1411.66
622.118	1416.51
622.567	1395.16
623.015	1378.11
623.464	1370.66
623.913	1354.16
624.361	1355.16
624.81	1350.61
625.259	1348.41
625.707	1326.86
626.156	1326.81
626.604	1360.06
627.053	1362.26
627.501	1348.96
627.95	1364.16
628.398	1375.16
628.847	1369.01
629.295	1377.91
629.744	1375.41
630.192	1390.56
630.64	1463.06
631.089	1562.36
631.537	1612.11
631.985	1593.86
632.433	1652.91
632.881	1649.01
633.33	1905.26
633.778	2039.56
634.226	1557.51
634.674	1467.61
635.122	1471.06
635.57	1489.61
636.018	1680.41
636.466	1434.56
636.914	1316.81
637.362	1334.31
637.81	1347.26
638.258	1394.66
638.705	1400.76
639.153	1441.41
639.601	1447.31
640.049	1482.01
640.497	1522.96
640.944	1553.11
641.392	1481.61
641.84	1411.61
642.287	1358.41
642.735	1342.31
643.182	1328.26
643.63	1323.51
644.078	1324.86
644.525	1350.81
644.973	1390.11
645.42	1413.21
645.867	1441.46
646.315	1464.56
646.762	1524.91
647.21	1576.26
647.657	1660.61
648.104	1730.06
648.551	1786.61
648.999	1936.51
649.446	2143.86
649.893	2416.56
650.34	2848.46
650.787	3552.11
651.234	4635.16
651.682	6485.41
652.129	9287.66
652.576	13262.61
653.023	15535.06
653.47	15538.26
653.917	15538.31
654.363	15538.21
654.81	15535.21
655.257	15535.86
655.704	15539.66
656.151	10059.06
656.598	6532.26
657.044	4625.26
657.491	3595.61
657.938	2901.36
658.385	2434.11
658.831	2137.76
659.278	1915.61
659.724	1737.01
660.171	1608.16
660.618	1497.21
661.064	1400.96
661.511	1357.91
661.957	1311.01
662.404	1274.86
662.85	1252.46
663.296	1231.86
663.743	1207.56
664.189	1203.16
664.635	1188.11
665.082	1166.66
665.528	1159.21
665.974	1126.11
666.42	1110.21
666.867	1126.61
667.313	1150.51
667.759	1197.11
668.205	1192.16
668.651	1206.76
669.097	1167.56
669.543	1272.96
669.989	1195.16
670.435	1055.01
670.881	1039.96
671.327	1078.81
671.773	1163.01
672.219	1236.66
672.665	1326.16
673.11	1360.41
673.556	1380.71
674.002	1401.26
674.448	1417.26
674.893	1209.21
675.339	1053.06
675.785	976.06
676.23	925.46
676.676	890.01
677.122	872.41
677.567	844.81
678.013	825.21
678.458	812.46
678.904	811.71
679.349	806.31
679.794	794.71
680.24	800.76
680.685	796.96
681.131	791.56
681.576	800.76
682.021	805.61
682.466	812.76
682.912	814.11
683.357	864.76
683.802	932.21
684.247	1013.76
684.692	1077.21
685.137	1124.61
685.583	1145.86
686.028	1198.91
686.473	1133.86
686.918	978.86
687.363	903.21
687.807	863.51
688.252	821.56
688.697	791.51
689.142	762.21
689.587	772.61
690.032	787.51
690.477	816.86
690.921	856.06
691.366	894.56
691.811	937.76
692.255	1016.26
692.7	1235.56
693.145	1784.86
693.589	2690.91
694.034	3209.01
694.478	3407.01
694.923	3100.91
695.367	4394.06
695.812	2703.21
696.256	1148.11
696.701	843.46
697.145	780.26
697.59	765.31
698.034	743.11
698.478	742.26
698.922	749.61
699.367	760.81
699.811	801.56
700.255	869.71
700.699	946.71
701.143	1029.61
701.588	1084.76
702.032	1129.36
702.476	1167.46
702.92	1231.06
703.364	1620.36
703.808	2479.61
704.252	3087.46
704.696	3230.96
705.14	3055.11
705.584	4173.11
706.027	2321.81
706.471	1171.06
706.915	879.01
707.359	782.46
707.803	730.46
708.246	712.76
708.69	708.26
709.134	692.86
709.577	697.86
710.021	705.81
710.465	702.41
710.908	698.36
711.352	726.01
711.795	802.16
712.239	864.36
712.682	890.01
713.126	872.16
713.569	969.71
714.012	807.21
714.456	712.11
714.899	663.86
715.342	623.56
715.786	603.11
716.229	588.76
716.672	571.46
717.115	566.41
717.558	579.26
718.002	597.01
718.445	620.66
718.888	655.76
719.331	665.51
719.774	680.01
720.217	660.36
720.66	625.51
721.103	594.76
721.546	566.81
721.989	549.41
722.432	539.76
722.874	540.31
723.317	549.31
723.76	598.06
724.203	734.81
724.645	987.16
725.088	1144.91
725.531	1110.56
725.974	1214.51
726.416	1092.26
726.859	682.76
727.301	565.26
727.744	535.16
728.187	541.31
728.629	540.36
729.071	580.71
729.514	597.46
729.956	619.91
730.399	634.26
730.841	634.46
731.283	613.46
731.726	598.01
732.168	606.31
732.61	647.31
733.053	699.11
733.495	769.56
733.937	846.71
734.379	998.16
734.821	1282.71
735.263	2042.16
735.705	3664.36
736.148	5354.16
736.59	5306.31
737.032	5738.46
737.474	4732.16
737.916	1829.46
738.357	963.16
738.799	744.61
739.241	693.21
739.683	694.66
740.125	704.51
740.567	707.11
741.008	743.66
741.45	777.71
741.892	802.31
742.334	808.86
742.775	795.96
743.217	757.36
743.658	656.96
744.1	670.91
744.542	753.06
744.983	781.61
745.425	823.16
745.866	809.01
746.307	703.11
746.749	763.61
747.19	1112.41
747.632	2158.46
748.073	3985.06
748.514	5482.61
748.956	7275.36
749.397	8460.36
749.838	5848.36
750.279	5531.96
750.72	2864.31
751.162	1220.91
751.603	705.61
752.044	567.26
752.485	503.86
752.926	473.06
753.367	451.96
753.808	436.51
754.249	432.26
754.69	434.71
755.131	426.11
755.572	425.61
756.013	421.21
756.453	432.61
756.894	433.16
757.335	432.51
757.776	442.36
758.216	454.31
758.657	478.56
759.098	530.01
759.538	651.51
759.979	944.01
760.42	1898.21
760.86	4848.86
761.301	9975.01
761.741	11606.01
762.182	13262.56
762.622	8594.31
763.063	3119.21
763.503	1385.56
763.943	1069.51
764.384	1168.91
764.824	1112.21
765.264	1097.26
765.705	769.36
766.145	550.01
766.585	479.81
767.025	514.81
767.465	681.21
767.906	833.86
768.346	865.51
768.786	899.01
769.226	907.71
769.666	1547.36
770.106	3338.61
770.546	4700.51
770.986	5278.86
771.426	3989.71
771.866	1686.76
772.306	767.21
772.745	483.01
773.185	418.01
773.625	413.06
774.065	481.71
774.505	773.61
774.944	1518.01
775.384	2266.46
775.824	2555.71
776.263	2097.46
776.703	1043.01
777.142	539.71
777.582	382.31
778.021	339.66
778.461	328.01
778.9	313.06
779.34	289.26
779.779	279.71
780.219	268.81
780.658	268.46
781.097	264.86
781.537	250.56
781.976	253.56
782.415	253.76
782.855	252.96
783.294	251.16
783.733	248.11
784.172	252.21
784.611	249.51
785.05	253.01
785.489	261.46
785.928	272.46
786.367	278.31
786.806	289.46
787.245	311.21
787.684	325.51
788.123	317.11
788.562	305.01
789.001	292.01
789.44	284.76
789.879	282.96
790.317	296.41
790.756	307.41
791.195	358.41
791.634	479.21
792.072	869.51
792.511	2122.56
792.95	3874.96
793.388	4689.96
793.827	3036.71
794.265	1394.81
794.704	673.81
795.142	416.21
795.581	336.16
796.019	305.86
796.458	303.81
796.896	316.01
797.334	360.61
797.773	484.91
798.211	936.06
798.649	1933.41
799.087	3229.66
799.526	4560.86
799.964	4696.86
800.402	3235.41
800.84	1466.41
801.278	716.91
801.716	436.86
802.154	350.11
802.592	332.36
803.03	335.16
803.468	340.96
803.906	347.86
804.344	332.26
804.782	328.41
805.22	332.61
805.658	345.91
806.096	366.16
806.533	400.76
806.971	524.41
807.409	756.96
807.847	1524.96
808.284	3858.56
808.722	6740.81
809.16	9462.71
809.597	12804.56
810.035	15305.31
810.472	10286.16
810.91	4382.51
811.347	1971.91
811.785	926.16
812.222	578.86
812.66	447.16
813.097	377.11
813.535	333.56
813.972	297.11
814.409	281.41
814.846	262.31
815.284	251.46
815.721	256.91
816.158	285.46
816.595	377.76
817.032	468.66
817.47	437.86
817.907	352.96
818.344	306.71
818.781	281.96
819.218	315.96
819.655	462.61
820.092	590.41
820.529	543.71
820.966	446.41
821.403	315.96
821.839	279.86
822.276	296.26
822.713	341.81
823.15	321.61
823.587	357.21
824.023	629.11
824.46	1579.71
824.897	2753.96
825.333	2133.71
825.77	986.71
826.206	511.01
826.643	304.91
827.08	226.91
827.516	200.76
827.953	183.96
828.389	175.41
828.825	167.96
829.262	162.96
829.698	156.81
830.135	155.86
830.571	150.36
831.007	149.31
831.443	150.41
831.88	153.86
832.316	162.86
832.752	156.61
833.188	160.71
833.624	155.76
834.06	158.71
834.497	163.46
834.933	164.96
835.369	176.56
835.805	191.41
836.241	195.16
836.677	218.81
837.112	257.16
837.548	314.91
837.984	464.91
838.42	995.31
838.856	2793.71
839.292	5477.11
839.727	4049.11
840.163	2745.71
840.599	4174.26
841.034	6358.41
841.47	3161.91
841.906	1540.86
842.341	862.06
842.777	727.51
843.212	837.26
843.648	500.46
844.083	315.16
844.519	222.91
844.954	182.26
845.39	159.71
845.825	150.76
846.261	147.46
846.696	140.71
847.131	135.61
847.566	132.66
848.002	132.36
848.437	145.46
848.872	146.41
849.307	193.41
849.742	354.21
850.177	916.96
850.613	1931.71
851.048	1384.26
851.483	634.86
851.918	357.76
852.353	204.71
852.788	163.46
853.223	140.11
853.657	121.36
854.092	116.26
854.527	115.56
854.962	114.56
855.397	124.21
855.832	107.91
856.266	97.71
856.701	104.31
857.136	102.46
857.57	121.91
858.005	143.31
858.44	123.81
858.874	122.56
859.309	125.86
859.743	118.66
860.178	115.56
860.612	124.71
861.047	164.76
861.481	220.86
861.915	149.36
862.35	118.81
862.784	102.86
863.218	92.56
863.653	99.31
864.087	122.71
864.521	156.36
864.955	262.66
865.39	450.06
865.824	328.41
866.258	398.01
866.692	577.91
867.126	416.91
867.56	232.41
867.994	153.71
868.428	129.61
868.862	159.66
869.296	148.01
869.73	172.86
870.164	151.01
870.598	135.31
871.031	103.01
871.465	94.26
871.899	77.31
872.333	72.16
872.766	71.21
873.2	73.51
873.634	73.76
874.067	79.96
874.501	73.16
874.935	80.46
875.368	78.66
875.802	70.76
876.235	65.91
876.669	64.06
877.102	59.46
877.535	57.91
877.969	58.31
878.402	57.11
878.836	60.36
879.269	58.51
879.702	57.21
880.135	60.66
880.569	68.56
881.002	60.66
881.435	56.61
881.868	56.06
882.301	51.46
882.734	51.86
883.167	56.46
883.601	49.31
884.034	47.31
884.467	44.51
884.899	50.36
885.332	44.86
885.765	47.91
886.198	47.86
886.631	49.21
887.064	48.81
887.497	43.56
887.929	49.51
888.362	46.91
888.795	47.41
889.228	49.01
889.66	45.06
890.093	39.96
890.526	49.26
890.958	42.36
891.391	46.01
891.823	44.56
892.256	48.66
892.688	52.86
893.121	43.56
893.553	48.31
893.985	42.31
894.418	41.31
894.85	44.06
895.282	44.81
895.715	37.11
896.147	34.76
896.579	36.21
897.011	47.81
897.444	40.06
897.876	35.91
898.308	38.51
898.74	44.81
899.172	43.31
899.604	45.66
900.036	41.51
900.468	36.96
900.9	45.51
901.332	53.01
901.764	55.71
902.196	49.61
902.628	50.16
903.06	73.86
903.491	79.41
903.923	64.21
904.355	67.36
904.787	71.31
905.218	61.66
905.65	53.56
906.082	50.96
906.513	51.01
906.945	52.81
907.376	50.66
907.808	51.66
908.239	62.86
908.671	59.41
909.102	67.11
909.534	95.61
909.965	175.76
910.397	451.81
910.828	1287.41
911.259	794.51
911.691	431.16
912.122	250.21
912.553	125.31
912.984	74.26
913.415	60.56
913.847	59.41
914.278	49.76
914.709	46.11
915.14	45.56
915.571	47.86
916.002	43.71
916.433	39.81
916.864	36.71
917.295	43.51
917.726	50.76
918.157	66.11
918.587	63.16
919.018	56.41
919.449	51.61
919.88	64.56
920.311	98.56
920.741	269.31
921.172	480.96
921.603	242.91
922.033	151.86
922.464	94.06
922.895	64.76
923.325	52.61
923.756	45.71
924.186	66.06
924.617	99.86
925.047	153.01
925.478	138.01
925.908	101.46
926.338	68.86
926.769	50.81
927.199	43.01
927.629	37.71
928.06	43.11
928.49	40.66
928.92	30.76
929.35	33.81
929.78	26.46
930.21	24.71
930.641	22.71
931.071	23.81
931.501	23.36
931.931	16.56
932.361	19.76
932.791	26.66
933.221	27.01
933.651	41.06
934.08	67.61
934.51	38.31
934.94	30.36
935.37	26.16
935.8	28.26
936.229	22.51
936.659	19.56
937.089	32.61
937.519	49.01
937.948	64.46
938.378	41.56
938.807	28.21
939.237	19.51
939.666	16.06
940.096	18.91
940.525	9.81
940.955	17.91
941.384	9.36
941.814	10.96
942.243	14.86
942.672	7.06
943.102	11.56
943.531	10.26
943.96	8.71
944.39	13.56
944.819	14.41
945.248	14.61
945.677	12.66
946.106	11.71
946.535	12.01
946.964	15.51
947.393	13.01
947.822	9.91
948.251	13.96
948.68	15.11
949.109	11.31
949.538	7.61
949.967	11.41
950.396	8.26
950.825	15.11
951.254	10.36
951.682	8.26
952.111	6.71
952.54	6.66
952.969	7.26
953.397	5.96
953.826	4.16
954.254	11.06
954.683	6.56
955.112	15.06
955.54	9.91
955.969	4.86
956.397	7.56
956.826	5.56
957.254	10.26
957.682	10.36
958.111	6.66
958.539	11.06
958.967	11.86
959.396	18.56
959.824	6.16
960.252	10.81
960.68	9.21
961.109	11.06
961.537	13.96
961.965	5.71
962.393	8.66
962.821	10.76
963.249	11.16
963.677	14.66
964.105	76.96
964.533	139.66
964.961	72.11
965.389	37.56
965.817	24.31
966.245	17.26
966.672	8.41
967.1	7.21
967.528	2.11
967.956	6.61
968.383	6.21
968.811	4.16
969.239	10.21
969.666	8.61
970.094	7.26
970.522	4.46
970.949	7.26
971.377	0.86
971.804	4.61
972.232	5.61
972.659	6.26
973.087	4.46
973.514	3.36
973.941	4.41
974.369	4.21
974.796	5.46
975.223	2.21
975.651	8.96
976.078	3.06
976.505	10.26
976.932	34.46
977.359	40.91
977.786	25.71
978.214	18.76
978.641	8.36
979.068	9.56
979.495	2.96
979.922	4.06
980.349	7.76
980.776	7.76
981.202	4.66
981.629	10.61
982.056	6.41
982.483	-0.84
982.91	7.06
983.337	1.31
983.763	5.11
984.19	6.06
984.617	1.56
985.043	6.86
985.47	5.06
985.897	8.66
986.323	9.26
986.75	4.61
987.176	2.96
987.603	7.56
988.029	8.41
988.456	10.16
988.882	2.61
989.308	1.81
989.735	0.06
990.161	2.31
990.587	-1.04
991.014	1.26
991.44	5.61
991.866	5.41
992.292	2.61
992.719	4.56
993.145	3.96
993.571	5.96
993.997	8.61
994.423	3.41
994.849	-0.19
995.275	2.61
995.701	2.41
996.127	1.01
996.553	4.36
996.979	0.31
997.405	9.51
997.83	4.81
998.256	7.41
998.682	4.51
999.108	-0.09
999.534	-3.54
999.959	-1.49
1000.385	7.61
1000.811	-0.04
1001.236	-0.94
1001.662	3.81
1002.087	7.91
1002.513	5.76
1002.938	-0.39
1003.364	3.56
1003.789	3.81
1004.215	3.21
1004.64	3.66
1005.066	7.51
1005.491	9.96
1005.916	4.91
1006.342	8.06
1006.767	2.86
1007.192	8.56
1007.617	1.76
1008.042	6.71
1008.468	6.36
1008.893	5.46
1009.318	9.21
1009.743	13.81
1010.168	25.91
1010.593	22.71
1011.018	13.31
1011.443	3.61
1011.868	6.66
1012.293	8.31
1012.718	1.26
1013.143	-0.54
1013.567	6.56
1013.992	6.71
1014.417	5.16
1014.842	1.41
1015.267	0.61
1015.691	2.91
1016.116	1.21
1016.541	4.61
1016.965	5.91
1017.39	4.11
1017.814	-0.49
1018.239	-1.49
1018.663	-7.04
1019.088	-1.14
1019.512	7.96
1019.937	-2.19
1020.361	-0.99
1020.785	0.71
1021.21	-4.89
1021.634	-2.24
1022.058	1.81
1022.483	-0.44
1022.907	-2.19
1023.331	-1.39
1023.755	3.21
1024.179	2.91
1024.604	-0.89
1025.028	0.06
1025.452	4.36
1025.876	2.21
1026.3	3.41
1026.724	-3.44
1027.148	4.41
1027.572	1.46
1027.996	2.36
1028.42	1.86
1028.843	1.56
1029.267	0.06
1029.691	5.26
1030.115	-2.44
1030.539	0.26
1030.962	1.31
1031.386	-2.04
1031.81	-0.64
1032.233	1.56
1032.657	-4.84
1033.08	1.61
1033.504	-0.24
1033.927	2.56
1034.351	-2.49
1034.774	-1.79
1035.198	0.46
1035.621	1.11
1036.045	1.96
1036.468	7.46
1036.891	4.76
1037.315	-0.94
1037.738	1.01
1038.161	2.36
1038.584	1.91
1039.008	-8.74
1039.431	0.71
1039.854	-1.69
1040.277	3.36
1040.7	0.81
1041.123	0.61
1041.546	3.01
1041.969	-1.44
1042.392	0.76
1042.815	-1.94
1043.238	-3.09
1043.661	-2.29
1044.084	-1.99
1044.507	-3.34
1044.93	-3.89
1045.352	-0.44
1045.775	4.01
1046.198	2.76
1046.621	4.36
1047.043	-0.29
1047.466	2.26
1047.889	0.76
1048.311	5.26
1048.734	-1.49
1049.156	-2.04
1049.579	1.21
1050.001	3.61
1050.424	-2.09
1050.846	-2.79
1051.269	-1.29
1051.691	-0.99
1052.113	3.11
1052.536	-4.39
1052.958	-4.89
1053.38	0.76
1053.802	-3.04
1054.225	-0.94
1054.647	2.71
1055.069	-2.39
1055.491	5.51
1055.913	3.06
1056.335	-6.49
1056.757	-1.14
1057.179	0.96
1057.601	-5.09
1058.023	1.86
1058.445	-5.54
1058.867	3.46
1059.289	0.61
1059.711	-6.44
1060.133	-1.04
1060.555	-0.69
1060.976	4.31
1061.398	-0.29
1061.82	1.81
1062.241	1.66
1062.663	2.26
1063.085	-5.09
1063.506	-3.74
1063.928	-5.19
1064.35	-0.04
1064.771	1.31
1065.193	-5.19
1065.614	-2.69
1066.035	0.51
1066.457	6.36
1066.878	1.16
1067.3	2.71
1067.721	1.81
1068.142	3.81
1068.564	4.26
1068.985	-1.59
1069.406	-6.39
1069.827	-2.29
1070.248	-1.24
1070.67	-5.19
1071.091	-3.69
1071.512	-1.44
1071.933	-4.64
1072.354	-6.34
1072.775	-2.29
1073.196	1.61
1073.617	-6.89
1074.038	0.91
1074.459	-2.89
1074.88	0.36
1075.3	1.76
1075.721	0.61
1076.142	0.26
1076.563	-6.29
1076.983	-0.19
1077.404	-2.99
1077.825	3.86
1078.246	-6.09
1078.666	-2.79
1079.087	-2.64
1079.507	-4.09
1079.928	-4.29
1080.348	-2.44
1080.769	-0.64
1081.189	-5.54
1081.61	-6.69
1082.03	1.06
1082.451	4.46
1082.871	-3.44
1083.291	-3.74
1083.711	-1.04
1084.132	-2.84
1084.552	-2.19
1084.972	-2.69
1085.392	-2.94
1085.813	0.86
1086.233	-0.99
1086.653	1.01
1087.073	-2.54
1087.493	-3.79
1087.913	-5.04
1088.333	-2.79
1088.753	3.26
1089.173	2.86
1089.593	0.61
1090.013	-2.04
1090.433	-3.84
1090.852	4.81
1091.272	-6.19
1091.692	0.56
1092.112	-2.19
1092.531	-5.34
1092.951	-1.74
1093.371	-3.59
1093.79	0.56
1094.21	2.01
1094.63	-3.49
1095.049	-1.94
1095.469	-6.19
1095.888	4.41
1096.308	-2.64
1096.727	-2.04
1097.146	-2.69
1097.566	0.21
1097.985	-1.04
1098.405	-0.04
1098.824	-1.79
1099.243	-2.09
1099.662	-0.49
1100.082	1.51
1100.501	-1.44
1100.92	6.86
1101.339	0.31
1101.758	3.66
