Data from MSPlasma+Separation6_Subt14_10-15-05-930.txt Node
Date: Fri Jul 21 10:15:05 EDT 2017
User: Ender
Spectrometer: HR+D1039
Trigger mode: 0
Integration Time (sec): 6.430000E-3
Scans to average: 20
Electric dark correction enabled: true
Nonlinearity correction enabled: false
Boxcar width: 0
XAxis mode: Wavelengths
Number of Pixels in Spectrum: 2048
>>>>>Begin Spectral Data<<<<<
187.836	-2.38
188.309	-2.38
188.782	-2.38
189.255	0.62
189.728	-1.13
190.201	-1.18
190.674	4.12
191.147	-0.23
191.619	0.02
192.092	0.12
192.565	0.82
193.038	2.77
193.511	6.57
193.984	-0.33
194.456	-2.18
194.929	-2.63
195.402	-1.73
195.874	-3.23
196.347	0.67
196.82	-1.93
197.292	-1.83
197.765	-0.98
198.237	-3.33
198.71	-5.03
199.182	-2.83
199.655	1.67
200.127	4.17
200.6	2.47
201.072	3.77
201.544	4.87
202.017	3.77
202.489	1.92
202.961	3.27
203.433	-0.68
203.906	1.92
204.378	5.87
204.85	5.22
205.322	3.02
205.794	5.47
206.266	2.12
206.739	7.32
207.211	0.82
207.683	0.37
208.155	3.87
208.627	2.02
209.099	8.02
209.57	6.22
210.042	6.82
210.514	7.97
210.986	17.32
211.458	23.42
211.93	10.32
212.402	8.52
212.873	1.97
213.345	-2.03
213.817	1.57
214.288	-1.48
214.76	6.17
215.232	3.97
215.703	1.57
216.175	5.07
216.646	5.62
217.118	1.32
217.589	0.17
218.061	5.72
218.532	1.02
219.004	5.72
219.475	11.22
219.946	31.47
220.418	36.92
220.889	25.37
221.36	14.47
221.832	13.47
222.303	9.37
222.774	7.67
223.245	5.32
223.717	4.42
224.188	8.07
224.659	4.87
225.13	2.32
225.601	5.92
226.072	10.42
226.543	11.82
227.014	6.22
227.485	9.57
227.956	11.17
228.427	17.42
228.898	11.22
229.369	14.72
229.839	12.52
230.31	16.82
230.781	16.32
231.252	21.52
231.722	29.52
232.193	34.87
232.664	37.57
233.135	56.12
233.605	56.67
234.076	51.12
234.546	36.57
235.017	48.22
235.487	47.87
235.958	45.52
236.428	63.52
236.899	106.57
237.369	114.47
237.84	86.72
238.31	109.17
238.78	108.17
239.251	108.37
239.721	108.92
240.191	86.82
240.662	52.92
241.132	42.62
241.602	51.47
242.072	73.67
242.542	82.07
243.013	61.57
243.483	52.92
243.953	37.87
244.423	41.87
244.893	56.17
245.363	60.47
245.833	55.62
246.303	58.87
246.773	84.72
247.243	80.22
247.712	95.77
248.182	110.02
248.652	115.52
249.122	171.12
249.592	324.37
250.061	484.42
250.531	777.32
251.001	591.82
251.471	482.52
251.94	371.02
252.41	203.97
252.879	138.82
253.349	104.22
253.818	88.57
254.288	72.22
254.757	79.02
255.227	99.22
255.696	86.62
256.166	73.17
256.635	79.07
257.105	99.07
257.574	129.42
258.043	131.77
258.513	233.72
258.982	296.57
259.451	204.72
259.92	210.67
260.389	196.02
260.859	142.02
261.328	168.02
261.797	244.22
262.266	210.67
262.735	96.97
263.204	66.27
263.673	60.72
264.142	50.07
264.611	54.72
265.08	55.92
265.549	61.57
266.018	54.32
266.487	47.57
266.955	49.87
267.424	63.22
267.893	62.17
268.362	61.27
268.83	57.87
269.299	61.77
269.768	74.22
270.236	88.77
270.705	94.22
271.174	88.77
271.642	100.47
272.111	120.47
272.579	186.77
273.048	290.17
273.516	371.22
273.985	381.62
274.453	287.72
274.922	173.27
275.39	108.27
275.858	93.57
276.327	83.17
276.795	83.67
277.263	90.72
277.731	125.42
278.2	250.77
278.668	324.12
279.136	250.07
279.604	160.37
280.072	99.22
280.54	84.42
281.008	88.57
281.477	87.77
281.945	93.27
282.413	91.27
282.881	97.22
283.348	97.32
283.816	99.77
284.284	107.77
284.752	101.22
285.22	103.52
285.688	116.82
286.156	194.52
286.623	539.12
287.091	1052.97
287.559	549.57
288.026	207.07
288.494	133.22
288.962	109.37
289.429	104.67
289.897	102.67
290.364	93.62
290.832	95.52
291.3	98.12
291.767	99.17
292.234	106.77
292.702	105.37
293.169	115.92
293.637	118.67
294.104	114.92
294.571	109.82
295.039	111.02
295.506	109.87
295.973	115.82
296.44	108.82
296.908	117.32
297.375	141.12
297.842	139.17
298.309	124.17
298.776	115.37
299.243	123.82
299.71	117.82
300.177	116.77
300.644	126.37
301.111	144.97
301.578	131.12
302.045	122.37
302.512	112.92
302.979	121.47
303.446	131.47
303.913	135.57
304.379	140.62
304.846	161.37
305.313	177.27
305.78	208.57
306.246	257.17
306.713	275.92
307.18	232.47
307.646	260.62
308.113	226.67
308.579	176.67
309.046	180.92
309.512	175.17
309.979	165.67
310.445	152.67
310.912	159.02
311.378	158.02
311.845	157.02
312.311	148.92
312.777	150.02
313.244	160.07
313.71	165.37
314.176	186.57
314.642	210.92
315.109	245.32
315.575	229.32
316.041	206.47
316.507	193.67
316.973	218.27
317.439	207.87
317.905	237.87
318.371	234.77
318.837	214.92
319.303	228.82
319.769	209.32
320.235	234.92
320.701	273.27
321.167	293.32
321.633	352.47
322.099	489.17
322.564	666.27
323.03	518.37
323.496	355.77
323.962	334.17
324.427	313.92
324.893	279.07
325.359	267.02
325.824	231.57
326.29	241.27
326.755	247.87
327.221	248.77
327.686	263.12
328.152	232.72
328.617	222.97
329.083	224.52
329.548	233.07
330.014	246.07
330.479	268.17
330.944	312.32
331.41	360.07
331.875	348.07
332.34	357.37
332.805	407.77
333.271	529.07
333.736	706.32
334.201	635.07
334.666	466.87
335.131	534.17
335.596	415.87
336.061	442.77
336.526	451.17
336.991	393.57
337.456	427.77
337.921	337.72
338.386	274.57
338.851	249.47
339.316	226.12
339.781	227.07
340.246	226.07
340.711	225.92
341.175	233.92
341.64	242.27
342.105	243.02
342.569	257.07
343.034	275.87
343.499	286.12
343.963	273.22
344.428	264.32
344.893	276.72
345.357	282.02
345.822	270.27
346.286	279.32
346.751	295.47
347.215	286.32
347.679	290.47
348.144	319.42
348.608	318.22
349.073	327.52
349.537	362.67
350.001	359.57
350.465	336.02
350.93	319.87
351.394	317.62
351.858	319.32
352.322	331.62
352.786	337.97
353.25	333.37
353.715	330.02
354.179	352.92
354.643	362.72
355.107	382.17
355.571	398.27
356.035	403.17
356.498	393.27
356.962	423.47
357.426	414.32
357.89	369.52
358.354	353.67
358.818	348.92
359.281	363.87
359.745	380.17
360.209	370.02
360.673	374.42
361.136	383.17
361.6	379.27
362.064	401.22
362.527	407.02
362.991	406.17
363.454	404.52
363.918	411.97
364.381	401.57
364.845	401.82
365.308	389.02
365.772	391.97
366.235	394.42
366.698	422.37
367.162	503.02
367.625	568.52
368.088	457.87
368.552	412.62
369.015	422.62
369.478	452.07
369.941	458.62
370.404	473.47
370.867	493.82
371.331	505.47
371.794	513.47
372.257	564.87
372.72	604.12
373.183	578.22
373.646	573.57
374.109	584.82
374.572	677.37
375.035	796.87
375.497	602.47
375.96	480.62
376.423	456.92
376.886	457.07
377.349	460.07
377.811	471.12
378.274	479.02
378.737	489.27
379.199	503.27
379.662	518.07
380.125	553.07
380.587	606.92
381.05	648.57
381.512	643.62
381.975	626.02
382.437	615.97
382.9	615.82
383.362	613.12
383.825	659.12
384.287	828.12
384.75	931.47
385.212	817.77
385.674	683.37
386.136	609.62
386.599	599.72
387.061	631.42
387.523	659.57
387.985	660.42
388.447	681.32
388.91	760.77
389.372	933.52
389.834	867.22
390.296	722.42
390.758	730.97
391.22	749.47
391.682	920.07
392.144	1422.57
392.606	1327.67
393.068	789.92
393.529	711.62
393.991	706.07
394.453	688.27
394.915	719.42
395.377	877.57
395.838	1070.37
396.3	761.22
396.762	588.17
397.224	562.77
397.685	552.87
398.147	568.82
398.608	564.32
399.07	579.17
399.531	560.62
399.993	572.97
400.454	583.12
400.916	579.22
401.377	592.72
401.839	604.22
402.3	603.97
402.762	632.97
403.223	693.97
403.684	702.97
404.145	653.22
404.607	639.42
405.068	639.22
405.529	660.62
405.99	665.52
406.451	667.17
406.913	653.87
407.374	663.02
407.835	669.02
408.296	685.42
408.757	695.27
409.218	709.32
409.679	721.02
410.14	728.42
410.601	760.47
411.062	791.57
411.522	919.97
411.983	1013.47
412.444	866.32
412.905	756.72
413.366	759.82
413.826	783.37
414.287	870.67
414.748	1034.37
415.208	1063.42
415.669	881.97
416.13	811.87
416.59	786.92
417.051	815.07
417.511	856.87
417.972	927.72
418.432	987.87
418.893	1095.62
419.353	1036.37
419.814	801.07
420.274	721.02
420.734	722.47
421.195	766.82
421.655	795.12
422.115	774.77
422.576	739.77
423.036	750.62
423.496	778.62
423.956	808.67
424.416	869.87
424.876	984.37
425.336	984.67
425.797	971.27
426.257	975.82
426.717	915.97
427.177	860.97
427.637	892.02
428.097	932.87
428.556	975.72
429.016	1060.12
429.476	1049.57
429.936	1010.57
430.396	983.12
430.856	1002.97
431.315	1032.42
431.775	1101.82
432.235	1158.02
432.694	1182.87
433.154	1107.52
433.614	1076.37
434.073	1039.82
434.533	950.07
434.993	912.87
435.452	916.87
435.912	912.42
436.371	893.97
436.83	903.02
437.29	918.27
437.749	867.57
438.209	853.67
438.668	870.97
439.127	878.82
439.587	856.92
440.046	819.42
440.505	839.47
440.964	840.27
441.424	862.87
441.883	873.22
442.342	836.42
442.801	797.27
443.26	826.52
443.719	817.27
444.178	814.07
444.637	816.07
445.096	819.27
445.555	840.62
446.014	836.22
446.473	811.42
446.932	812.92
447.391	821.27
447.849	839.37
448.308	832.27
448.767	855.37
449.226	872.02
449.685	876.12
450.143	916.87
450.602	918.37
451.061	877.72
451.519	893.82
451.978	915.02
452.436	947.57
452.895	904.07
453.353	873.47
453.812	887.87
454.27	872.47
454.729	841.12
455.187	850.72
455.646	854.37
456.104	869.92
456.562	855.07
457.021	844.07
457.479	817.52
457.937	843.72
458.395	857.52
458.854	851.67
459.312	835.37
459.77	851.32
460.228	862.62
460.686	872.77
461.144	870.42
461.602	864.02
462.06	867.87
462.518	893.17
462.976	881.97
463.434	895.62
463.892	901.27
464.35	917.17
464.808	935.62
465.266	939.62
465.724	954.62
466.181	954.47
466.639	956.27
467.097	989.82
467.555	1024.12
468.012	1016.32
468.47	1023.87
468.928	1058.22
469.385	1079.72
469.843	1094.92
470.3	1094.12
470.758	1132.17
471.215	1148.02
471.673	1171.72
472.13	1205.82
472.588	1236.62
473.045	1236.57
473.503	1242.87
473.96	1316.02
474.417	1325.42
474.875	1377.27
475.332	1428.87
475.789	1448.82
476.246	1482.22
476.704	1550.22
477.161	1597.72
477.618	1640.12
478.075	1734.57
478.532	1857.82
478.989	2015.27
479.446	2229.52
479.903	2355.92
480.36	2561.12
480.817	2741.37
481.274	2942.27
481.731	3215.57
482.188	3473.67
482.645	3743.22
483.102	3970.52
483.558	4256.97
484.015	4474.07
484.472	4485.37
484.929	4343.57
485.385	4138.67
485.842	4044.97
486.299	3835.82
486.755	3470.97
487.212	3105.57
487.668	2800.22
488.125	2578.47
488.582	2384.47
489.038	2283.27
489.494	2220.27
489.951	2150.42
490.407	2109.17
490.864	2070.37
491.32	2010.77
491.776	1990.72
492.233	1978.42
492.689	1959.82
493.145	1943.42
493.602	1914.47
494.058	1961.37
494.514	1999.12
494.97	2005.92
495.426	2019.72
495.882	2031.52
496.338	2035.27
496.794	2118.92
497.251	2137.52
497.707	2143.52
498.163	2127.17
498.618	2123.87
499.074	2164.22
499.53	2184.92
499.986	2224.67
500.442	2248.87
500.898	2246.17
501.354	2292.77
501.809	2298.67
502.265	2329.32
502.721	2456.22
503.177	2519.47
503.632	2386.17
504.088	2407.37
504.543	2626.52
504.999	2459.32
505.455	2162.37
505.91	2062.12
506.366	2041.77
506.821	2039.07
507.277	2017.62
507.732	2028.57
508.187	2014.82
508.643	2045.02
509.098	2039.17
509.553	2065.27
510.009	2084.17
510.464	2120.57
510.919	2151.57
511.375	2168.37
511.83	2196.42
512.285	2237.07
512.74	2308.17
513.195	2320.12
513.65	2370.42
514.105	2411.02
514.56	2414.22
515.015	2458.97
515.47	2495.77
515.925	2491.47
516.38	2469.22
516.835	2452.12
517.29	2448.82
517.745	2470.82
518.2	2428.87
518.655	2359.22
519.109	2319.27
519.564	2300.77
520.019	2295.07
520.474	2248.87
520.928	2231.57
521.383	2248.52
521.838	2226.42
522.292	2186.27
522.747	2165.57
523.201	2163.92
523.656	2147.12
524.11	2141.82
524.565	2136.82
525.019	2143.17
525.474	2151.27
525.928	2142.42
526.382	2109.82
526.837	2102.72
527.291	2106.92
527.745	2084.27
528.2	2088.62
528.654	2077.57
529.108	2086.32
529.562	2086.57
530.016	2080.72
530.47	2089.67
530.925	2085.47
531.379	2112.02
531.833	2129.72
532.287	2104.67
532.741	2096.57
533.195	2090.42
533.649	2086.97
534.103	2100.22
534.556	2075.87
535.01	2088.02
535.464	2092.17
535.918	2104.77
536.372	2103.67
536.826	2105.87
537.279	2084.12
537.733	2077.67
538.187	2097.92
538.64	2100.17
539.094	2115.87
539.548	2145.32
540.001	2136.92
540.455	2147.17
540.908	2163.47
541.362	2191.42
541.815	2196.42
542.269	2242.72
542.722	2236.17
543.175	2265.67
543.629	2279.27
544.082	2299.17
544.536	2324.67
544.989	2321.82
545.442	2337.92
545.895	2330.97
546.349	2324.02
546.802	2349.42
547.255	2346.37
547.708	2351.62
548.161	2379.57
548.614	2369.27
549.067	2393.82
549.52	2363.72
549.973	2342.72
550.426	2321.42
550.879	2303.97
551.332	2292.92
551.785	2331.47
552.238	2338.72
552.691	2348.07
553.144	2378.42
553.596	2406.57
554.049	2452.12
554.502	2480.27
554.955	2538.37
555.407	2573.12
555.86	2551.22
556.313	2515.87
556.765	2498.22
557.218	2469.42
557.67	2471.82
558.123	2433.47
558.576	2411.12
559.028	2413.22
559.48	2447.87
559.933	2432.57
560.385	2355.72
560.838	2287.02
561.29	2213.42
561.742	2210.07
562.195	2153.87
562.647	2157.62
563.099	2139.12
563.551	2139.02
564.004	2155.77
564.456	2139.92
564.908	2098.52
565.36	2047.47
565.812	2008.17
566.264	1995.37
566.716	1970.37
567.168	1931.12
567.62	1951.47
568.072	1920.92
568.524	1904.47
568.976	1887.02
569.428	1873.87
569.88	1865.92
570.332	1876.67
570.784	1878.42
571.235	1865.37
571.687	1877.92
572.139	1878.12
572.59	1893.62
573.042	1917.12
573.494	1920.37
573.945	1881.37
574.397	1844.02
574.849	1846.87
575.3	1846.87
575.752	1809.92
576.203	1800.97
576.655	1829.67
577.106	1790.92
577.557	1777.42
578.009	1774.57
578.46	1785.17
578.912	1763.52
579.363	1786.17
579.814	1770.07
580.265	1770.37
580.717	1763.67
581.168	1767.97
581.619	1777.12
582.07	1792.42
582.521	1790.42
582.972	1794.62
583.423	1808.47
583.875	1851.32
584.326	1949.32
584.777	2129.17
585.227	2340.82
585.678	2500.57
586.129	2551.32
586.58	2598.77
587.031	2634.17
587.482	2801.67
587.933	3304.32
588.384	3012.87
588.834	2459.22
589.285	2077.07
589.736	2030.62
590.186	2020.67
590.637	2020.77
591.088	1962.22
591.538	1928.47
591.989	1909.57
592.439	1912.12
592.89	1894.77
593.34	1903.72
593.791	1913.57
594.241	1923.42
594.692	1952.02
595.142	1930.52
595.593	1898.17
596.043	1893.67
596.493	1925.52
596.943	1981.32
597.394	1949.57
597.844	1925.27
598.294	1946.02
598.744	2008.17
599.195	2100.37
599.645	2222.07
600.095	2332.52
600.545	2436.12
600.995	2553.57
601.445	2643.67
601.895	2779.27
602.345	2859.37
602.795	2801.52
603.245	2688.42
603.695	2518.82
604.145	2383.37
604.594	2264.57
605.044	2149.37
605.494	2011.22
605.944	1918.72
606.393	1876.22
606.843	1855.57
607.293	1873.12
607.743	1855.02
608.192	1886.87
608.642	1863.52
609.091	1877.37
609.541	1882.07
609.99	1868.42
610.44	1830.37
610.889	1813.17
611.339	1791.52
611.788	1782.97
612.238	1798.57
612.687	1821.57
613.136	1851.12
613.586	1887.72
614.035	1872.97
614.484	1923.32
614.933	1910.47
615.383	1873.52
615.832	1806.77
616.281	1771.17
616.73	1719.17
617.179	1666.67
617.628	1629.12
618.077	1608.17
618.526	1564.87
618.975	1570.22
619.424	1542.17
619.873	1553.67
620.322	1537.47
620.771	1533.07
621.22	1502.97
621.669	1485.47
622.118	1465.87
622.567	1453.77
623.015	1428.92
623.464	1427.07
623.913	1413.67
624.361	1408.27
624.81	1411.82
625.259	1393.27
625.707	1372.77
626.156	1391.72
626.604	1407.47
627.053	1410.82
627.501	1407.47
627.95	1414.97
628.398	1434.87
628.847	1418.12
629.295	1416.07
629.744	1444.17
630.192	1484.92
630.64	1591.02
631.089	1762.07
631.537	1855.17
631.985	1845.47
632.433	1928.42
632.881	1923.27
633.33	2323.97
633.778	2545.62
634.226	1774.77
634.674	1635.72
635.122	1620.22
635.57	1653.22
636.018	1925.32
636.466	1550.47
636.914	1382.02
637.362	1371.02
637.81	1394.82
638.258	1430.67
638.705	1438.22
639.153	1480.67
639.601	1496.47
640.049	1514.22
640.497	1553.37
640.944	1603.77
641.392	1522.17
641.84	1443.52
642.287	1384.77
642.735	1363.42
643.182	1351.97
643.63	1363.12
644.078	1358.72
644.525	1384.42
644.973	1408.27
645.42	1435.47
645.867	1454.87
646.315	1483.02
646.762	1533.92
647.21	1586.17
647.657	1655.47
648.104	1713.42
648.551	1784.72
648.999	1926.32
649.446	2116.77
649.893	2374.27
650.34	2798.17
650.787	3485.62
651.234	4530.77
651.682	6322.27
652.129	9084.47
652.576	12985.47
653.023	15535.87
653.47	15539.07
653.917	15539.12
654.363	15539.02
654.81	15536.02
655.257	15536.67
655.704	15532.32
656.151	9803.27
656.598	6371.67
657.044	4505.87
657.491	3507.82
657.938	2845.07
658.385	2395.47
658.831	2118.37
659.278	1901.12
659.724	1735.02
660.171	1616.12
660.618	1499.37
661.064	1418.22
661.511	1363.77
661.957	1323.97
662.404	1295.22
662.85	1280.57
663.296	1252.82
663.743	1231.02
664.189	1222.07
664.635	1210.82
665.082	1196.72
665.528	1179.92
665.974	1146.62
666.42	1149.27
666.867	1160.37
667.313	1175.02
667.759	1235.97
668.205	1229.67
668.651	1247.07
669.097	1203.62
669.543	1316.82
669.989	1229.72
670.435	1078.77
670.881	1065.82
671.327	1116.97
671.773	1186.52
672.219	1273.97
672.665	1348.12
673.11	1393.12
673.556	1420.02
674.002	1443.77
674.448	1460.87
674.893	1252.72
675.339	1087.72
675.785	1001.97
676.23	952.82
676.676	919.52
677.122	897.37
677.567	866.67
678.013	848.07
678.458	844.52
678.904	837.82
679.349	825.27
679.794	828.47
680.24	827.27
680.685	821.62
681.131	815.17
681.576	810.62
682.021	825.67
682.466	833.67
682.912	839.82
683.357	888.22
683.802	961.07
684.247	1049.12
684.692	1118.87
685.137	1158.57
685.583	1170.92
686.028	1236.62
686.473	1166.92
686.918	1011.12
687.363	926.92
687.807	885.17
688.252	842.47
688.697	808.17
689.142	789.87
689.587	794.82
690.032	808.32
690.477	833.47
690.921	884.82
691.366	926.72
691.811	970.52
692.255	1038.62
692.7	1277.82
693.145	1837.67
693.589	2813.47
694.034	3314.97
694.478	3514.37
694.923	3199.87
695.367	4554.67
695.812	2756.52
696.256	1178.17
696.701	867.02
697.145	803.82
697.59	777.12
698.034	776.62
698.478	771.02
698.922	780.97
699.367	793.77
699.811	834.92
700.255	901.07
700.699	979.42
701.143	1068.17
701.588	1120.17
702.032	1165.57
702.476	1192.47
702.92	1275.62
703.364	1672.27
703.808	2561.77
704.252	3192.37
704.696	3347.57
705.14	3143.32
705.584	4285.87
706.027	2391.12
706.471	1207.22
706.915	899.67
707.359	798.77
707.803	758.27
708.246	734.52
708.69	731.17
709.134	715.47
709.577	718.22
710.021	728.52
710.465	724.02
710.908	723.07
711.352	746.62
711.795	828.67
712.239	894.62
712.682	923.12
713.126	919.02
713.569	1010.02
714.012	835.32
714.456	736.72
714.899	690.12
715.342	649.97
715.786	625.37
716.229	609.47
716.672	593.22
717.115	592.37
717.558	598.92
718.002	615.67
718.445	644.22
718.888	681.72
719.331	687.72
719.774	708.32
720.217	683.22
720.66	648.57
721.103	616.97
721.546	578.42
721.989	566.07
722.432	561.27
722.874	560.57
723.317	572.17
723.76	622.92
724.203	771.22
724.645	1021.52
725.088	1182.87
725.531	1153.42
725.974	1252.22
726.416	1130.67
726.859	703.22
727.301	589.42
727.744	559.67
728.187	559.87
728.629	565.62
729.071	597.32
729.514	619.02
729.956	637.77
730.399	656.62
730.841	652.87
731.283	626.82
731.726	613.52
732.168	619.22
732.61	657.22
733.053	711.57
733.495	789.67
733.937	879.77
734.379	1032.97
734.821	1322.72
735.263	2112.27
735.705	3798.77
736.148	5536.47
736.59	5473.07
737.032	5913.22
737.474	4866.72
737.916	1876.47
738.357	993.07
738.799	764.37
739.241	706.32
739.683	712.42
740.125	718.02
740.567	717.32
741.008	758.42
741.45	785.37
741.892	816.92
742.334	806.02
742.775	805.17
743.217	763.82
743.658	667.67
744.1	669.57
744.542	746.32
744.983	773.32
745.425	803.17
745.866	808.37
746.307	716.87
746.749	778.12
747.19	1137.57
747.632	2241.07
748.073	4147.37
748.514	5674.52
748.956	7489.67
749.397	8724.42
749.838	6004.67
750.279	5693.87
750.72	2950.12
751.162	1249.32
751.603	718.07
752.044	574.77
752.485	508.82
752.926	481.92
753.367	457.72
753.808	450.17
754.249	446.27
754.69	436.32
755.131	435.22
755.572	430.42
756.013	433.57
756.453	440.02
756.894	445.62
757.335	445.47
757.776	446.17
758.216	467.47
758.657	496.02
759.098	553.07
759.538	666.07
759.979	969.37
760.42	1973.62
760.86	5054.52
761.301	10318.52
761.741	11921.37
762.182	13595.32
762.622	8807.07
763.063	3179.97
763.503	1404.92
763.943	1085.12
764.384	1182.77
764.824	1114.27
765.264	1108.47
765.705	780.57
766.145	562.07
766.585	500.77
767.025	527.82
767.465	690.47
767.906	842.72
768.346	879.82
768.786	913.72
769.226	934.02
769.666	1602.52
770.106	3490.42
770.546	4861.12
770.986	5438.67
771.426	4096.57
771.866	1721.32
772.306	790.62
772.745	497.67
773.185	436.07
773.625	436.72
774.065	519.17
774.505	856.92
774.944	1722.42
775.384	2591.32
775.824	2940.12
776.263	2391.57
776.703	1178.62
777.142	585.37
777.582	400.17
778.021	362.02
778.461	341.17
778.9	324.42
779.34	307.17
779.779	284.77
780.219	284.82
780.658	271.32
781.097	269.57
781.537	261.97
781.976	260.82
782.415	259.32
782.855	261.07
783.294	265.47
783.733	261.42
784.172	258.72
784.611	261.37
785.05	265.92
785.489	267.22
785.928	276.37
786.367	287.87
786.806	304.02
787.245	326.57
787.684	332.92
788.123	330.12
788.562	322.12
789.001	305.62
789.44	292.27
789.879	294.42
790.317	297.62
790.756	326.57
791.195	366.77
791.634	496.72
792.072	899.07
792.511	2228.92
792.95	4025.92
793.388	4816.12
793.827	3103.67
794.265	1430.22
794.704	691.62
795.142	421.72
795.581	345.27
796.019	314.32
796.458	315.87
796.896	327.32
797.334	366.37
797.773	501.92
798.211	969.42
798.649	2004.92
799.087	3358.47
799.526	4710.57
799.964	4831.12
800.402	3297.67
800.84	1502.22
801.278	732.47
801.716	445.52
802.154	364.02
802.592	344.07
803.03	341.52
803.468	352.32
803.906	356.02
804.344	344.27
804.782	341.22
805.22	337.62
805.658	354.12
806.096	372.92
806.533	417.72
806.971	535.77
807.409	777.12
807.847	1580.67
808.284	4008.37
808.722	6970.72
809.16	9769.52
809.597	13202.82
810.035	15477.37
810.472	10472.57
810.91	4467.27
811.347	1986.27
811.785	939.32
812.222	589.12
812.66	455.32
813.097	390.32
813.535	340.87
813.972	308.12
814.409	284.52
814.846	269.57
815.284	252.32
815.721	258.82
816.158	278.82
816.595	353.72
817.032	430.82
817.47	401.27
817.907	314.92
818.344	276.62
818.781	262.57
819.218	315.77
819.655	445.07
820.092	560.62
820.529	528.77
820.966	434.27
821.403	321.57
821.839	281.42
822.276	297.37
822.713	343.02
823.15	323.57
823.587	359.72
824.023	657.22
824.46	1638.22
824.897	2832.77
825.333	2164.02
825.77	999.87
826.206	533.97
826.643	308.27
827.08	231.77
827.516	204.32
827.953	187.02
828.389	185.82
828.825	178.72
829.262	168.42
829.698	161.67
830.135	155.07
830.571	154.07
831.007	152.92
831.443	159.32
831.88	163.22
832.316	165.17
832.752	161.47
833.188	161.82
833.624	162.47
834.06	168.32
834.497	166.87
834.933	171.07
835.369	186.27
835.805	195.27
836.241	201.92
836.677	224.17
837.112	262.17
837.548	327.52
837.984	470.27
838.42	1036.42
838.856	2893.17
839.292	5618.02
839.727	4126.32
840.163	2813.12
840.599	4299.32
841.034	6521.02
841.47	3207.57
841.906	1583.67
842.341	899.97
842.777	789.87
843.212	936.92
843.648	544.12
844.083	336.17
844.519	234.42
844.954	189.17
845.39	165.47
845.825	148.97
846.261	150.62
846.696	142.07
847.131	135.87
847.566	136.07
848.002	139.87
848.437	153.92
848.872	156.82
849.307	199.02
849.742	362.77
850.177	948.12
850.613	1991.97
851.048	1404.37
851.483	648.22
851.918	362.82
852.353	209.12
852.788	169.52
853.223	143.67
853.657	124.67
854.092	116.17
854.527	114.47
854.962	119.72
855.397	118.97
855.832	114.07
856.266	99.97
856.701	105.57
857.136	103.72
857.57	121.77
858.005	141.27
858.44	126.32
858.874	124.17
859.309	126.47
859.743	124.57
860.178	115.27
860.612	126.87
861.047	161.82
861.481	210.47
861.915	151.57
862.35	115.87
862.784	101.47
863.218	90.77
863.653	106.62
864.087	126.72
864.521	162.92
864.955	277.32
865.39	458.27
865.824	323.52
866.258	385.37
866.692	544.92
867.126	388.52
867.56	220.37
867.994	150.17
868.428	129.67
868.862	154.92
869.296	139.67
869.73	169.27
870.164	143.32
870.598	133.57
871.031	102.57
871.465	94.57
871.899	79.22
872.333	70.62
872.766	74.37
873.2	75.12
873.634	76.82
874.067	79.22
874.501	79.22
874.935	84.22
875.368	82.32
875.802	74.52
876.235	68.12
876.669	65.12
877.102	60.02
877.535	63.87
877.969	59.77
878.402	61.47
878.836	58.47
879.269	58.77
879.702	58.62
880.135	66.12
880.569	70.17
881.002	59.62
881.435	58.97
881.868	58.57
882.301	56.42
882.734	51.17
883.167	57.12
883.601	53.52
884.034	52.72
884.467	46.87
884.899	54.37
885.332	47.97
885.765	48.37
886.198	45.07
886.631	48.62
887.064	48.17
887.497	46.82
887.929	49.42
888.362	47.07
888.795	46.12
889.228	48.92
889.66	48.37
890.093	46.67
890.526	50.87
890.958	45.22
891.391	47.52
891.823	46.67
892.256	48.42
892.688	45.62
893.121	42.92
893.553	45.62
893.985	43.02
894.418	44.27
894.85	47.62
895.282	47.07
895.715	41.62
896.147	37.72
896.579	40.77
897.011	42.32
897.444	48.17
897.876	34.37
898.308	38.37
898.74	43.57
899.172	41.47
899.604	45.47
900.036	43.42
900.468	40.92
900.9	46.07
901.332	54.22
901.764	53.02
902.196	53.22
902.628	50.07
903.06	71.72
903.491	77.57
903.923	67.37
904.355	65.62
904.787	70.82
905.218	62.12
905.65	57.57
906.082	54.52
906.513	51.12
906.945	53.82
907.376	56.62
907.808	59.17
908.239	67.07
908.671	65.62
909.102	69.92
909.534	101.82
909.965	182.87
910.397	468.72
910.828	1324.37
911.259	806.52
911.691	434.12
912.122	253.92
912.553	127.17
912.984	69.62
913.415	61.17
913.847	56.27
914.278	55.02
914.709	43.12
915.14	47.67
915.571	48.67
916.002	48.17
916.433	39.02
916.864	41.37
917.295	45.57
917.726	56.42
918.157	66.57
918.587	63.97
919.018	60.27
919.449	60.52
919.88	66.17
920.311	99.72
920.741	279.22
921.172	489.12
921.603	239.97
922.033	160.52
922.464	100.37
922.895	70.07
923.325	50.52
923.756	49.37
924.186	70.67
924.617	112.02
925.047	165.62
925.478	153.42
925.908	108.62
926.338	80.97
926.769	55.32
927.199	50.62
927.629	45.42
928.06	43.17
928.49	42.32
928.92	42.37
929.35	37.02
929.78	25.62
930.21	26.82
930.641	23.27
931.071	21.97
931.501	21.67
931.931	21.37
932.361	25.47
932.791	31.02
933.221	26.77
933.651	39.62
934.08	66.72
934.51	41.47
934.94	33.42
935.37	23.87
935.8	18.92
936.229	20.37
936.659	17.02
937.089	26.72
937.519	44.97
937.948	61.32
938.378	39.32
938.807	26.57
939.237	23.87
939.666	18.82
940.096	15.62
940.525	9.67
940.955	17.97
941.384	11.97
941.814	10.22
942.243	12.67
942.672	10.52
943.102	11.87
943.531	6.97
943.96	10.22
944.39	10.32
944.819	15.47
945.248	9.37
945.677	13.22
946.106	11.02
946.535	10.17
946.964	10.27
947.393	11.27
947.822	9.62
948.251	18.42
948.68	12.77
949.109	9.07
949.538	9.12
949.967	10.57
950.396	12.67
950.825	12.12
951.254	11.52
951.682	5.22
952.111	4.92
952.54	5.12
952.969	8.22
953.397	3.62
953.826	7.82
954.254	12.52
954.683	7.67
955.112	12.07
955.54	6.97
955.969	9.32
956.397	10.67
956.826	7.97
957.254	10.92
957.682	4.82
958.111	6.27
958.539	12.57
958.967	6.52
959.396	12.47
959.824	8.12
960.252	8.02
960.68	11.02
961.109	14.37
961.537	14.82
961.965	5.42
962.393	5.22
962.821	8.82
963.249	7.77
963.677	15.82
964.105	80.57
964.533	141.22
964.961	70.87
965.389	41.22
965.817	20.52
966.245	13.72
966.672	7.47
967.1	8.97
967.528	8.87
967.956	7.02
968.383	6.27
968.811	3.62
969.239	10.17
969.666	8.22
970.094	6.42
970.522	3.17
970.949	3.37
971.377	2.57
971.804	5.12
972.232	3.37
972.659	4.77
973.087	5.97
973.514	1.67
973.941	4.82
974.369	2.97
974.796	3.22
975.223	1.07
975.651	4.67
976.078	10.07
976.505	12.37
976.932	31.77
977.359	43.47
977.786	23.07
978.214	18.27
978.641	4.67
979.068	3.52
979.495	3.12
979.922	8.22
980.349	10.52
980.776	6.17
981.202	6.67
981.629	4.72
982.056	5.77
982.483	-2.03
982.91	8.97
983.337	2.32
983.763	4.82
984.19	11.27
984.617	3.97
985.043	3.77
985.47	5.07
985.897	6.07
986.323	4.62
986.75	10.77
987.176	3.17
987.603	6.77
988.029	4.27
988.456	8.37
988.882	3.42
989.308	1.77
989.735	5.12
990.161	2.32
990.587	2.07
991.014	7.47
991.44	8.02
991.866	8.12
992.292	8.77
992.719	0.82
993.145	7.72
993.571	3.12
993.997	3.37
994.423	5.67
994.849	-3.58
995.275	6.12
995.701	2.72
996.127	-5.03
996.553	4.02
996.979	2.92
997.405	7.17
997.83	-0.98
998.256	2.82
998.682	3.27
999.108	3.12
999.534	-3.38
999.959	1.27
1000.385	7.82
1000.811	-0.03
1001.236	-2.28
1001.662	-0.48
1002.087	6.92
1002.513	-0.68
1002.938	3.57
1003.364	5.72
1003.789	5.42
1004.215	1.37
1004.64	3.67
1005.066	2.27
1005.491	7.92
1005.916	6.72
1006.342	3.82
1006.767	7.42
1007.192	5.77
1007.617	3.82
1008.042	5.22
1008.468	1.27
1008.893	4.27
1009.318	9.42
1009.743	10.92
1010.168	22.17
1010.593	16.57
1011.018	11.42
1011.443	9.57
1011.868	8.62
1012.293	6.72
1012.718	5.82
1013.143	5.22
1013.567	3.62
1013.992	3.32
1014.417	3.37
1014.842	-1.13
1015.267	2.27
1015.691	4.97
1016.116	1.57
1016.541	2.12
1016.965	1.97
1017.39	2.17
1017.814	-0.68
1018.239	-0.38
1018.663	-5.33
1019.088	-2.93
1019.512	4.87
1019.937	-2.23
1020.361	3.67
1020.785	-1.23
1021.21	-1.88
1021.634	2.37
1022.058	1.02
1022.483	-1.83
1022.907	1.12
1023.331	1.32
1023.755	-3.18
1024.179	-3.33
1024.604	3.62
1025.028	2.67
1025.452	3.02
1025.876	5.67
1026.3	2.32
1026.724	0.57
1027.148	4.02
1027.572	-4.68
1027.996	6.17
1028.42	-0.08
1028.843	2.32
1029.267	-1.98
1029.691	-0.93
1030.115	-1.23
1030.539	2.02
1030.962	-1.03
1031.386	0.12
1031.81	2.47
1032.233	-2.03
1032.657	-3.58
1033.08	-3.58
1033.504	-2.08
1033.927	-1.93
1034.351	-0.58
1034.774	-1.73
1035.198	-0.98
1035.621	2.52
1036.045	1.37
1036.468	6.62
1036.891	3.92
1037.315	7.52
1037.738	1.32
1038.161	-1.83
1038.584	-1.68
1039.008	-3.13
1039.431	-0.38
1039.854	-6.98
1040.277	1.02
1040.7	-1.13
1041.123	0.52
1041.546	0.47
1041.969	2.47
1042.392	3.92
1042.815	-6.83
1043.238	-3.33
1043.661	1.27
1044.084	0.27
1044.507	0.82
1044.93	0.12
1045.352	2.07
1045.775	0.42
1046.198	2.67
1046.621	4.72
1047.043	-2.93
1047.466	3.57
1047.889	1.87
1048.311	6.97
1048.734	-0.88
1049.156	1.72
1049.579	-1.78
1050.001	-1.68
1050.424	-1.08
1050.846	-7.43
1051.269	-0.88
1051.691	2.42
1052.113	0.77
1052.536	-3.83
1052.958	-0.73
1053.38	5.47
1053.802	1.32
1054.225	-3.98
1054.647	0.57
1055.069	-0.68
1055.491	1.57
1055.913	-4.73
1056.335	-4.78
1056.757	-4.08
1057.179	-4.13
1057.601	0.62
1058.023	1.07
1058.445	-2.78
1058.867	2.47
1059.289	0.27
1059.711	-4.68
1060.133	3.07
1060.555	-1.03
1060.976	3.87
1061.398	0.92
1061.82	1.62
1062.241	-4.08
1062.663	-4.58
1063.085	-7.08
1063.506	-4.98
1063.928	-2.33
1064.35	-2.88
1064.771	-1.43
1065.193	-3.03
1065.614	-2.13
1066.035	3.77
1066.457	0.42
1066.878	-1.63
1067.3	0.12
1067.721	0.67
1068.142	6.22
1068.564	-2.88
1068.985	-0.68
1069.406	-2.18
1069.827	0.92
1070.248	-2.18
1070.67	-4.43
1071.091	-2.78
1071.512	-4.13
1071.933	-0.98
1072.354	-7.33
1072.775	-0.78
1073.196	-0.68
1073.617	-6.78
1074.038	-3.18
1074.459	-4.43
1074.88	-1.63
1075.3	-0.68
1075.721	-1.33
1076.142	-5.18
1076.563	-4.08
1076.983	3.47
1077.404	-7.28
1077.825	3.42
1078.246	-3.73
1078.666	-6.68
1079.087	-3.83
1079.507	-0.83
1079.928	-5.08
1080.348	-1.73
1080.769	2.02
1081.189	-3.13
1081.61	-6.43
1082.03	0.62
1082.451	-7.53
1082.871	-8.83
1083.291	-1.83
1083.711	-1.48
1084.132	-5.48
1084.552	-6.13
1084.972	-6.08
1085.392	-4.28
1085.813	2.22
1086.233	-3.33
1086.653	2.12
1087.073	-2.08
1087.493	0.82
1087.913	-5.68
1088.333	-5.33
1088.753	1.17
1089.173	2.17
1089.593	-1.23
1090.013	0.02
1090.433	-3.28
1090.852	2.22
1091.272	-6.23
1091.692	-3.08
1092.112	-2.73
1092.531	-3.03
1092.951	-1.93
1093.371	-0.93
1093.79	-1.88
1094.21	-4.98
1094.63	-3.08
1095.049	-1.38
1095.469	-8.18
1095.888	1.07
1096.308	0.02
1096.727	-5.33
1097.146	-4.33
1097.566	-4.33
1097.985	-0.53
1098.405	-0.68
1098.824	-0.68
1099.243	-4.78
1099.662	-2.03
1100.082	-0.33
1100.501	-4.93
1100.92	2.17
1101.339	-3.03
1101.758	2.47
