Data from MSPlasma+Separation6_Subt14_10-15-07-987.txt Node
Date: Fri Jul 21 10:15:07 EDT 2017
User: Ender
Spectrometer: HR+D1039
Trigger mode: 0
Integration Time (sec): 6.430000E-3
Scans to average: 20
Electric dark correction enabled: true
Nonlinearity correction enabled: false
Boxcar width: 0
XAxis mode: Wavelengths
Number of Pixels in Spectrum: 2048
>>>>>Begin Spectral Data<<<<<
187.836	-5.32
188.309	-5.32
188.782	-5.32
189.255	1.18
189.728	2.78
190.201	-2.42
190.674	-1.67
191.147	0.43
191.619	0.23
192.092	-0.22
192.565	-1.77
193.038	4.08
193.511	3.98
193.984	-2.17
194.456	1.68
194.929	-1.72
195.402	-0.52
195.874	1.48
196.347	4.93
196.82	-0.47
197.292	-1.57
197.765	0.33
198.237	-1.07
198.71	-4.77
199.182	2.98
199.655	3.03
200.127	1.08
200.6	2.58
201.072	-0.07
201.544	-3.22
202.017	3.88
202.489	0.03
202.961	-2.22
203.433	-4.47
203.906	0.53
204.378	3.73
204.85	5.68
205.322	4.13
205.794	7.73
206.266	3.33
206.739	3.83
207.211	1.73
207.683	-0.87
208.155	2.88
208.627	2.63
209.099	7.23
209.57	5.78
210.042	7.53
210.514	-0.62
210.986	14.73
211.458	22.28
211.93	12.78
212.402	3.18
212.873	-3.47
213.345	-1.87
213.817	6.28
214.288	2.48
214.76	1.88
215.232	3.03
215.703	6.93
216.175	7.48
216.646	5.28
217.118	1.38
217.589	0.63
218.061	4.58
218.532	-3.22
219.004	10.63
219.475	15.18
219.946	25.18
220.418	32.73
220.889	22.53
221.36	12.68
221.832	9.08
222.303	5.68
222.774	1.68
223.245	3.93
223.717	0.33
224.188	7.43
224.659	5.93
225.13	2.13
225.601	6.38
226.072	8.08
226.543	6.98
227.014	4.58
227.485	10.68
227.956	6.23
228.427	16.83
228.898	10.48
229.369	13.48
229.839	11.63
230.31	11.13
230.781	14.08
231.252	19.08
231.722	28.43
232.193	33.53
232.664	40.53
233.135	50.18
233.605	52.23
234.076	43.98
234.546	36.43
235.017	45.28
235.487	41.93
235.958	44.28
236.428	64.93
236.899	98.28
237.369	110.68
237.84	80.33
238.31	104.23
238.78	99.08
239.251	100.83
239.721	103.38
240.191	82.98
240.662	47.38
241.132	41.38
241.602	50.48
242.072	66.73
242.542	81.08
243.013	58.03
243.483	48.98
243.953	39.58
244.423	39.08
244.893	49.38
245.363	57.73
245.833	53.93
246.303	55.28
246.773	73.03
247.243	74.13
247.712	88.23
248.182	104.78
248.652	104.73
249.122	156.38
249.592	289.58
250.061	439.53
250.531	704.33
251.001	533.73
251.471	446.18
251.94	334.98
252.41	183.33
252.879	129.88
253.349	105.03
253.818	79.43
254.288	70.38
254.757	67.13
255.227	94.63
255.696	75.88
256.166	68.48
256.635	70.53
257.105	96.83
257.574	123.48
258.043	125.13
258.513	226.83
258.982	279.28
259.451	195.03
259.92	195.78
260.389	182.48
260.859	128.23
261.328	152.73
261.797	229.08
262.266	196.38
262.735	97.78
263.204	59.33
263.673	55.38
264.142	46.68
264.611	55.63
265.08	60.68
265.549	61.38
266.018	57.43
266.487	52.98
266.955	52.33
267.424	62.83
267.893	63.28
268.362	63.38
268.83	61.68
269.299	64.58
269.768	70.78
270.236	83.83
270.705	91.93
271.174	93.88
271.642	95.23
272.111	110.03
272.579	177.73
273.048	275.63
273.516	350.13
273.985	348.73
274.453	266.73
274.922	165.58
275.39	107.38
275.858	99.63
276.327	86.43
276.795	84.93
277.263	93.03
277.731	128.93
278.2	247.88
278.668	320.08
279.136	248.63
279.604	160.88
280.072	101.98
280.54	90.33
281.008	89.58
281.477	88.63
281.945	90.13
282.413	97.13
282.881	101.43
283.348	99.98
283.816	101.63
284.284	104.98
284.752	104.68
285.22	106.08
285.688	112.58
286.156	187.18
286.623	491.13
287.091	958.73
287.559	504.48
288.026	199.53
288.494	131.98
288.962	109.18
289.429	104.93
289.897	101.73
290.364	91.98
290.832	96.98
291.3	102.68
291.767	102.93
292.234	106.43
292.702	109.83
293.169	116.38
293.637	119.53
294.104	120.88
294.571	114.78
295.039	114.18
295.506	108.78
295.973	113.53
296.44	109.63
296.908	122.33
297.375	139.18
297.842	140.08
298.309	120.83
298.776	117.98
299.243	121.98
299.71	114.18
300.177	119.98
300.644	136.18
301.111	147.23
301.578	134.93
302.045	126.83
302.512	119.53
302.979	126.23
303.446	135.88
303.913	141.63
304.379	142.03
304.846	159.53
305.313	181.03
305.78	203.13
306.246	252.23
306.713	258.18
307.18	233.53
307.646	254.53
308.113	222.18
308.579	182.43
309.046	175.63
309.512	180.38
309.979	165.78
310.445	156.38
310.912	160.38
311.378	163.38
311.845	158.13
312.311	155.58
312.777	153.83
313.244	162.98
313.71	171.43
314.176	188.43
314.642	211.63
315.109	245.88
315.575	231.73
316.041	212.68
316.507	203.13
316.973	219.93
317.439	215.28
317.905	231.28
318.371	229.08
318.837	223.68
319.303	232.58
319.769	213.28
320.235	235.38
320.701	272.38
321.167	287.33
321.633	340.58
322.099	471.48
322.564	633.38
323.03	497.83
323.496	350.98
323.962	328.93
324.427	309.03
324.893	273.88
325.359	266.98
325.824	229.23
326.29	244.58
326.755	246.48
327.221	242.53
327.686	256.53
328.152	239.23
328.617	227.43
329.083	224.43
329.548	237.88
330.014	247.78
330.479	270.03
330.944	312.23
331.41	351.43
331.875	341.53
332.34	352.53
332.805	397.48
333.271	511.18
333.736	670.48
334.201	603.03
334.666	451.63
335.131	514.93
335.596	408.58
336.061	434.63
336.526	437.63
336.991	387.73
337.456	413.78
337.921	333.88
338.386	270.63
338.851	254.58
339.316	240.68
339.781	234.13
340.246	234.88
340.711	236.38
341.175	238.68
341.64	246.43
342.105	251.98
342.569	262.38
343.034	272.83
343.499	290.13
343.963	277.13
344.428	274.63
344.893	285.53
345.357	288.13
345.822	279.43
346.286	290.28
346.751	303.83
347.215	298.23
347.679	301.73
348.144	331.13
348.608	322.58
349.073	335.13
349.537	366.93
350.001	362.93
350.465	336.08
350.93	327.58
351.394	331.13
351.858	329.33
352.322	347.58
352.786	342.18
353.25	339.13
353.715	341.48
354.179	360.28
354.643	379.78
355.107	384.53
355.571	403.78
356.035	408.78
356.498	398.08
356.962	424.18
357.426	409.53
357.89	383.73
358.354	358.63
358.818	359.28
359.281	364.13
359.745	383.93
360.209	373.18
360.673	378.83
361.136	384.78
361.6	379.88
362.064	401.73
362.527	407.13
362.991	401.53
363.454	406.73
363.918	416.23
364.381	410.58
364.845	402.58
365.308	398.23
365.772	408.43
366.235	405.23
366.698	425.93
367.162	505.43
367.625	552.53
368.088	458.73
368.552	421.08
369.015	429.48
369.478	450.63
369.941	464.08
370.404	466.43
370.867	495.38
371.331	501.58
371.794	511.33
372.257	561.78
372.72	591.13
373.183	566.48
373.646	566.43
374.109	572.48
374.572	656.58
375.035	769.68
375.497	591.73
375.96	487.63
376.423	463.13
376.886	459.33
377.349	473.43
377.811	479.58
378.274	483.93
378.737	490.18
379.199	509.88
379.662	522.73
380.125	549.48
380.587	599.58
381.05	636.68
381.512	632.33
381.975	618.83
382.437	613.88
382.9	611.58
383.362	606.18
383.825	654.13
384.287	805.53
384.75	896.98
385.212	799.48
385.674	670.43
386.136	608.63
386.599	604.93
387.061	630.98
387.523	651.93
387.985	660.93
388.447	677.93
388.91	749.88
389.372	897.83
389.834	850.63
390.296	716.13
390.758	728.28
391.22	750.58
391.682	915.18
392.144	1395.43
392.606	1316.08
393.068	789.63
393.529	719.03
393.991	714.48
394.453	686.68
394.915	722.73
395.377	872.73
395.838	1062.93
396.3	759.33
396.762	602.48
397.224	575.78
397.685	567.78
398.147	576.48
398.608	584.78
399.07	592.73
399.531	584.73
399.993	588.38
400.454	599.33
400.916	595.43
401.377	618.73
401.839	614.73
402.3	613.38
402.762	646.68
403.223	707.83
403.684	719.88
404.145	662.88
404.607	648.23
405.068	644.63
405.529	664.18
405.99	673.43
406.451	686.18
406.913	658.23
407.374	673.58
407.835	681.33
408.296	704.33
408.757	699.93
409.218	727.58
409.679	736.93
410.14	752.13
410.601	769.93
411.062	806.63
411.522	918.63
411.983	1004.68
412.444	879.38
412.905	777.03
413.366	775.83
413.826	807.33
414.287	897.23
414.748	1075.63
415.208	1088.13
415.669	911.38
416.13	834.93
416.59	809.48
417.051	845.63
417.511	881.83
417.972	957.78
418.432	1024.08
418.893	1136.88
419.353	1079.58
419.814	825.43
420.274	744.68
420.734	743.88
421.195	784.33
421.655	814.78
422.115	792.53
422.576	767.73
423.036	771.13
423.496	803.93
423.956	837.93
424.416	896.48
424.876	1010.83
425.336	1011.23
425.797	1000.58
426.257	1008.68
426.717	939.23
427.177	876.38
427.637	895.83
428.097	948.18
428.556	985.28
429.016	1070.58
429.476	1060.33
429.936	1022.73
430.396	995.38
430.856	1015.38
431.315	1039.53
431.775	1118.73
432.235	1187.03
432.694	1196.83
433.154	1128.38
433.614	1104.38
434.073	1055.43
434.533	959.98
434.993	933.03
435.452	937.58
435.912	925.23
436.371	923.48
436.83	923.98
437.29	922.93
437.749	886.18
438.209	878.28
438.668	892.83
439.127	900.08
439.587	877.63
440.046	842.23
440.505	862.73
440.964	866.68
441.424	889.38
441.883	911.88
442.342	856.23
442.801	824.33
443.26	845.53
443.719	842.33
444.178	839.93
444.637	846.93
445.096	844.83
445.555	862.68
446.014	856.83
446.473	833.68
446.932	836.63
447.391	847.68
447.849	864.23
448.308	860.03
448.767	875.13
449.226	901.13
449.685	905.18
450.143	937.53
450.602	939.98
451.061	899.78
451.519	910.03
451.978	936.13
452.436	957.13
452.895	928.78
453.353	900.33
453.812	908.68
454.27	893.43
454.729	872.53
455.187	879.93
455.646	884.13
456.104	889.18
456.562	888.23
457.021	879.43
457.479	851.28
457.937	873.53
458.395	899.03
458.854	888.38
459.312	869.48
459.77	885.98
460.228	894.43
460.686	904.03
461.144	904.83
461.602	896.03
462.06	904.03
462.518	920.88
462.976	921.58
463.434	933.33
463.892	933.88
464.35	959.33
464.808	973.33
465.266	977.08
465.724	988.98
466.181	993.93
466.639	985.38
467.097	1023.03
467.555	1064.98
468.012	1053.93
468.47	1069.73
468.928	1099.08
469.385	1128.63
469.843	1138.23
470.3	1133.93
470.758	1168.23
471.215	1184.93
471.673	1206.43
472.13	1239.63
472.588	1262.83
473.045	1267.13
473.503	1295.08
473.96	1342.43
474.417	1365.78
474.875	1425.28
475.332	1479.28
475.789	1497.73
476.246	1526.03
476.704	1595.83
477.161	1642.53
477.618	1682.68
478.075	1775.93
478.532	1916.18
478.989	2056.83
479.446	2261.18
479.903	2381.03
480.36	2590.28
480.817	2762.28
481.274	2940.98
481.731	3228.38
482.188	3455.63
482.645	3722.48
483.102	3943.28
483.558	4230.43
484.015	4440.33
484.472	4434.53
484.929	4322.48
485.385	4119.43
485.842	4016.38
486.299	3827.43
486.755	3478.38
487.212	3144.38
487.668	2828.13
488.125	2634.18
488.582	2442.93
489.038	2340.78
489.494	2270.38
489.951	2207.53
490.407	2152.23
490.864	2130.88
491.32	2071.28
491.776	2062.53
492.233	2058.23
492.689	2023.58
493.145	1993.28
493.602	1987.98
494.058	2017.08
494.514	2051.28
494.97	2068.93
495.426	2078.38
495.882	2084.53
496.338	2091.23
496.794	2160.48
497.251	2179.53
497.707	2182.43
498.163	2190.58
498.618	2179.78
499.074	2200.03
499.53	2248.18
499.986	2276.53
500.442	2303.38
500.898	2300.33
501.354	2335.63
501.809	2351.58
502.265	2373.68
502.721	2479.48
503.177	2546.13
503.632	2436.03
504.088	2446.33
504.543	2652.03
504.999	2496.33
505.455	2243.93
505.91	2138.33
506.366	2115.63
506.821	2108.43
507.277	2106.78
507.732	2103.23
508.187	2096.78
508.643	2121.68
509.098	2132.28
509.553	2157.38
510.009	2185.33
510.464	2219.63
510.919	2227.13
511.375	2257.38
511.83	2282.23
512.285	2333.03
512.74	2372.43
513.195	2414.13
513.65	2460.83
514.105	2482.18
514.56	2500.78
515.015	2554.18
515.47	2583.63
515.925	2561.68
516.38	2551.83
516.835	2539.43
517.29	2541.33
517.745	2567.83
518.2	2515.38
518.655	2443.78
519.109	2401.78
519.564	2372.03
520.019	2368.13
520.474	2336.93
520.928	2318.03
521.383	2318.38
521.838	2313.58
522.292	2276.18
522.747	2253.93
523.201	2247.38
523.656	2226.73
524.11	2210.58
524.565	2207.88
525.019	2220.13
525.474	2225.53
525.928	2226.63
526.382	2197.28
526.837	2181.13
527.291	2190.53
527.745	2179.88
528.2	2180.73
528.654	2161.93
529.108	2152.78
529.562	2160.23
530.016	2164.58
530.47	2175.33
530.925	2167.43
531.379	2171.43
531.833	2195.63
532.287	2187.53
532.741	2175.48
533.195	2179.33
533.649	2187.13
534.103	2177.73
534.556	2174.23
535.01	2183.63
535.464	2177.18
535.918	2184.18
536.372	2187.73
536.826	2177.98
537.279	2172.48
537.733	2169.18
538.187	2183.78
538.64	2172.38
539.094	2193.98
539.548	2234.28
540.001	2222.63
540.455	2234.03
540.908	2241.23
541.362	2269.73
541.815	2286.63
542.269	2321.98
542.722	2322.48
543.175	2348.13
543.629	2371.28
544.082	2388.08
544.536	2413.78
544.989	2412.43
545.442	2424.58
545.895	2419.58
546.349	2421.13
546.802	2425.83
547.255	2434.53
547.708	2431.68
548.161	2461.08
548.614	2464.68
549.067	2474.88
549.52	2463.78
549.973	2436.08
550.426	2427.13
550.879	2403.13
551.332	2395.08
551.785	2424.33
552.238	2446.98
552.691	2448.68
553.144	2468.43
553.596	2508.38
554.049	2545.73
554.502	2611.38
554.955	2636.43
555.407	2672.93
555.86	2650.13
556.313	2625.78
556.765	2586.18
557.218	2564.48
557.67	2575.28
558.123	2532.83
558.576	2516.08
559.028	2509.73
559.48	2538.98
559.933	2526.53
560.385	2445.13
560.838	2370.68
561.29	2291.18
561.742	2291.93
562.195	2239.33
562.647	2239.48
563.099	2226.23
563.551	2210.58
564.004	2239.53
564.456	2211.18
564.908	2166.53
565.36	2124.98
565.812	2080.38
566.264	2058.48
566.716	2041.68
567.168	2006.98
567.62	2007.58
568.072	2000.98
568.524	1971.28
568.976	1958.68
569.428	1942.38
569.88	1943.73
570.332	1956.68
570.784	1943.23
571.235	1936.73
571.687	1955.13
572.139	1958.18
572.59	1979.53
573.042	1984.58
573.494	1980.78
573.945	1957.03
574.397	1924.48
574.849	1905.28
575.3	1919.18
575.752	1893.88
576.203	1876.18
576.655	1895.88
577.106	1865.93
577.557	1853.93
578.009	1836.48
578.46	1841.43
578.912	1835.98
579.363	1849.93
579.814	1834.88
580.265	1831.98
580.717	1836.28
581.168	1831.38
581.619	1842.13
582.07	1864.48
582.521	1864.83
582.972	1853.93
583.423	1873.48
583.875	1915.13
584.326	1996.78
584.777	2158.13
585.227	2337.38
585.678	2494.43
586.129	2536.28
586.58	2588.13
587.031	2622.73
587.482	2771.43
587.933	3220.03
588.384	2982.23
588.834	2487.63
589.285	2142.93
589.736	2091.73
590.186	2097.18
590.637	2083.28
591.088	2031.68
591.538	2007.53
591.989	1994.03
592.439	1963.73
592.89	1961.03
593.34	1946.73
593.791	1977.18
594.241	1980.58
594.692	2001.53
595.142	1983.33
595.593	1951.23
596.043	1956.08
596.493	1986.93
596.943	2022.33
597.394	2014.63
597.844	1981.88
598.294	2014.93
598.744	2084.78
599.195	2179.48
599.645	2311.38
600.095	2424.18
600.545	2541.88
600.995	2661.13
601.445	2745.88
601.895	2886.08
602.345	2963.48
602.795	2930.98
603.245	2810.73
603.695	2618.03
604.145	2487.78
604.594	2369.28
605.044	2246.48
605.494	2101.98
605.944	1991.38
606.393	1954.83
606.843	1925.93
607.293	1930.33
607.743	1921.03
608.192	1939.98
608.642	1934.48
609.091	1944.93
609.541	1945.43
609.99	1938.53
610.44	1904.73
610.889	1885.73
611.339	1859.73
611.788	1844.78
612.238	1855.93
612.687	1876.58
613.136	1897.43
613.586	1932.93
614.035	1921.28
614.484	1947.88
614.933	1953.83
615.383	1920.48
615.832	1857.68
616.281	1808.23
616.73	1767.43
617.179	1722.18
617.628	1683.08
618.077	1657.98
618.526	1636.43
618.975	1618.18
619.424	1594.43
619.873	1602.58
620.322	1585.53
620.771	1590.53
621.22	1557.53
621.669	1529.58
622.118	1521.78
622.567	1505.03
623.015	1475.18
623.464	1474.63
623.913	1451.13
624.361	1457.18
624.81	1456.83
625.259	1444.33
625.707	1432.58
626.156	1435.83
626.604	1449.48
627.053	1446.93
627.501	1455.08
627.95	1466.88
628.398	1492.33
628.847	1465.48
629.295	1468.03
629.744	1482.63
630.192	1520.13
630.64	1612.18
631.089	1756.18
631.537	1854.58
631.985	1836.43
632.433	1910.98
632.881	1902.33
633.33	2263.13
633.778	2470.98
634.226	1780.58
634.674	1657.48
635.122	1643.98
635.57	1661.48
636.018	1914.58
636.466	1588.53
636.914	1416.08
637.362	1423.68
637.81	1435.13
638.258	1477.23
638.705	1490.98
639.153	1539.88
639.601	1550.63
640.049	1574.93
640.497	1627.78
640.944	1660.48
641.392	1585.23
641.84	1492.48
642.287	1426.33
642.735	1413.73
643.182	1391.78
643.63	1397.43
644.078	1394.93
644.525	1418.73
644.973	1450.63
645.42	1473.18
645.867	1494.58
646.315	1519.13
646.762	1567.28
647.21	1615.33
647.657	1687.13
648.104	1762.53
648.551	1803.03
648.999	1949.68
649.446	2132.98
649.893	2392.93
650.34	2802.18
650.787	3453.78
651.234	4465.08
651.682	6214.73
652.129	8843.93
652.576	12604.18
653.023	15535.93
653.47	15539.13
653.917	15539.18
654.363	15539.08
654.81	15536.08
655.257	15536.73
655.704	15515.18
656.151	9635.48
656.598	6289.83
657.044	4478.13
657.491	3493.18
657.938	2850.68
658.385	2422.48
658.831	2151.63
659.278	1926.33
659.724	1775.78
660.171	1654.33
660.618	1534.03
661.064	1448.38
661.511	1402.73
661.957	1369.58
662.404	1317.98
662.85	1316.83
663.296	1300.08
663.743	1266.58
664.189	1256.93
664.635	1247.18
665.082	1221.53
665.528	1220.98
665.974	1187.28
666.42	1173.08
666.867	1185.83
667.313	1191.18
667.759	1231.98
668.205	1224.53
668.651	1243.13
669.097	1211.93
669.543	1299.03
669.989	1243.88
670.435	1111.88
670.881	1107.38
671.327	1148.78
671.773	1222.78
672.219	1316.38
672.665	1402.43
673.11	1446.88
673.556	1466.33
674.002	1497.78
674.448	1517.38
674.893	1288.63
675.339	1127.73
675.785	1043.23
676.23	983.63
676.676	942.33
677.122	919.68
677.567	898.18
678.013	869.18
678.458	870.93
678.904	868.58
679.349	863.18
679.794	859.98
680.24	858.38
680.685	843.08
681.131	850.23
681.576	850.73
682.021	853.23
682.466	862.83
682.912	874.33
683.357	913.43
683.802	993.13
684.247	1093.73
684.692	1156.68
685.137	1205.23
685.583	1223.23
686.028	1289.03
686.473	1222.48
686.918	1055.23
687.363	964.83
687.807	916.33
688.252	872.73
688.697	845.38
689.142	814.43
689.587	822.13
690.032	841.68
690.477	876.03
690.921	917.48
691.366	960.33
691.811	1010.33
692.255	1086.48
692.7	1316.23
693.145	1914.18
693.589	2898.88
694.034	3465.28
694.478	3678.38
694.923	3359.13
695.367	4782.03
695.812	2895.23
696.256	1229.88
696.701	903.18
697.145	832.28
697.59	806.43
698.034	792.08
698.478	803.83
698.922	797.58
699.367	820.03
699.811	860.48
700.255	930.58
700.699	1019.23
701.143	1105.68
701.588	1164.68
702.032	1207.18
702.476	1246.43
702.92	1328.98
703.364	1745.98
703.808	2669.68
704.252	3325.48
704.696	3476.08
705.14	3288.93
705.584	4533.58
706.027	2505.83
706.471	1258.63
706.915	941.98
707.359	837.83
707.803	790.48
708.246	761.03
708.69	757.08
709.134	742.93
709.577	739.08
710.021	750.08
710.465	755.83
710.908	743.73
711.352	782.23
711.795	866.48
712.239	929.83
712.682	949.48
713.126	938.38
713.569	1050.88
714.012	866.73
714.456	758.63
714.899	711.23
715.342	670.33
715.786	644.58
716.229	620.53
716.672	606.58
717.115	611.23
717.558	628.23
718.002	642.73
718.445	663.43
718.888	698.93
719.331	712.43
719.774	730.18
720.217	706.93
720.66	676.23
721.103	637.08
721.546	597.98
721.989	586.23
722.432	580.03
722.874	580.98
723.317	584.13
723.76	636.78
724.203	786.53
724.645	1041.68
725.088	1218.43
725.531	1196.48
725.974	1314.88
726.416	1182.83
726.859	729.53
727.301	602.43
727.744	584.83
728.187	581.13
728.629	594.63
729.071	616.38
729.514	645.03
729.956	662.78
730.399	668.18
730.841	677.88
731.283	663.58
731.726	646.43
732.168	647.68
732.61	684.83
733.053	738.83
733.495	820.03
733.937	906.43
734.379	1080.18
734.821	1371.28
735.263	2199.68
735.705	3961.53
736.148	5773.58
736.59	5728.78
737.032	6222.78
737.474	5111.98
737.916	1954.38
738.357	1027.63
738.799	794.73
739.241	742.73
739.683	738.68
740.125	746.38
740.567	750.23
741.008	792.83
741.45	825.88
741.892	854.03
742.334	853.63
742.775	847.53
743.217	806.58
743.658	693.08
744.1	701.88
744.542	785.48
744.983	815.78
745.425	849.68
745.866	846.63
746.307	744.63
746.749	809.93
747.19	1184.83
747.632	2337.98
748.073	4318.98
748.514	5925.63
748.956	7851.43
749.397	9151.38
749.838	6305.43
750.279	6019.73
750.72	3088.58
751.162	1305.63
751.603	752.53
752.044	599.33
752.485	534.03
752.926	503.68
753.367	485.63
753.808	469.83
754.249	456.68
754.69	458.08
755.131	449.33
755.572	447.38
756.013	453.98
756.453	457.98
756.894	460.23
757.335	457.33
757.776	460.78
758.216	487.18
758.657	510.83
759.098	570.33
759.538	686.53
759.979	995.98
760.42	2040.73
760.86	5233.18
761.301	10757.63
761.741	12448.68
762.182	14205.93
762.622	9233.23
763.063	3329.53
763.503	1446.13
763.943	1060.43
764.384	1107.83
764.824	1040.33
765.264	1038.13
765.705	746.88
766.145	554.13
766.585	499.58
767.025	523.18
767.465	666.93
767.906	792.13
768.346	834.83
768.786	879.58
769.226	939.08
769.666	1659.68
770.106	3631.48
770.546	5092.73
770.986	5697.78
771.426	4291.08
771.866	1797.53
772.306	814.48
772.745	510.13
773.185	444.83
773.625	445.08
774.065	510.33
774.505	825.68
774.944	1627.83
775.384	2422.68
775.824	2753.33
776.263	2245.53
776.703	1111.43
777.142	577.13
777.582	398.53
778.021	361.83
778.461	341.38
778.9	324.13
779.34	310.73
779.779	299.33
780.219	290.23
780.658	284.73
781.097	282.33
781.537	274.43
781.976	271.73
782.415	265.93
782.855	273.53
783.294	266.28
783.733	259.88
784.172	268.38
784.611	265.68
785.05	276.93
785.489	280.28
785.928	283.53
786.367	296.23
786.806	313.13
787.245	338.03
787.684	343.43
788.123	339.13
788.562	327.13
789.001	313.68
789.44	305.23
789.879	300.43
790.317	308.83
790.756	330.58
791.195	377.53
791.634	513.58
792.072	939.93
792.511	2303.93
792.95	4218.38
793.388	5043.23
793.827	3270.98
794.265	1486.93
794.704	717.18
795.142	435.93
795.581	367.23
796.019	329.48
796.458	323.33
796.896	331.53
797.334	389.48
797.773	520.03
798.211	1004.78
798.649	2103.13
799.087	3507.58
799.526	4935.28
799.964	5063.33
800.402	3453.88
800.84	1561.98
801.278	766.98
801.716	461.13
802.154	380.23
802.592	355.83
803.03	356.78
803.468	362.13
803.906	360.28
804.344	358.78
804.782	350.23
805.22	350.13
805.658	368.68
806.096	388.38
806.533	436.93
806.971	563.33
807.409	815.48
807.847	1647.03
808.284	4210.38
808.722	7285.08
809.16	10231.58
809.597	13756.18
810.035	15538.53
810.472	10969.48
810.91	4677.28
811.347	2085.13
811.785	978.43
812.222	609.38
812.66	474.38
813.097	400.73
813.535	355.53
813.972	317.83
814.409	297.18
814.846	281.18
815.284	261.88
815.721	269.98
816.158	285.88
816.595	370.43
817.032	456.28
817.47	425.08
817.907	327.68
818.344	286.43
818.781	277.98
819.218	323.53
819.655	467.13
820.092	594.13
820.529	552.58
820.966	449.63
821.403	334.53
821.839	293.53
822.276	311.83
822.713	357.58
823.15	345.93
823.587	373.98
824.023	685.18
824.46	1718.13
824.897	2971.43
825.333	2268.43
825.77	1050.08
826.206	549.28
826.643	321.63
827.08	244.18
827.516	210.93
827.953	198.93
828.389	186.58
828.825	179.38
829.262	175.13
829.698	167.83
830.135	160.28
830.571	161.13
831.007	159.88
831.443	162.63
831.88	164.53
832.316	173.58
832.752	165.98
833.188	170.58
833.624	171.88
834.06	176.53
834.497	175.68
834.933	181.83
835.369	192.33
835.805	201.88
836.241	212.13
836.677	232.03
837.112	276.48
837.548	329.43
837.984	501.03
838.42	1080.78
838.856	3012.68
839.292	5914.18
839.727	4318.28
840.163	2940.13
840.599	4484.58
841.034	6822.83
841.47	3369.08
841.906	1649.63
842.341	924.03
842.777	777.68
843.212	890.28
843.648	530.03
844.083	340.33
844.519	236.83
844.954	194.18
845.39	162.73
845.825	159.33
846.261	152.93
846.696	146.18
847.131	137.98
847.566	141.58
848.002	150.08
848.437	150.78
848.872	166.13
849.307	207.88
849.742	379.53
850.177	986.98
850.613	2088.18
851.048	1471.93
851.483	675.83
851.918	378.88
852.353	220.68
852.788	172.68
853.223	144.73
853.657	125.93
854.092	126.38
854.527	117.63
854.962	120.13
855.397	133.58
855.832	114.93
856.266	106.68
856.701	108.03
857.136	112.83
857.57	127.43
858.005	147.03
858.44	134.53
858.874	131.03
859.309	134.43
859.743	128.83
860.178	119.28
860.612	132.78
861.047	175.58
861.481	224.43
861.915	158.13
862.35	126.28
862.784	101.08
863.218	98.53
863.653	112.98
864.087	126.73
864.521	169.93
864.955	289.63
865.39	475.13
865.824	346.33
866.258	400.53
866.692	588.33
867.126	419.98
867.56	234.03
867.994	157.28
868.428	131.98
868.862	163.98
869.296	150.48
869.73	178.88
870.164	154.63
870.598	140.03
871.031	105.13
871.465	97.33
871.899	80.63
872.333	74.23
872.766	72.33
873.2	76.38
873.634	78.78
874.067	80.18
874.501	82.78
874.935	82.53
875.368	80.18
875.802	75.18
876.235	71.38
876.669	70.03
877.102	62.28
877.535	61.18
877.969	56.18
878.402	65.88
878.836	60.88
879.269	66.23
879.702	62.63
880.135	62.58
880.569	70.98
881.002	60.18
881.435	63.13
881.868	62.28
882.301	56.08
882.734	56.18
883.167	57.73
883.601	52.88
884.034	56.28
884.467	49.18
884.899	55.38
885.332	49.98
885.765	51.73
886.198	49.58
886.631	52.23
887.064	49.83
887.497	44.18
887.929	49.03
888.362	50.28
888.795	50.13
889.228	53.48
889.66	50.33
890.093	48.03
890.526	51.23
890.958	50.43
891.391	51.33
891.823	48.53
892.256	45.93
892.688	50.53
893.121	42.13
893.553	50.58
893.985	44.03
894.418	45.53
894.85	46.03
895.282	47.93
895.715	40.88
896.147	40.48
896.579	38.38
897.011	49.13
897.444	48.03
897.876	39.28
898.308	41.08
898.74	40.78
899.172	50.28
899.604	42.93
900.036	43.88
900.468	37.78
900.9	49.13
901.332	53.18
901.764	53.18
902.196	51.78
902.628	55.68
903.06	76.83
903.491	83.93
903.923	71.28
904.355	71.13
904.787	75.78
905.218	63.53
905.65	59.63
906.082	56.33
906.513	58.13
906.945	54.48
907.376	54.08
907.808	57.13
908.239	64.58
908.671	66.33
909.102	70.43
909.534	103.63
909.965	188.18
910.397	480.08
910.828	1402.28
911.259	838.38
911.691	456.13
912.122	262.83
912.553	133.58
912.984	74.88
913.415	63.38
913.847	61.78
914.278	56.88
914.709	45.73
915.14	42.93
915.571	52.03
916.002	51.48
916.433	46.28
916.864	46.98
917.295	46.93
917.726	53.08
918.157	64.28
918.587	68.88
919.018	61.08
919.449	59.73
919.88	72.58
920.311	107.38
920.741	295.18
921.172	519.08
921.603	253.33
922.033	160.78
922.464	105.08
922.895	68.73
923.325	49.68
923.756	52.93
924.186	63.18
924.617	105.83
925.047	162.68
925.478	153.43
925.908	104.88
926.338	72.88
926.769	55.13
927.199	47.03
927.629	37.93
928.06	45.63
928.49	45.13
928.92	37.68
929.35	36.28
929.78	32.78
930.21	28.18
930.641	22.68
931.071	24.13
931.501	23.23
931.931	20.78
932.361	22.13
932.791	28.48
933.221	30.78
933.651	40.33
934.08	67.53
934.51	42.93
934.94	36.38
935.37	25.83
935.8	22.03
936.229	21.08
936.659	21.73
937.089	33.33
937.519	50.33
937.948	64.78
938.378	39.83
938.807	27.88
939.237	23.98
939.666	18.98
940.096	19.58
940.525	10.28
940.955	15.23
941.384	14.23
941.814	16.18
942.243	9.83
942.672	10.18
943.102	6.23
943.531	12.13
943.96	8.93
944.39	14.63
944.819	12.83
945.248	7.78
945.677	10.68
946.106	13.18
946.535	11.63
946.964	11.83
947.393	10.68
947.822	10.28
948.251	17.43
948.68	11.98
949.109	13.78
949.538	11.03
949.967	12.43
950.396	8.33
950.825	10.13
951.254	10.93
951.682	6.93
952.111	2.88
952.54	5.33
952.969	9.88
953.397	4.33
953.826	3.78
954.254	10.08
954.683	9.83
955.112	9.88
955.54	6.13
955.969	11.08
956.397	11.68
956.826	5.68
957.254	10.68
957.682	9.18
958.111	9.53
958.539	7.98
958.967	7.33
959.396	11.73
959.824	9.18
960.252	9.88
960.68	8.63
961.109	10.03
961.537	13.33
961.965	5.58
962.393	6.98
962.821	10.73
963.249	12.38
963.677	16.13
964.105	81.83
964.533	144.63
964.961	71.78
965.389	38.38
965.817	24.88
966.245	12.83
966.672	9.28
967.1	10.08
967.528	3.63
967.956	8.73
968.383	5.18
968.811	6.48
969.239	6.23
969.666	8.23
970.094	7.18
970.522	0.18
970.949	4.58
971.377	2.03
971.804	4.23
972.232	2.33
972.659	1.93
973.087	5.83
973.514	2.58
973.941	1.78
974.369	2.33
974.796	2.08
975.223	3.53
975.651	6.48
976.078	5.83
976.505	11.48
976.932	35.63
977.359	40.18
977.786	24.13
978.214	17.03
978.641	9.33
979.068	9.03
979.495	3.73
979.922	6.53
980.349	2.73
980.776	1.23
981.202	0.93
981.629	4.63
982.056	2.43
982.483	-2.77
982.91	9.88
983.337	4.03
983.763	5.93
984.19	2.48
984.617	2.58
985.043	6.83
985.47	8.98
985.897	3.33
986.323	7.38
986.75	0.08
987.176	5.18
987.603	3.88
988.029	7.63
988.456	6.58
988.882	2.63
989.308	0.08
989.735	-1.07
990.161	3.18
990.587	5.33
991.014	1.48
991.44	3.88
991.866	5.38
992.292	2.43
992.719	-0.62
993.145	4.98
993.571	5.23
993.997	8.53
994.423	7.48
994.849	-3.87
995.275	2.13
995.701	1.43
996.127	1.83
996.553	0.03
996.979	1.23
997.405	8.73
997.83	5.18
998.256	7.18
998.682	-0.17
999.108	2.18
999.534	-1.27
999.959	-0.27
1000.385	6.13
1000.811	1.58
1001.236	-2.37
1001.662	2.23
1002.087	6.78
1002.513	1.33
1002.938	0.63
1003.364	2.48
1003.789	8.13
1004.215	4.68
1004.64	4.18
1005.066	1.33
1005.491	5.13
1005.916	-0.87
1006.342	7.13
1006.767	3.73
1007.192	5.78
1007.617	2.38
1008.042	0.23
1008.468	2.18
1008.893	3.88
1009.318	8.43
1009.743	14.68
1010.168	24.98
1010.593	21.73
1011.018	12.58
1011.443	8.03
1011.868	6.53
1012.293	7.13
1012.718	-0.12
1013.143	0.68
1013.567	5.43
1013.992	5.78
1014.417	0.58
1014.842	2.58
1015.267	3.03
1015.691	6.53
1016.116	2.78
1016.541	3.08
1016.965	3.48
1017.39	0.08
1017.814	-0.27
1018.239	-1.27
1018.663	-5.07
1019.088	-7.22
1019.512	6.68
1019.937	-1.27
1020.361	-0.17
1020.785	3.68
1021.21	-4.17
1021.634	0.43
1022.058	1.68
1022.483	-5.07
1022.907	-5.27
1023.331	4.58
1023.755	0.33
1024.179	1.33
1024.604	-1.27
1025.028	2.63
1025.452	3.58
1025.876	3.58
1026.3	-0.57
1026.724	-0.77
1027.148	-0.02
1027.572	-0.12
1027.996	0.58
1028.42	3.08
1028.843	-2.02
1029.267	1.03
1029.691	4.63
1030.115	-2.32
1030.539	-2.82
1030.962	-4.07
1031.386	-1.12
1031.81	2.83
1032.233	-5.07
1032.657	-5.87
1033.08	-1.17
1033.504	-0.17
1033.927	-0.32
1034.351	1.48
1034.774	0.78
1035.198	-3.87
1035.621	1.73
1036.045	-4.12
1036.468	2.58
1036.891	1.58
1037.315	4.93
1037.738	-0.02
1038.161	3.83
1038.584	1.38
1039.008	-4.72
1039.431	-1.72
1039.854	-6.62
1040.277	2.68
1040.7	0.03
1041.123	1.33
1041.546	-1.32
1041.969	4.43
1042.392	1.63
1042.815	-9.92
1043.238	-2.47
1043.661	0.08
1044.084	-3.27
1044.507	-0.57
1044.93	-0.27
1045.352	2.33
1045.775	2.78
1046.198	4.08
1046.621	4.98
1047.043	-2.47
1047.466	0.63
1047.889	-3.32
1048.311	5.28
1048.734	3.03
1049.156	0.38
1049.579	-0.87
1050.001	0.48
1050.424	-2.52
1050.846	0.53
1051.269	-6.42
1051.691	-1.62
1052.113	-5.57
1052.536	0.03
1052.958	-6.12
1053.38	2.93
1053.802	-1.42
1054.225	3.13
1054.647	5.93
1055.069	-4.42
1055.491	-4.22
1055.913	0.08
1056.335	-12.17
1056.757	-4.92
1057.179	-3.62
1057.601	-1.77
1058.023	-0.32
1058.445	-7.07
1058.867	1.28
1059.289	-3.17
1059.711	-4.07
1060.133	2.83
1060.555	-3.72
1060.976	2.13
1061.398	-3.42
1061.82	2.03
1062.241	-2.92
1062.663	-2.62
1063.085	-3.82
1063.506	0.08
1063.928	-4.47
1064.35	-1.32
1064.771	-1.87
1065.193	-4.42
1065.614	-2.67
1066.035	4.23
1066.457	4.78
1066.878	2.63
1067.3	1.08
1067.721	6.38
1068.142	5.98
1068.564	2.18
1068.985	1.33
1069.406	-0.92
1069.827	-2.22
1070.248	-7.82
1070.67	-9.17
1071.091	-7.27
1071.512	0.38
1071.933	-1.02
1072.354	-9.32
1072.775	3.78
1073.196	-0.57
1073.617	-5.52
1074.038	-0.27
1074.459	-3.17
1074.88	-6.27
1075.3	1.18
1075.721	-2.32
1076.142	-1.02
1076.563	-4.52
1076.983	0.43
1077.404	-4.92
1077.825	-2.22
1078.246	-7.82
1078.666	-4.52
1079.087	-2.97
1079.507	-5.02
1079.928	-1.27
1080.348	2.23
1080.769	2.03
1081.189	-0.67
1081.61	-5.22
1082.03	0.18
1082.451	0.43
1082.871	-7.77
1083.291	-7.82
1083.711	-1.42
1084.132	-2.22
1084.552	-9.62
1084.972	-5.87
1085.392	-4.02
1085.813	0.08
1086.233	-1.72
1086.653	1.08
1087.073	-4.52
1087.493	-2.42
1087.913	-5.77
1088.333	2.53
1088.753	-5.07
1089.173	-2.47
1089.593	-0.72
1090.013	-5.07
1090.433	-9.62
1090.852	0.38
1091.272	-5.32
1091.692	-5.17
1092.112	-4.72
1092.531	-4.47
1092.951	-0.17
1093.371	-2.37
1093.79	-0.97
1094.21	-3.42
1094.63	-5.37
1095.049	0.28
1095.469	-4.22
1095.888	-4.77
1096.308	-0.87
1096.727	-5.02
1097.146	-4.42
1097.566	-3.22
1097.985	-3.02
1098.405	-0.07
1098.824	-2.17
1099.243	-3.42
1099.662	-2.37
1100.082	-2.37
1100.501	0.88
1100.92	1.53
1101.339	-1.62
1101.758	0.23
