Data from MSPlasma+Separation6_Subt14_10-15-11-073.txt Node
Date: Fri Jul 21 10:15:11 EDT 2017
User: Ender
Spectrometer: HR+D1039
Trigger mode: 0
Integration Time (sec): 6.430000E-3
Scans to average: 20
Electric dark correction enabled: true
Nonlinearity correction enabled: false
Boxcar width: 0
XAxis mode: Wavelengths
Number of Pixels in Spectrum: 2048
>>>>>Begin Spectral Data<<<<<
187.836	1.52
188.309	1.52
188.782	1.52
189.255	2.62
189.728	3.52
190.201	1.17
190.674	0.42
191.147	-1.68
191.619	-3.18
192.092	1.02
192.565	0.12
193.038	2.87
193.511	0.17
193.984	-2.03
194.456	-3.98
194.929	-0.08
195.402	-0.58
195.874	-1.88
196.347	3.82
196.82	1.67
197.292	-2.48
197.765	-1.58
198.237	-1.33
198.71	-4.38
199.182	0.42
199.655	1.77
200.127	2.22
200.6	3.47
201.072	1.42
201.544	0.32
202.017	2.07
202.489	-0.78
202.961	0.67
203.433	-4.58
203.906	1.87
204.378	1.12
204.85	2.62
205.322	1.17
205.794	11.82
206.266	3.87
206.739	3.87
207.211	1.02
207.683	1.07
208.155	5.12
208.627	-1.83
209.099	3.12
209.57	7.52
210.042	6.92
210.514	3.17
210.986	13.87
211.458	23.57
211.93	8.82
212.402	1.82
212.873	-0.33
213.345	-0.48
213.817	2.97
214.288	-0.83
214.76	5.27
215.232	4.32
215.703	5.47
216.175	5.17
216.646	7.27
217.118	5.57
217.589	-1.98
218.061	7.22
218.532	-0.33
219.004	9.92
219.475	16.37
219.946	26.22
220.418	33.22
220.889	26.37
221.36	16.52
221.832	10.27
222.303	6.02
222.774	7.42
223.245	1.92
223.717	6.22
224.188	8.87
224.659	6.97
225.13	4.77
225.601	2.42
226.072	8.02
226.543	12.22
227.014	7.97
227.485	8.17
227.956	8.17
228.427	17.22
228.898	14.97
229.369	10.07
229.839	10.52
230.31	17.27
230.781	14.32
231.252	17.52
231.722	28.22
232.193	36.97
232.664	38.07
233.135	63.17
233.605	63.72
234.076	47.67
234.546	37.97
235.017	46.32
235.487	41.37
235.958	42.72
236.428	62.72
236.899	106.82
237.369	116.27
237.84	85.32
238.31	109.72
238.78	107.37
239.251	113.27
239.721	107.62
240.191	86.32
240.662	49.62
241.132	42.47
241.602	49.67
242.072	75.22
242.542	87.42
243.013	67.67
243.483	50.27
243.953	39.77
244.423	43.42
244.893	55.57
245.363	63.22
245.833	56.87
246.303	65.47
246.773	82.82
247.243	86.57
247.712	95.27
248.182	108.27
248.652	116.27
249.122	180.47
249.592	333.57
250.061	504.57
250.531	794.92
251.001	603.62
251.471	498.32
251.94	385.07
252.41	202.52
252.879	142.92
253.349	107.42
253.818	89.17
254.288	74.57
254.757	76.82
255.227	104.02
255.696	80.92
256.166	71.82
256.635	79.02
257.105	98.52
257.574	131.77
258.043	138.32
258.513	236.32
258.982	300.17
259.451	210.92
259.92	213.72
260.389	200.52
260.859	141.82
261.328	169.72
261.797	252.52
262.266	215.72
262.735	103.67
263.204	63.02
263.673	60.42
264.142	45.52
264.611	53.77
265.08	58.67
265.549	63.32
266.018	54.07
266.487	53.87
266.955	52.67
267.424	68.37
267.893	68.87
268.362	62.52
268.83	57.47
269.299	60.57
269.768	74.22
270.236	89.67
270.705	97.82
271.174	93.67
271.642	99.87
272.111	116.92
272.579	192.02
273.048	297.97
273.516	383.97
273.985	386.67
274.453	291.47
274.922	174.57
275.39	112.02
275.858	99.12
276.327	88.07
276.795	82.92
277.263	98.07
277.731	129.32
278.2	250.12
278.668	324.42
279.136	253.27
279.604	168.17
280.072	101.42
280.54	88.92
281.008	91.57
281.477	93.32
281.945	98.52
282.413	97.52
282.881	101.62
283.348	101.12
283.816	106.47
284.284	114.42
284.752	103.42
285.22	105.67
285.688	120.47
286.156	203.52
286.623	555.42
287.091	1106.17
287.559	559.87
288.026	214.42
288.494	136.02
288.962	106.07
289.429	102.32
289.897	101.27
290.364	93.87
290.832	93.62
291.3	98.72
291.767	99.82
292.234	106.57
292.702	109.57
293.169	113.82
293.637	125.22
294.104	122.77
294.571	117.37
295.039	113.77
295.506	110.77
295.973	117.37
296.44	111.57
296.908	123.17
297.375	147.02
297.842	144.72
298.309	121.92
298.776	117.67
299.243	128.12
299.71	119.17
300.177	117.37
300.644	133.57
301.111	148.27
301.578	135.12
302.045	126.47
302.512	122.82
302.979	128.12
303.446	134.92
303.913	133.17
304.379	146.27
304.846	163.32
305.313	176.67
305.78	213.07
306.246	255.52
306.713	277.07
307.18	237.32
307.646	263.07
308.113	231.02
308.579	181.32
309.046	182.02
309.512	178.92
309.979	164.47
310.445	156.02
310.912	162.32
311.378	157.92
311.845	155.52
312.311	152.22
312.777	144.87
313.244	163.77
313.71	170.52
314.176	184.92
314.642	213.57
315.109	249.52
315.575	233.22
316.041	210.72
316.507	196.42
316.973	219.42
317.439	212.47
317.905	240.37
318.371	234.27
318.837	222.47
319.303	234.12
319.769	217.37
320.235	240.97
320.701	277.47
321.167	300.12
321.633	356.02
322.099	502.62
322.564	685.37
323.03	527.42
323.496	364.57
323.962	347.87
324.427	318.47
324.893	282.87
325.359	269.57
325.824	228.37
326.29	241.72
326.755	252.97
327.221	252.67
327.686	261.37
328.152	230.37
328.617	222.77
329.083	223.02
329.548	236.72
330.014	250.12
330.479	269.37
330.944	314.52
331.41	366.47
331.875	347.17
332.34	363.87
332.805	420.57
333.271	540.32
333.736	716.87
334.201	644.97
334.666	478.37
335.131	543.27
335.596	430.37
336.061	456.72
336.526	456.57
336.991	396.87
337.456	431.77
337.921	341.27
338.386	279.42
338.851	251.07
339.316	238.27
339.781	232.47
340.246	229.57
340.711	227.47
341.175	240.32
341.64	246.37
342.105	238.62
342.569	262.17
343.034	281.02
343.499	281.47
343.963	275.12
344.428	271.82
344.893	276.37
345.357	280.97
345.822	281.02
346.286	282.02
346.751	293.37
347.215	295.47
347.679	295.12
348.144	327.47
348.608	312.62
349.073	328.97
349.537	369.57
350.001	363.12
350.465	337.32
350.93	321.92
351.394	323.47
351.858	322.02
352.322	342.52
352.786	341.92
353.25	334.57
353.715	334.97
354.179	355.27
354.643	370.72
355.107	383.32
355.571	401.57
356.035	408.12
356.498	398.22
356.962	427.42
357.426	417.42
357.89	376.02
358.354	357.37
358.818	352.97
359.281	359.22
359.745	377.47
360.209	372.47
360.673	376.67
361.136	380.47
361.6	382.97
362.064	402.37
362.527	413.87
362.991	413.67
363.454	404.27
363.918	416.12
364.381	412.22
364.845	396.57
365.308	390.52
365.772	392.22
366.235	398.77
366.698	421.67
367.162	513.22
367.625	578.47
368.088	462.92
368.552	422.12
369.015	424.62
369.478	451.42
369.941	467.02
370.404	476.37
370.867	504.32
371.331	507.57
371.794	516.82
372.257	583.57
372.72	608.92
373.183	583.82
373.646	587.42
374.109	595.12
374.572	684.62
375.035	811.17
375.497	612.52
375.96	490.82
376.423	456.77
376.886	461.82
377.349	477.82
377.811	475.67
378.274	487.22
378.737	493.42
379.199	505.02
379.662	523.97
380.125	554.12
380.587	614.27
381.05	654.52
381.512	651.42
381.975	628.57
382.437	625.97
382.9	620.47
383.362	624.32
383.825	667.17
384.287	839.82
384.75	951.32
385.212	822.42
385.674	679.97
386.136	615.37
386.599	610.52
387.061	641.02
387.523	665.97
387.985	664.72
388.447	691.07
388.91	772.87
389.372	943.37
389.834	886.12
390.296	719.12
390.758	733.07
391.22	753.92
391.682	924.57
392.144	1433.47
392.606	1340.87
393.068	788.27
393.529	720.07
393.991	705.12
394.453	684.07
394.915	723.02
395.377	871.67
395.838	1080.02
396.3	768.42
396.762	597.82
397.224	564.52
397.685	557.72
398.147	566.37
398.608	573.97
399.07	578.97
399.531	571.27
399.993	578.77
400.454	594.32
400.916	584.77
401.377	603.92
401.839	606.72
402.3	611.77
402.762	633.27
403.223	701.62
403.684	711.32
404.145	651.97
404.607	632.57
405.068	637.32
405.529	647.72
405.99	661.77
406.451	672.82
406.913	664.52
407.374	665.72
407.835	671.17
408.296	695.62
408.757	697.12
409.218	710.32
409.679	726.52
410.14	730.92
410.601	767.72
411.062	799.27
411.522	923.67
411.983	1017.32
412.444	864.02
412.905	761.77
413.366	761.07
413.826	785.97
414.287	869.02
414.748	1031.37
415.208	1061.87
415.669	881.82
416.13	812.02
416.59	791.17
417.051	825.92
417.511	854.97
417.972	919.92
418.432	983.27
418.893	1092.07
419.353	1045.17
419.814	804.87
420.274	725.37
420.734	718.27
421.195	774.07
421.655	799.92
422.115	778.22
422.576	748.12
423.036	755.32
423.496	780.12
423.956	822.17
424.416	878.67
424.876	989.72
425.336	988.52
425.797	980.72
426.257	980.92
426.717	926.67
427.177	864.27
427.637	894.37
428.097	939.87
428.556	987.12
429.016	1075.32
429.476	1071.67
429.936	1016.62
430.396	999.07
430.856	1003.02
431.315	1033.77
431.775	1114.47
432.235	1170.42
432.694	1182.97
433.154	1119.52
433.614	1082.42
434.073	1049.32
434.533	949.07
434.993	913.82
435.452	929.12
435.912	910.52
436.371	910.37
436.83	912.87
437.29	925.62
437.749	879.37
438.209	863.02
438.668	881.32
439.127	884.47
439.587	859.77
440.046	829.77
440.505	846.37
440.964	841.97
441.424	873.12
441.883	882.27
442.342	833.02
442.801	803.02
443.26	827.52
443.719	812.52
444.178	816.22
444.637	825.42
445.096	821.52
445.555	842.52
446.014	835.12
446.473	815.02
446.932	809.92
447.391	832.42
447.849	847.02
448.308	837.57
448.767	856.62
449.226	873.42
449.685	894.57
450.143	924.42
450.602	933.37
451.061	889.97
451.519	901.92
451.978	915.77
452.436	956.27
452.895	911.92
453.353	875.27
453.812	883.72
454.27	879.72
454.729	848.22
455.187	860.42
455.646	861.07
456.104	871.22
456.562	864.27
457.021	860.82
457.479	825.87
457.937	844.77
458.395	868.47
458.854	848.27
459.312	840.37
459.77	851.22
460.228	865.62
460.686	875.72
461.144	882.57
461.602	870.82
462.06	873.82
462.518	895.77
462.976	894.37
463.434	900.02
463.892	914.52
464.35	922.07
464.808	946.87
465.266	950.47
465.724	962.37
466.181	964.92
466.639	960.47
467.097	1002.27
467.555	1030.42
468.012	1025.62
468.47	1039.57
468.928	1060.87
469.385	1089.47
469.843	1113.27
470.3	1092.82
470.758	1134.22
471.215	1158.22
471.673	1173.02
472.13	1210.92
472.588	1240.87
473.045	1235.12
473.503	1252.42
473.96	1307.22
474.417	1332.37
474.875	1386.67
475.332	1439.87
475.789	1455.62
476.246	1501.07
476.704	1566.37
477.161	1611.17
477.618	1651.52
478.075	1743.07
478.532	1877.72
478.989	2028.77
479.446	2241.22
479.903	2366.37
480.36	2601.82
480.817	2765.92
481.274	2975.02
481.731	3266.77
482.188	3512.92
482.645	3817.62
483.102	4045.72
483.558	4331.42
484.015	4549.62
484.472	4563.42
484.929	4428.32
485.385	4229.87
485.842	4108.07
486.299	3887.07
486.755	3509.82
487.212	3136.62
487.668	2815.87
488.125	2609.67
488.582	2410.32
489.038	2307.62
489.494	2233.97
489.951	2171.92
490.407	2109.02
490.864	2089.82
491.32	2032.52
491.776	1998.57
492.233	2006.87
492.689	1981.67
493.145	1952.12
493.602	1936.42
494.058	1982.07
494.514	2012.72
494.97	2028.52
495.426	2043.42
495.882	2042.62
496.338	2060.62
496.794	2144.32
497.251	2161.82
497.707	2168.47
498.163	2173.12
498.618	2166.67
499.074	2168.07
499.53	2217.07
499.986	2256.27
500.442	2278.62
500.898	2292.52
501.354	2318.97
501.809	2325.12
502.265	2367.12
502.721	2495.47
503.177	2559.37
503.632	2409.42
504.088	2443.82
504.543	2674.52
504.999	2488.92
505.455	2187.22
505.91	2080.67
506.366	2066.02
506.821	2049.82
507.277	2040.77
507.732	2046.72
508.187	2036.07
508.643	2055.67
509.098	2064.57
509.553	2085.37
510.009	2107.27
510.464	2159.47
510.919	2177.27
511.375	2201.52
511.83	2233.52
512.285	2267.57
512.74	2315.77
513.195	2354.47
513.65	2388.12
514.105	2436.52
514.56	2438.07
515.015	2493.97
515.47	2529.62
515.925	2510.32
516.38	2502.92
516.835	2486.97
517.29	2480.67
517.745	2494.42
518.2	2458.42
518.655	2372.97
519.109	2347.77
519.564	2320.22
520.019	2314.02
520.474	2281.62
520.928	2261.77
521.383	2262.82
521.838	2260.92
522.292	2217.67
522.747	2192.02
523.201	2201.37
523.656	2165.12
524.11	2150.77
524.565	2164.12
525.019	2165.92
525.474	2174.57
525.928	2166.22
526.382	2128.92
526.837	2119.32
527.291	2136.37
527.745	2121.32
528.2	2114.62
528.654	2090.57
529.108	2110.12
529.562	2110.02
530.016	2116.72
530.47	2122.07
530.925	2115.02
531.379	2127.77
531.833	2147.02
532.287	2127.32
532.741	2123.62
533.195	2127.07
533.649	2119.12
534.103	2114.57
534.556	2098.97
535.01	2138.02
535.464	2120.57
535.918	2128.57
536.372	2139.17
536.826	2129.62
537.279	2107.27
537.733	2107.12
538.187	2135.22
538.64	2121.32
539.094	2149.52
539.548	2173.02
540.001	2171.62
540.455	2174.92
540.908	2192.52
541.362	2216.52
541.815	2234.07
542.269	2284.82
542.722	2263.17
543.175	2288.52
543.629	2306.67
544.082	2313.32
544.536	2350.07
544.989	2350.47
545.442	2352.52
545.895	2357.27
546.349	2349.27
546.802	2358.82
547.255	2349.57
547.708	2379.97
548.161	2392.27
548.614	2409.37
549.067	2425.82
549.52	2400.67
549.973	2378.12
550.426	2349.37
550.879	2338.77
551.332	2329.87
551.785	2347.17
552.238	2368.47
552.691	2375.37
553.144	2405.77
553.596	2451.97
554.049	2479.17
554.502	2542.87
554.955	2572.12
555.407	2616.07
555.86	2579.07
556.313	2553.32
556.765	2525.82
557.218	2507.12
557.67	2498.77
558.123	2462.77
558.576	2450.27
559.028	2449.57
559.48	2481.22
559.933	2465.12
560.385	2388.82
560.838	2296.02
561.29	2240.12
561.742	2231.42
562.195	2188.27
562.647	2177.37
563.099	2171.47
563.551	2153.32
564.004	2174.37
564.456	2155.12
564.908	2119.22
565.36	2081.02
565.812	2042.77
566.264	2022.47
566.716	1988.22
567.168	1968.12
567.62	1972.47
568.072	1949.32
568.524	1939.17
568.976	1924.97
569.428	1905.12
569.88	1894.47
570.332	1916.87
570.784	1900.82
571.235	1890.52
571.687	1911.67
572.139	1908.02
572.59	1929.87
573.042	1941.47
573.494	1938.87
573.945	1906.22
574.397	1866.87
574.849	1867.87
575.3	1875.42
575.752	1841.62
576.203	1836.57
576.655	1849.57
577.106	1816.52
577.557	1815.72
578.009	1787.87
578.46	1801.57
578.912	1795.12
579.363	1805.12
579.814	1798.97
580.265	1794.72
580.717	1792.62
581.168	1795.97
581.619	1802.27
582.07	1823.22
582.521	1817.82
582.972	1818.22
583.423	1828.62
583.875	1877.72
584.326	1972.12
584.777	2172.27
585.227	2376.57
585.678	2566.97
586.129	2599.12
586.58	2659.37
587.031	2696.57
587.482	2856.62
587.933	3385.37
588.384	3083.87
588.834	2514.32
589.285	2097.77
589.736	2048.27
590.186	2067.67
590.637	2035.32
591.088	1983.72
591.538	1963.47
591.989	1949.17
592.439	1937.52
592.89	1924.87
593.34	1932.02
593.791	1946.67
594.241	1952.57
594.692	1979.42
595.142	1951.37
595.593	1917.12
596.043	1923.82
596.493	1955.72
596.943	1999.27
597.394	1969.57
597.844	1940.87
598.294	1976.17
598.744	2041.17
599.195	2130.77
599.645	2258.62
600.095	2367.87
600.545	2477.67
600.995	2587.67
601.445	2682.42
601.895	2824.42
602.345	2909.72
602.795	2846.87
603.245	2720.32
603.695	2564.22
604.145	2424.22
604.594	2307.07
605.044	2178.57
605.494	2046.32
605.944	1943.42
606.393	1909.82
606.843	1891.87
607.293	1882.17
607.743	1882.62
608.192	1905.27
608.642	1903.72
609.091	1903.22
609.541	1901.37
609.99	1897.42
610.44	1861.82
610.889	1835.82
611.339	1821.47
611.788	1806.77
612.238	1846.57
612.687	1856.07
613.136	1887.07
613.586	1911.52
614.035	1918.72
614.484	1943.57
614.933	1955.22
615.383	1909.02
615.832	1837.52
616.281	1806.22
616.73	1749.62
617.179	1706.17
617.628	1652.07
618.077	1627.67
618.526	1597.02
618.975	1583.97
619.424	1568.22
619.873	1580.17
620.322	1557.77
620.771	1557.12
621.22	1532.17
621.669	1497.82
622.118	1492.37
622.567	1479.62
623.015	1446.42
623.464	1443.62
623.913	1426.27
624.361	1433.47
624.81	1428.97
625.259	1426.27
625.707	1401.77
626.156	1414.57
626.604	1430.42
627.053	1439.52
627.501	1439.22
627.95	1438.97
628.398	1456.02
628.847	1437.87
629.295	1439.47
629.744	1469.27
630.192	1504.67
630.64	1620.72
631.089	1777.17
631.537	1879.22
631.985	1884.42
632.433	1966.87
632.881	1957.77
633.33	2371.27
633.778	2596.37
634.226	1799.07
634.674	1668.07
635.122	1651.97
635.57	1676.12
636.018	1959.92
636.466	1577.57
636.914	1394.37
637.362	1389.02
637.81	1411.82
638.258	1447.92
638.705	1464.77
639.153	1502.87
639.601	1508.57
640.049	1538.77
640.497	1579.77
640.944	1620.27
641.392	1553.37
641.84	1464.57
642.287	1403.17
642.735	1387.72
643.182	1370.32
643.63	1384.42
644.078	1378.27
644.525	1401.77
644.973	1436.17
645.42	1452.72
645.867	1477.42
646.315	1499.72
646.762	1551.77
647.21	1594.87
647.657	1672.62
648.104	1747.22
648.551	1797.22
648.999	1938.52
649.446	2149.52
649.893	2417.27
650.34	2841.57
650.787	3547.57
651.234	4623.07
651.682	6440.72
652.129	9263.22
652.576	13227.62
653.023	15536.37
653.47	15539.57
653.917	15539.62
654.363	15539.52
654.81	15536.52
655.257	15537.17
655.704	15540.97
656.151	9984.47
656.598	6472.62
657.044	4592.52
657.491	3568.37
657.938	2880.27
658.385	2430.92
658.831	2158.07
659.278	1922.52
659.724	1764.47
660.171	1637.77
660.618	1520.72
661.064	1434.82
661.511	1383.47
661.957	1337.22
662.404	1312.87
662.85	1294.57
663.296	1281.82
663.743	1248.02
664.189	1234.02
664.635	1229.22
665.082	1215.02
665.528	1193.77
665.974	1171.22
666.42	1159.42
666.867	1181.72
667.313	1196.47
667.759	1259.22
668.205	1257.32
668.651	1271.42
669.097	1234.12
669.543	1355.87
669.989	1265.82
670.435	1093.82
670.881	1091.47
671.327	1130.52
671.773	1207.57
672.219	1291.02
672.665	1372.37
673.11	1420.87
673.556	1432.07
674.002	1463.17
674.448	1476.62
674.893	1255.62
675.339	1095.02
675.785	1019.47
676.23	969.12
676.676	938.02
677.122	912.22
677.567	885.57
678.013	855.32
678.458	852.12
678.904	852.52
679.349	837.17
679.794	845.42
680.24	846.47
680.685	833.32
681.131	833.77
681.576	835.87
682.021	839.57
682.466	843.22
682.912	851.22
683.357	901.37
683.802	968.52
684.247	1070.27
684.692	1134.97
685.137	1179.32
685.583	1197.57
686.028	1261.92
686.473	1191.72
686.918	1034.27
687.363	938.77
687.807	896.37
688.252	851.07
688.697	816.57
689.142	800.22
689.587	802.82
690.032	823.52
690.477	855.77
690.921	894.67
691.366	937.07
691.811	975.97
692.255	1057.97
692.7	1292.87
693.145	1868.42
693.589	2849.32
694.034	3386.62
694.478	3576.97
694.923	3254.07
695.367	4629.47
695.812	2805.92
696.256	1201.92
696.701	873.57
697.145	827.77
697.59	792.07
698.034	782.67
698.478	781.67
698.922	787.47
699.367	809.47
699.811	852.72
700.255	921.72
700.699	995.97
701.143	1084.62
701.588	1133.32
702.032	1185.47
702.476	1217.27
702.92	1284.62
703.364	1699.92
703.808	2605.97
704.252	3239.47
704.696	3395.17
705.14	3199.22
705.584	4398.87
706.027	2427.82
706.471	1224.27
706.915	919.47
707.359	818.77
707.803	771.97
708.246	741.97
708.69	747.92
709.134	734.87
709.577	729.02
710.021	745.97
710.465	734.22
710.908	728.92
711.352	763.37
711.795	844.07
712.239	909.67
712.682	931.92
713.126	928.27
713.569	1025.97
714.012	852.62
714.456	757.72
714.899	706.02
715.342	666.37
715.786	629.67
716.229	616.07
716.672	600.02
717.115	603.97
717.558	611.02
718.002	628.37
718.445	652.92
718.888	688.97
719.331	703.17
719.774	713.52
720.217	694.92
720.66	658.42
721.103	625.07
721.546	592.52
721.989	582.07
722.432	569.27
722.874	567.27
723.317	579.27
723.76	626.52
724.203	776.92
724.645	1025.87
725.088	1204.02
725.531	1177.02
725.974	1276.12
726.416	1152.72
726.859	714.87
727.301	590.47
727.744	561.97
728.187	564.67
728.629	576.82
729.071	602.42
729.514	624.37
729.956	656.02
730.399	658.77
730.841	657.02
731.283	642.27
731.726	622.47
732.168	634.62
732.61	676.82
733.053	730.12
733.495	801.92
733.937	886.92
734.379	1044.52
734.821	1343.02
735.263	2156.82
735.705	3860.67
736.148	5622.32
736.59	5563.27
737.032	6028.62
737.474	4944.67
737.916	1898.07
738.357	997.52
738.799	774.72
739.241	719.37
739.683	721.37
740.125	735.87
740.567	736.12
741.008	773.62
741.45	798.27
741.892	822.22
742.334	826.62
742.775	812.57
743.217	774.17
743.658	667.47
744.1	680.37
744.542	754.92
744.983	773.67
745.425	818.42
745.866	811.97
746.307	734.42
746.749	797.87
747.19	1161.77
747.632	2278.12
748.073	4227.82
748.514	5771.82
748.956	7632.77
749.397	8874.37
749.838	6115.37
750.279	5789.72
750.72	2979.82
751.162	1258.07
751.603	725.97
752.044	589.72
752.485	517.97
752.926	486.02
753.367	468.82
753.808	455.12
754.249	449.42
754.69	447.82
755.131	437.17
755.572	436.82
756.013	436.27
756.453	440.47
756.894	446.72
757.335	450.57
757.776	459.87
758.216	477.02
758.657	500.97
759.098	556.72
759.538	675.67
759.979	979.02
760.42	2003.92
760.86	5119.62
761.301	10486.52
761.741	12111.77
762.182	13802.07
762.622	8929.27
763.063	3234.17
763.503	1429.17
763.943	1109.67
764.384	1226.57
764.824	1164.52
765.264	1157.37
765.705	816.92
766.145	575.07
766.585	509.57
767.025	543.92
767.465	712.72
767.906	875.52
768.346	911.07
768.786	946.67
769.226	948.87
769.666	1643.32
770.106	3552.92
770.546	4953.57
770.986	5548.07
771.426	4152.72
771.866	1743.07
772.306	794.07
772.745	507.72
773.185	440.62
773.625	447.97
774.065	531.12
774.505	884.67
774.944	1794.12
775.384	2692.07
775.824	3062.72
776.263	2487.17
776.703	1213.17
777.142	600.92
777.582	409.02
778.021	367.97
778.461	341.22
778.9	334.57
779.34	306.17
779.779	297.02
780.219	282.67
780.658	280.77
781.097	278.37
781.537	267.17
781.976	271.12
782.415	266.87
782.855	268.62
783.294	260.52
783.733	256.07
784.172	265.97
784.611	258.97
785.05	271.37
785.489	272.37
785.928	280.87
786.367	292.62
786.806	310.32
787.245	331.27
787.684	340.42
788.123	335.17
788.562	321.07
789.001	309.42
789.44	297.52
789.879	299.02
790.317	303.27
790.756	327.17
791.195	374.17
791.634	503.12
792.072	911.12
792.511	2269.07
792.95	4113.22
793.388	4920.02
793.827	3159.27
794.265	1454.02
794.704	700.22
795.142	424.57
795.581	357.52
796.019	319.67
796.458	318.62
796.896	328.17
797.334	374.52
797.773	514.22
798.211	991.12
798.649	2037.27
799.087	3418.07
799.526	4805.97
799.964	4909.07
800.402	3348.82
800.84	1518.72
801.278	744.62
801.716	455.92
802.154	374.27
802.592	350.87
803.03	346.87
803.468	359.32
803.906	359.17
804.344	353.82
804.782	335.97
805.22	339.37
805.658	356.92
806.096	376.02
806.533	419.02
806.971	540.72
807.409	796.67
807.847	1602.32
808.284	4107.22
808.722	7078.22
809.16	9901.07
809.597	13405.37
810.035	15541.52
810.472	10609.02
810.91	4520.62
811.347	2023.07
811.785	949.62
812.222	594.82
812.66	457.07
813.097	392.72
813.535	336.57
813.972	309.37
814.409	285.72
814.846	275.42
815.284	256.52
815.721	267.02
816.158	282.17
816.595	364.32
817.032	436.62
817.47	401.77
817.907	316.72
818.344	285.72
818.781	275.02
819.218	314.87
819.655	450.12
820.092	567.52
820.529	531.82
820.966	444.62
821.403	327.47
821.839	283.47
822.276	300.42
822.713	342.12
823.15	334.82
823.587	368.17
824.023	666.77
824.46	1674.22
824.897	2882.67
825.333	2204.52
825.77	1017.22
826.206	527.37
826.643	312.07
827.08	238.07
827.516	209.07
827.953	195.82
828.389	182.82
828.825	175.52
829.262	170.42
829.698	165.37
830.135	154.57
830.571	155.57
831.007	159.32
831.443	163.72
831.88	160.47
832.316	175.07
832.752	164.87
833.188	166.27
833.624	166.02
834.06	172.57
834.497	170.32
834.933	177.37
835.369	184.97
835.805	197.92
836.241	203.17
836.677	226.22
837.112	264.37
837.548	327.62
837.984	483.52
838.42	1051.52
838.856	2941.47
839.292	5744.92
839.727	4186.67
840.163	2861.82
840.599	4372.02
841.034	6620.22
841.47	3257.52
841.906	1601.77
842.341	922.82
842.777	809.12
843.212	962.37
843.648	565.62
844.083	353.02
844.519	238.62
844.954	188.12
845.39	167.22
845.825	156.67
846.261	151.32
846.696	142.52
847.131	137.47
847.566	140.07
848.002	141.82
848.437	153.77
848.872	160.47
849.307	201.67
849.742	373.62
850.177	961.42
850.613	2027.87
851.048	1428.27
851.483	654.87
851.918	379.92
852.353	215.27
852.788	172.72
853.223	143.62
853.657	127.22
854.092	123.62
854.527	118.27
854.962	125.42
855.397	130.77
855.832	111.22
856.266	103.22
856.701	106.47
857.136	106.82
857.57	119.87
858.005	140.07
858.44	125.82
858.874	126.52
859.309	129.37
859.743	125.62
860.178	118.72
860.612	128.97
861.047	165.02
861.481	212.67
861.915	148.72
862.35	117.62
862.784	100.87
863.218	99.27
863.653	106.82
864.087	125.52
864.521	169.27
864.955	280.17
865.39	465.72
865.824	337.77
866.258	386.02
866.692	550.07
867.126	396.77
867.56	216.57
867.994	150.92
868.428	132.22
868.862	156.92
869.296	142.17
869.73	168.27
870.164	149.92
870.598	132.32
871.031	101.32
871.465	91.97
871.899	78.62
872.333	69.52
872.766	75.82
873.2	78.97
873.634	76.72
874.067	78.22
874.501	80.22
874.935	81.02
875.368	81.02
875.802	72.77
876.235	68.07
876.669	65.37
877.102	58.72
877.535	62.52
877.969	57.22
878.402	63.92
878.836	62.27
879.269	54.67
879.702	59.52
880.135	68.37
880.569	70.92
881.002	58.12
881.435	57.97
881.868	59.97
882.301	58.52
882.734	53.07
883.167	56.57
883.601	56.72
884.034	53.32
884.467	53.27
884.899	54.47
885.332	46.37
885.765	50.82
886.198	49.22
886.631	49.02
887.064	50.27
887.497	48.67
887.929	46.02
888.362	48.92
888.795	47.42
889.228	50.52
889.66	43.97
890.093	49.97
890.526	50.97
890.958	46.82
891.391	53.32
891.823	47.82
892.256	50.87
892.688	46.37
893.121	44.32
893.553	48.52
893.985	45.17
894.418	43.67
894.85	43.12
895.282	45.67
895.715	39.92
896.147	37.12
896.579	36.52
897.011	43.52
897.444	44.27
897.876	37.07
898.308	44.02
898.74	41.52
899.172	47.32
899.604	47.82
900.036	45.67
900.468	41.67
900.9	48.12
901.332	56.52
901.764	54.52
902.196	56.82
902.628	57.32
903.06	73.12
903.491	75.67
903.923	64.42
904.355	68.02
904.787	76.62
905.218	62.57
905.65	60.92
906.082	57.42
906.513	53.97
906.945	55.07
907.376	55.77
907.808	57.52
908.239	67.57
908.671	69.37
909.102	71.52
909.534	99.12
909.965	184.62
910.397	472.47
910.828	1349.67
911.259	816.22
911.691	439.07
912.122	258.77
912.553	129.32
912.984	77.92
913.415	65.22
913.847	58.97
914.278	56.17
914.709	48.42
915.14	44.92
915.571	47.62
916.002	46.77
916.433	42.47
916.864	43.27
917.295	43.32
917.726	51.62
918.157	66.17
918.587	66.57
919.018	63.17
919.449	55.52
919.88	69.92
920.311	103.22
920.741	285.87
921.172	499.97
921.603	246.77
922.033	158.22
922.464	102.72
922.895	68.27
923.325	48.77
923.756	51.57
924.186	68.97
924.617	116.77
925.047	177.12
925.478	165.07
925.908	114.62
926.338	79.97
926.769	59.32
927.199	47.57
927.629	44.82
928.06	47.62
928.49	42.07
928.92	37.67
929.35	32.02
929.78	27.02
930.21	26.82
930.641	21.92
931.071	23.77
931.501	24.52
931.931	23.12
932.361	25.07
932.791	28.22
933.221	28.62
933.651	37.82
934.08	69.27
934.51	38.92
934.94	32.87
935.37	26.27
935.8	25.22
936.229	22.02
936.659	16.92
937.089	34.87
937.519	42.12
937.948	59.92
938.378	36.67
938.807	25.02
939.237	22.02
939.666	20.62
940.096	15.72
940.525	8.22
940.955	16.77
941.384	12.22
941.814	13.67
942.243	15.27
942.672	14.37
943.102	11.77
943.531	11.37
943.96	10.62
944.39	9.07
944.819	13.87
945.248	7.47
945.677	15.07
946.106	10.97
946.535	14.82
946.964	13.72
947.393	11.22
947.822	12.07
948.251	14.97
948.68	13.02
949.109	13.12
949.538	10.22
949.967	9.57
950.396	8.17
950.825	13.57
951.254	12.67
951.682	3.72
952.111	7.27
952.54	6.57
952.969	9.82
953.397	9.17
953.826	8.47
954.254	15.07
954.683	9.32
955.112	13.47
955.54	9.67
955.969	9.02
956.397	11.72
956.826	11.87
957.254	13.17
957.682	8.32
958.111	4.92
958.539	9.82
958.967	7.17
959.396	13.02
959.824	9.37
960.252	14.02
960.68	8.37
961.109	15.67
961.537	17.42
961.965	7.42
962.393	8.67
962.821	9.07
963.249	7.67
963.677	16.72
964.105	81.82
964.533	143.52
964.961	70.52
965.389	41.17
965.817	24.87
966.245	13.32
966.672	7.82
967.1	7.52
967.528	5.72
967.956	9.32
968.383	6.42
968.811	3.97
969.239	8.92
969.666	10.42
970.094	3.02
970.522	4.37
970.949	5.92
971.377	0.72
971.804	5.72
972.232	4.62
972.659	6.22
973.087	8.32
973.514	4.87
973.941	2.37
974.369	1.97
974.796	4.12
975.223	5.62
975.651	4.72
976.078	6.77
976.505	11.67
976.932	35.17
977.359	42.52
977.786	21.67
978.214	18.87
978.641	11.47
979.068	6.92
979.495	8.72
979.922	4.47
980.349	6.92
980.776	7.12
981.202	7.67
981.629	10.37
982.056	6.37
982.483	-1.88
982.91	9.42
983.337	5.77
983.763	2.62
984.19	8.17
984.617	3.37
985.043	8.82
985.47	7.77
985.897	7.97
986.323	10.02
986.75	5.37
987.176	7.22
987.603	1.97
988.029	6.67
988.456	9.12
988.882	1.22
989.308	1.07
989.735	-0.03
990.161	6.67
990.587	3.07
991.014	7.32
991.44	2.37
991.866	6.92
992.292	4.47
992.719	0.37
993.145	7.77
993.571	5.37
993.997	9.32
994.423	5.87
994.849	2.62
995.275	7.77
995.701	6.72
996.127	-1.63
996.553	3.87
996.979	0.87
997.405	8.82
997.83	6.22
998.256	7.52
998.682	3.57
999.108	5.57
999.534	-1.63
999.959	3.97
1000.385	5.57
1000.811	-0.23
1001.236	-0.58
1001.662	0.02
1002.087	7.97
1002.513	3.62
1002.938	1.02
1003.364	3.42
1003.789	5.02
1004.215	4.87
1004.64	4.07
1005.066	6.87
1005.491	9.22
1005.916	4.82
1006.342	2.87
1006.767	6.32
1007.192	6.37
1007.617	5.07
1008.042	1.92
1008.468	7.42
1008.893	6.12
1009.318	9.12
1009.743	13.02
1010.168	19.07
1010.593	17.17
1011.018	8.32
1011.443	4.97
1011.868	6.47
1012.293	3.47
1012.718	-0.33
1013.143	4.37
1013.567	8.97
1013.992	2.92
1014.417	6.12
1014.842	2.67
1015.267	3.42
1015.691	4.82
1016.116	1.12
1016.541	5.87
1016.965	-2.93
1017.39	2.22
1017.814	-1.33
1018.239	-0.23
1018.663	0.17
1019.088	-3.58
1019.512	7.02
1019.937	-1.48
1020.361	4.27
1020.785	-2.53
1021.21	-2.58
1021.634	0.47
1022.058	4.07
1022.483	0.67
1022.907	-1.98
1023.331	-0.98
1023.755	3.17
1024.179	-2.98
1024.604	-0.23
1025.028	4.87
1025.452	0.47
1025.876	0.07
1026.3	0.07
1026.724	-4.83
1027.148	3.47
1027.572	3.47
1027.996	3.77
1028.42	-0.23
1028.843	0.07
1029.267	-1.43
1029.691	4.77
1030.115	-3.08
1030.539	-0.28
1030.962	-2.78
1031.386	0.07
1031.81	3.67
1032.233	0.57
1032.657	-8.13
1033.08	-0.68
1033.504	1.92
1033.927	1.22
1034.351	-0.83
1034.774	-1.08
1035.198	-0.73
1035.621	0.37
1036.045	-3.18
1036.468	2.97
1036.891	3.17
1037.315	8.02
1037.738	1.22
1038.161	1.27
1038.584	-2.63
1039.008	0.02
1039.431	-0.53
1039.854	-6.13
1040.277	1.27
1040.7	-1.18
1041.123	0.52
1041.546	0.92
1041.969	2.87
1042.392	-1.68
1042.815	-3.68
1043.238	-0.48
1043.661	1.32
1044.084	1.62
1044.507	-0.88
1044.93	0.37
1045.352	2.22
1045.775	0.32
1046.198	0.77
1046.621	2.92
1047.043	3.27
1047.466	0.57
1047.889	0.22
1048.311	6.92
1048.734	-2.83
1049.156	2.07
1049.579	-0.38
1050.001	-2.63
1050.424	-1.08
1050.846	-2.18
1051.269	-7.48
1051.691	-2.68
1052.113	-1.23
1052.536	-0.18
1052.958	-3.88
1053.38	-4.88
1053.802	1.97
1054.225	-1.38
1054.647	1.62
1055.069	1.12
1055.491	-1.23
1055.913	-1.33
1056.335	-7.93
1056.757	-6.18
1057.179	-0.33
1057.601	2.47
1058.023	-2.48
1058.445	-6.03
1058.867	2.07
1059.289	1.27
1059.711	-0.83
1060.133	0.32
1060.555	-0.98
1060.976	0.12
1061.398	2.47
1061.82	0.82
1062.241	-4.78
1062.663	2.62
1063.085	-0.73
1063.506	-3.83
1063.928	-4.98
1064.35	-2.98
1064.771	-2.38
1065.193	-3.18
1065.614	-2.73
1066.035	3.42
1066.457	0.32
1066.878	3.02
1067.3	3.87
1067.721	1.77
1068.142	6.87
1068.564	0.42
1068.985	-0.03
1069.406	-6.38
1069.827	-1.38
1070.248	-1.43
1070.67	-4.88
1071.091	-3.48
1071.512	-1.58
1071.933	-4.78
1072.354	-3.38
1072.775	-5.38
1073.196	-0.63
1073.617	-2.28
1074.038	-3.73
1074.459	-2.03
1074.88	-0.43
1075.3	0.67
1075.721	0.42
1076.142	-0.93
1076.563	-10.13
1076.983	-0.23
1077.404	-4.33
1077.825	1.92
1078.246	-2.48
1078.666	-3.73
1079.087	-1.38
1079.507	-7.83
1079.928	-1.68
1080.348	-0.68
1080.769	-1.98
1081.189	1.02
1081.61	-6.28
1082.03	-4.13
1082.451	-1.73
1082.871	-6.63
1083.291	-4.53
1083.711	-0.48
1084.132	-5.03
1084.552	-4.48
1084.972	-5.38
1085.392	-3.93
1085.813	2.57
1086.233	2.02
1086.653	0.17
1087.073	-6.38
1087.493	-7.83
1087.913	-5.48
1088.333	-0.98
1088.753	1.37
1089.173	-2.18
1089.593	0.97
1090.013	-2.78
1090.433	-1.83
1090.852	1.22
1091.272	-2.63
1091.692	0.32
1092.112	-1.58
1092.531	-7.23
1092.951	-1.68
1093.371	-0.33
1093.79	-3.43
1094.21	0.42
1094.63	-3.63
1095.049	-4.53
1095.469	-10.08
1095.888	-2.38
1096.308	1.67
1096.727	-5.03
1097.146	-4.23
1097.566	-4.48
1097.985	-3.88
1098.405	-3.13
1098.824	0.42
1099.243	-2.38
1099.662	-0.38
1100.082	-1.48
1100.501	-1.83
1100.92	0.32
1101.339	1.77
1101.758	-1.58
