Data from MSPlasma+Separation6_Subt14_10-14-55-643.txt Node
Date: Fri Jul 21 10:14:55 EDT 2017
User: Ender
Spectrometer: HR+D1039
Trigger mode: 0
Integration Time (sec): 6.430000E-3
Scans to average: 20
Electric dark correction enabled: true
Nonlinearity correction enabled: false
Boxcar width: 0
XAxis mode: Wavelengths
Number of Pixels in Spectrum: 2048
>>>>>Begin Spectral Data<<<<<
187.836	-0.81
188.309	-0.81
188.782	-0.81
189.255	-0.06
189.728	2.24
190.201	-2.21
190.674	-2.31
191.147	-0.76
191.619	-1.31
192.092	-1.56
192.565	1.24
193.038	3.39
193.511	-0.21
193.984	0.24
194.456	-0.26
194.929	2.09
195.402	-0.81
195.874	1.09
196.347	1.84
196.82	-0.41
197.292	-3.31
197.765	-1.76
198.237	-6.86
198.71	-1.91
199.182	-0.96
199.655	7.84
200.127	1.39
200.6	0.14
201.072	2.54
201.544	1.04
202.017	0.79
202.489	-0.26
202.961	1.39
203.433	2.84
203.906	1.69
204.378	4.39
204.85	2.79
205.322	3.19
205.794	5.84
206.266	-0.46
206.739	-0.76
207.211	-0.21
207.683	5.74
208.155	5.04
208.627	1.09
209.099	7.64
209.57	2.79
210.042	1.34
210.514	3.34
210.986	16.29
211.458	24.59
211.93	12.44
212.402	2.19
212.873	-1.56
213.345	-1.61
213.817	4.89
214.288	-1.46
214.76	3.74
215.232	-1.36
215.703	-0.46
216.175	4.84
216.646	4.39
217.118	6.69
217.589	5.34
218.061	2.84
218.532	2.09
219.004	12.14
219.475	18.44
219.946	32.09
220.418	38.99
220.889	27.24
221.36	9.94
221.832	10.39
222.303	4.79
222.774	5.29
223.245	1.74
223.717	5.49
224.188	5.64
224.659	2.74
225.13	2.99
225.601	-0.91
226.072	6.69
226.543	9.99
227.014	9.69
227.485	13.54
227.956	5.09
228.427	15.54
228.898	12.24
229.369	10.94
229.839	10.54
230.31	16.39
230.781	14.99
231.252	16.39
231.722	30.79
232.193	32.24
232.664	39.39
233.135	57.24
233.605	65.54
234.076	47.59
234.546	42.24
235.017	50.69
235.487	46.84
235.958	44.59
236.428	66.09
236.899	107.04
237.369	120.64
237.84	87.64
238.31	112.69
238.78	110.49
239.251	111.49
239.721	115.34
240.191	87.99
240.662	49.84
241.132	44.54
241.602	52.84
242.072	77.89
242.542	90.84
243.013	56.14
243.483	56.64
243.953	40.79
244.423	45.09
244.893	55.04
245.363	57.79
245.833	52.99
246.303	62.44
246.773	80.79
247.243	82.14
247.712	96.14
248.182	110.89
248.652	112.49
249.122	170.79
249.592	322.84
250.061	487.59
250.531	773.14
251.001	585.69
251.471	485.39
251.94	369.49
252.41	199.99
252.879	142.39
253.349	104.14
253.818	88.34
254.288	73.89
254.757	80.59
255.227	101.79
255.696	85.74
256.166	74.39
256.635	76.89
257.105	103.84
257.574	130.54
258.043	135.14
258.513	240.69
258.982	296.79
259.451	211.39
259.92	207.29
260.389	193.24
260.859	140.79
261.328	165.14
261.797	241.89
262.266	214.89
262.735	99.34
263.204	65.69
263.673	54.79
264.142	46.34
264.611	51.84
265.08	54.69
265.549	60.09
266.018	55.09
266.487	52.44
266.955	50.19
267.424	59.34
267.893	60.04
268.362	61.54
268.83	58.24
269.299	63.79
269.768	71.24
270.236	87.44
270.705	89.09
271.174	90.34
271.642	99.84
272.111	114.69
272.579	181.09
273.048	289.79
273.516	364.34
273.985	368.54
274.453	277.69
274.922	168.79
275.39	108.64
275.858	101.84
276.327	85.49
276.795	89.89
277.263	94.44
277.731	134.14
278.2	245.49
278.668	325.74
279.136	247.59
279.604	159.74
280.072	96.84
280.54	86.34
281.008	89.14
281.477	87.34
281.945	90.89
282.413	91.14
282.881	92.94
283.348	95.59
283.816	100.54
284.284	108.79
284.752	102.84
285.22	102.99
285.688	115.94
286.156	191.14
286.623	517.44
287.091	1017.89
287.559	526.54
288.026	202.59
288.494	127.59
288.962	108.19
289.429	96.69
289.897	94.64
290.364	90.49
290.832	88.09
291.3	95.19
291.767	99.74
292.234	98.74
292.702	106.14
293.169	116.19
293.637	114.29
294.104	118.69
294.571	109.89
295.039	109.84
295.506	108.94
295.973	116.24
296.44	112.04
296.908	120.04
297.375	137.79
297.842	132.39
298.309	116.84
298.776	114.99
299.243	119.34
299.71	112.49
300.177	115.34
300.644	129.09
301.111	141.44
301.578	129.14
302.045	124.64
302.512	119.29
302.979	123.64
303.446	133.24
303.913	131.79
304.379	140.24
304.846	155.34
305.313	179.44
305.78	202.49
306.246	252.69
306.713	265.04
307.18	234.84
307.646	253.49
308.113	221.54
308.579	171.44
309.046	171.24
309.512	173.39
309.979	158.44
310.445	147.99
310.912	151.59
311.378	158.14
311.845	152.09
312.311	149.99
312.777	146.59
313.244	159.14
313.71	163.09
314.176	177.94
314.642	205.49
315.109	235.64
315.575	223.94
316.041	209.79
316.507	196.44
316.973	220.89
317.439	206.34
317.905	234.34
318.371	225.84
318.837	219.44
319.303	222.94
319.769	207.04
320.235	232.79
320.701	272.29
321.167	286.94
321.633	346.29
322.099	475.44
322.564	650.04
323.03	508.44
323.496	352.94
323.962	325.79
324.427	309.59
324.893	272.39
325.359	259.49
325.824	225.89
326.29	232.14
326.755	238.24
327.221	238.04
327.686	252.14
328.152	226.29
328.617	213.99
329.083	221.64
329.548	235.39
330.014	244.64
330.479	260.19
330.944	305.24
331.41	356.59
331.875	336.39
332.34	346.34
332.805	398.29
333.271	515.64
333.736	688.59
334.201	613.79
334.666	461.44
335.131	517.14
335.596	412.29
336.061	432.99
336.526	433.04
336.991	381.39
337.456	418.54
337.921	329.04
338.386	268.64
338.851	245.09
339.316	221.94
339.781	222.79
340.246	227.04
340.711	220.19
341.175	227.64
341.64	232.19
342.105	241.54
342.569	251.44
343.034	271.19
343.499	281.64
343.963	268.34
344.428	259.54
344.893	273.99
345.357	282.84
345.822	270.04
346.286	273.49
346.751	291.19
347.215	282.29
347.679	291.64
348.144	313.19
348.608	308.89
349.073	321.14
349.537	353.59
350.001	354.29
350.465	325.14
350.93	316.44
351.394	319.79
351.858	315.99
352.322	327.24
352.786	330.44
353.25	323.64
353.715	325.14
354.179	348.04
354.643	356.44
355.107	372.29
355.571	386.14
356.035	402.39
356.498	382.14
356.962	418.59
357.426	407.84
357.89	368.19
358.354	346.39
358.818	341.84
359.281	353.49
359.745	368.44
360.209	363.99
360.673	370.14
361.136	369.79
361.6	372.69
362.064	395.59
362.527	404.24
362.991	402.79
363.454	403.14
363.918	405.54
364.381	395.59
364.845	388.99
365.308	390.64
365.772	385.34
366.235	385.69
366.698	410.44
367.162	490.64
367.625	553.29
368.088	442.29
368.552	407.69
369.015	415.94
369.478	450.84
369.941	451.99
370.404	453.29
370.867	484.24
371.331	494.09
371.794	498.69
372.257	556.09
372.72	591.04
373.183	561.59
373.646	570.69
374.109	574.44
374.572	661.19
375.035	777.34
375.497	585.59
375.96	474.89
376.423	448.99
376.886	449.99
377.349	458.94
377.811	464.69
378.274	476.64
378.737	482.24
379.199	486.84
379.662	502.14
380.125	539.79
380.587	599.04
381.05	632.84
381.512	638.49
381.975	612.14
382.437	605.34
382.9	604.29
383.362	606.29
383.825	642.79
384.287	813.89
384.75	906.34
385.212	792.14
385.674	659.09
386.136	599.69
386.599	596.74
387.061	630.94
387.523	644.24
387.985	649.69
388.447	671.84
388.91	752.09
389.372	914.64
389.834	850.54
390.296	710.54
390.758	720.04
391.22	739.49
391.682	909.49
392.144	1414.49
392.606	1311.89
393.068	776.04
393.529	709.04
393.991	693.39
394.453	669.79
394.915	705.94
395.377	864.09
395.838	1054.49
396.3	751.19
396.762	579.79
397.224	553.44
397.685	546.94
398.147	554.39
398.608	560.24
399.07	568.49
399.531	551.04
399.993	559.49
400.454	575.64
400.916	567.29
401.377	588.09
401.839	597.39
402.3	592.59
402.762	618.84
403.223	687.09
403.684	696.44
404.145	639.69
404.607	624.74
405.068	619.34
405.529	638.04
405.99	649.04
406.451	659.14
406.913	648.84
407.374	658.19
407.835	660.49
408.296	680.09
408.757	683.84
409.218	707.29
409.679	705.29
410.14	716.89
410.601	750.99
411.062	794.29
411.522	903.39
411.983	989.29
412.444	846.39
412.905	751.19
413.366	750.09
413.826	766.19
414.287	863.24
414.748	1026.69
415.208	1040.84
415.669	867.74
416.13	796.99
416.59	787.34
417.051	806.24
417.511	839.69
417.972	912.94
418.432	975.34
418.893	1081.94
419.353	1021.84
419.814	793.39
420.274	717.74
420.734	715.39
421.195	756.49
421.655	792.84
422.115	761.44
422.576	734.59
423.036	739.79
423.496	763.19
423.956	802.09
424.416	863.19
424.876	967.39
425.336	974.09
425.797	955.64
426.257	969.19
426.717	901.59
427.177	842.59
427.637	871.69
428.097	922.89
428.556	968.64
429.016	1046.29
429.476	1042.54
429.936	1005.99
430.396	980.99
430.856	997.49
431.315	1012.39
431.775	1088.34
432.235	1145.14
432.694	1162.89
433.154	1092.04
433.614	1065.09
434.073	1027.59
434.533	935.39
434.993	901.49
435.452	914.99
435.912	900.59
436.371	889.59
436.83	894.04
437.29	901.39
437.749	862.39
438.209	845.79
438.668	856.84
439.127	862.09
439.587	844.79
440.046	806.24
440.505	827.19
440.964	824.09
441.424	853.14
441.883	861.89
442.342	822.64
442.801	795.84
443.26	818.44
443.719	807.14
444.178	803.99
444.637	809.79
445.096	806.44
445.555	830.79
446.014	824.94
446.473	801.34
446.932	805.84
447.391	809.19
447.849	831.14
448.308	822.79
448.767	842.99
449.226	864.29
449.685	870.54
450.143	903.74
450.602	906.24
451.061	869.69
451.519	878.39
451.978	901.49
452.436	930.24
452.895	886.49
453.353	852.59
453.812	865.69
454.27	862.04
454.729	836.19
455.187	847.49
455.646	848.89
456.104	854.69
456.562	847.34
457.021	835.79
457.479	805.24
457.937	832.64
458.395	854.99
458.854	842.19
459.312	829.94
459.77	841.74
460.228	853.44
460.686	860.39
461.144	865.84
461.602	849.69
462.06	855.69
462.518	880.59
462.976	874.24
463.434	883.94
463.892	893.74
464.35	915.34
464.808	926.29
465.266	931.84
465.724	942.49
466.181	945.89
466.639	945.34
467.097	987.19
467.555	1014.39
468.012	1006.54
468.47	1019.74
468.928	1046.34
469.385	1086.64
469.843	1086.14
470.3	1085.34
470.758	1122.14
471.215	1129.44
471.673	1159.84
472.13	1197.34
472.588	1212.24
473.045	1213.89
473.503	1237.39
473.96	1288.34
474.417	1304.09
474.875	1369.79
475.332	1415.59
475.789	1428.19
476.246	1474.44
476.704	1534.19
477.161	1585.84
477.618	1632.19
478.075	1719.99
478.532	1850.19
478.989	1994.09
479.446	2197.79
479.903	2334.84
480.36	2559.44
480.817	2728.09
481.274	2926.79
481.731	3228.29
482.188	3465.59
482.645	3752.14
483.102	3962.69
483.558	4252.54
484.015	4474.69
484.472	4460.89
484.929	4345.59
485.385	4137.59
485.842	4036.34
486.299	3815.54
486.755	3462.84
487.212	3094.74
487.668	2783.49
488.125	2583.04
488.582	2376.99
489.038	2271.74
489.494	2203.14
489.951	2150.64
490.407	2079.69
490.864	2053.29
491.32	1997.74
491.776	1976.89
492.233	1966.74
492.689	1952.04
493.145	1924.79
493.602	1899.94
494.058	1939.49
494.514	1970.19
494.97	1976.94
495.426	1996.89
495.882	2006.54
496.338	2029.04
496.794	2105.94
497.251	2115.39
497.707	2115.74
498.163	2120.19
498.618	2105.09
499.074	2128.44
499.53	2170.49
499.986	2211.24
500.442	2232.99
500.898	2240.69
501.354	2266.44
501.809	2278.19
502.265	2320.39
502.721	2425.29
503.177	2481.89
503.632	2360.74
504.088	2386.89
504.543	2605.04
504.999	2432.14
505.455	2157.04
505.91	2049.44
506.366	2028.94
506.821	2014.09
507.277	2005.74
507.732	2003.54
508.187	2008.09
508.643	2030.44
509.098	2020.29
509.553	2042.99
510.009	2081.34
510.464	2105.44
510.919	2134.79
511.375	2165.89
511.83	2186.24
512.285	2236.54
512.74	2278.69
513.195	2307.04
513.65	2344.44
514.105	2382.59
514.56	2395.39
515.015	2444.59
515.47	2476.34
515.925	2459.59
516.38	2453.59
516.835	2432.99
517.29	2428.69
517.745	2443.34
518.2	2407.34
518.655	2331.24
519.109	2295.29
519.564	2272.54
520.019	2269.39
520.474	2233.09
520.928	2227.24
521.383	2224.24
521.838	2208.19
522.292	2186.99
522.747	2154.24
523.201	2147.84
523.656	2113.69
524.11	2110.39
524.565	2111.64
525.019	2123.54
525.474	2139.54
525.928	2118.89
526.382	2098.84
526.837	2081.79
527.291	2098.09
527.745	2069.39
528.2	2077.84
528.654	2066.29
529.108	2083.04
529.562	2072.04
530.016	2070.44
530.47	2072.44
530.925	2076.89
531.379	2085.09
531.833	2107.44
532.287	2093.29
532.741	2083.24
533.195	2075.34
533.649	2086.04
534.103	2087.59
534.556	2065.94
535.01	2093.34
535.464	2086.44
535.918	2087.09
536.372	2094.84
536.826	2085.39
537.279	2072.99
537.733	2077.89
538.187	2082.39
538.64	2088.79
539.094	2110.59
539.548	2144.44
540.001	2124.49
540.455	2131.99
540.908	2150.09
541.362	2180.34
541.815	2188.84
542.269	2236.59
542.722	2227.64
543.175	2254.24
543.629	2259.79
544.082	2279.59
544.536	2307.89
544.989	2297.74
545.442	2317.69
545.895	2316.49
546.349	2321.04
546.802	2323.04
547.255	2320.34
547.708	2324.04
548.161	2350.89
548.614	2347.49
549.067	2364.34
549.52	2353.09
549.973	2317.94
550.426	2314.79
550.879	2281.64
551.332	2274.94
551.785	2313.14
552.238	2330.34
552.691	2332.29
553.144	2366.24
553.596	2410.09
554.049	2437.29
554.502	2476.64
554.955	2532.24
555.407	2558.19
555.86	2525.09
556.313	2493.34
556.765	2477.09
557.218	2435.64
557.67	2444.34
558.123	2407.09
558.576	2408.14
559.028	2397.54
559.48	2428.59
559.933	2406.59
560.385	2346.09
560.838	2248.94
561.29	2197.24
561.742	2187.34
562.195	2138.04
562.647	2129.34
563.099	2135.69
563.551	2130.74
564.004	2134.84
564.456	2123.79
564.908	2087.09
565.36	2033.64
565.812	1991.49
566.264	1982.04
566.716	1953.04
567.168	1926.84
567.62	1927.94
568.072	1908.34
568.524	1892.39
568.976	1890.24
569.428	1865.74
569.88	1857.94
570.332	1865.99
570.784	1876.04
571.235	1852.74
571.687	1871.74
572.139	1865.79
572.59	1894.39
573.042	1899.54
573.494	1897.54
573.945	1864.49
574.397	1840.44
574.849	1832.14
575.3	1839.99
575.752	1802.84
576.203	1799.19
576.655	1805.14
577.106	1790.34
577.557	1765.59
578.009	1771.29
578.46	1776.54
578.912	1754.94
579.363	1768.44
579.814	1759.39
580.265	1754.04
580.717	1760.94
581.168	1758.44
581.619	1763.69
582.07	1785.29
582.521	1769.39
582.972	1776.24
583.423	1801.49
583.875	1845.89
584.326	1933.34
584.777	2118.54
585.227	2320.59
585.678	2486.49
586.129	2542.64
586.58	2585.69
587.031	2598.84
587.482	2772.84
587.933	3261.39
588.384	3000.89
588.834	2451.14
589.285	2057.54
589.736	2005.74
590.186	2010.49
590.637	1997.19
591.088	1946.19
591.538	1923.24
591.989	1910.34
592.439	1891.54
592.89	1883.24
593.34	1888.39
593.791	1902.39
594.241	1913.04
594.692	1932.44
595.142	1908.24
595.593	1884.84
596.043	1882.14
596.493	1914.34
596.943	1955.54
597.394	1939.44
597.844	1905.04
598.294	1937.64
598.744	1991.59
599.195	2078.94
599.645	2203.84
600.095	2319.49
600.545	2424.39
600.995	2542.49
601.445	2625.49
601.895	2743.24
602.345	2842.49
602.795	2796.34
603.245	2667.49
603.695	2507.34
604.145	2365.29
604.594	2254.69
605.044	2140.29
605.494	2008.09
605.944	1911.94
606.393	1873.49
606.843	1847.19
607.293	1847.29
607.743	1847.84
608.192	1858.79
608.642	1859.14
609.091	1869.79
609.541	1858.69
609.99	1855.84
610.44	1814.14
610.889	1803.34
611.339	1773.79
611.788	1759.09
612.238	1777.79
612.687	1812.94
613.136	1838.59
613.586	1860.14
614.035	1869.74
614.484	1882.49
614.933	1910.49
615.383	1854.04
615.832	1784.99
616.281	1755.84
616.73	1710.49
617.179	1654.94
617.628	1622.64
618.077	1586.99
618.526	1564.74
618.975	1558.39
619.424	1527.04
619.873	1549.94
620.322	1532.99
620.771	1524.09
621.22	1502.94
621.669	1473.39
622.118	1459.34
622.567	1450.64
623.015	1423.29
623.464	1412.64
623.913	1397.24
624.361	1410.49
624.81	1401.49
625.259	1393.94
625.707	1370.19
626.156	1379.49
626.604	1396.39
627.053	1401.89
627.501	1393.19
627.95	1407.59
628.398	1431.44
628.847	1400.49
629.295	1406.79
629.744	1432.54
630.192	1463.59
630.64	1577.99
631.089	1747.49
631.537	1828.54
631.985	1825.84
632.433	1908.94
632.881	1896.54
633.33	2292.69
633.778	2499.79
634.226	1764.34
634.674	1623.14
635.122	1610.79
635.57	1635.84
636.018	1901.19
636.466	1544.54
636.914	1374.84
637.362	1360.54
637.81	1377.54
638.258	1425.34
638.705	1431.24
639.153	1472.99
639.601	1483.59
640.049	1514.19
640.497	1543.99
640.944	1589.84
641.392	1519.79
641.84	1446.14
642.287	1370.99
642.735	1366.04
643.182	1357.54
643.63	1350.44
644.078	1358.14
644.525	1379.79
644.973	1408.09
645.42	1428.29
645.867	1456.79
646.315	1477.64
646.762	1537.89
647.21	1580.84
647.657	1645.74
648.104	1713.64
648.551	1783.84
648.999	1930.44
649.446	2130.64
649.893	2383.79
650.34	2815.99
650.787	3510.79
651.234	4582.59
651.682	6372.24
652.129	9127.19
652.576	13050.69
653.023	15535.29
653.47	15538.49
653.917	15538.54
654.363	15538.44
654.81	15535.44
655.257	15536.09
655.704	15531.54
656.151	9902.89
656.598	6427.49
657.044	4556.84
657.491	3547.34
657.938	2864.89
658.385	2408.14
658.831	2127.39
659.278	1899.84
659.724	1749.74
660.171	1622.94
660.618	1497.64
661.064	1408.34
661.511	1366.59
661.957	1316.79
662.404	1288.39
662.85	1276.04
663.296	1261.99
663.743	1223.49
664.189	1219.24
664.635	1206.09
665.082	1193.59
665.528	1176.89
665.974	1143.04
666.42	1138.09
666.867	1154.14
667.313	1164.84
667.759	1223.64
668.205	1221.24
668.651	1229.74
669.097	1199.09
669.543	1302.39
669.989	1223.59
670.435	1071.39
670.881	1065.04
671.327	1102.74
671.773	1180.74
672.219	1271.99
672.665	1350.39
673.11	1390.29
673.556	1410.19
674.002	1432.24
674.448	1453.59
674.893	1229.79
675.339	1075.34
675.785	1003.24
676.23	948.39
676.676	917.34
677.122	897.54
677.567	867.94
678.013	835.89
678.458	837.54
678.904	837.14
679.349	822.94
679.794	828.24
680.24	819.89
680.685	812.14
681.131	818.19
681.576	812.19
682.021	825.44
682.466	825.04
682.912	829.54
683.357	883.24
683.802	948.14
684.247	1038.09
684.692	1106.64
685.137	1150.99
685.583	1170.09
686.028	1233.84
686.473	1163.44
686.918	1004.49
687.363	924.19
687.807	884.04
688.252	835.24
688.697	810.39
689.142	786.29
689.587	787.79
690.032	804.29
690.477	835.69
690.921	875.99
691.366	918.49
691.811	949.34
692.255	1033.14
692.7	1264.79
693.145	1832.94
693.589	2777.54
694.034	3292.59
694.478	3496.94
694.923	3200.69
695.367	4526.44
695.812	2754.64
696.256	1161.39
696.701	857.54
697.145	797.04
697.59	769.74
698.034	767.79
698.478	768.99
698.922	772.04
699.367	790.49
699.811	828.94
700.255	897.19
700.699	979.69
701.143	1056.14
701.588	1125.14
702.032	1152.79
702.476	1184.44
702.92	1261.24
703.364	1661.44
703.808	2548.04
704.252	3168.24
704.696	3338.19
705.14	3127.59
705.584	4281.44
706.027	2379.14
706.471	1202.84
706.915	896.74
707.359	802.89
707.803	755.49
708.246	728.44
708.69	725.34
709.134	723.39
709.577	705.24
710.021	732.14
710.465	725.54
710.908	718.89
711.352	749.99
711.795	824.79
712.239	890.04
712.682	918.09
713.126	903.54
713.569	1008.04
714.012	828.99
714.456	736.84
714.899	691.04
715.342	649.29
715.786	622.59
716.229	602.79
716.672	580.44
717.115	586.54
717.558	595.24
718.002	616.54
718.445	640.09
718.888	671.89
719.331	682.64
719.774	700.89
720.217	681.09
720.66	646.34
721.103	609.19
721.546	572.24
721.989	562.99
722.432	561.14
722.874	556.59
723.317	567.19
723.76	617.79
724.203	756.89
724.645	1006.54
725.088	1175.54
725.531	1149.34
725.974	1249.94
726.416	1123.64
726.859	705.39
727.301	578.89
727.744	548.79
728.187	548.94
728.629	564.39
729.071	591.69
729.514	613.44
729.956	640.14
730.399	646.94
730.841	650.79
731.283	623.09
731.726	604.89
732.168	618.69
732.61	655.44
733.053	703.89
733.495	779.24
733.937	865.89
734.379	1020.49
734.821	1304.09
735.263	2096.89
735.705	3756.84
736.148	5496.44
736.59	5454.09
737.032	5884.14
737.474	4848.84
737.916	1855.94
738.357	976.99
738.799	760.04
739.241	707.54
739.683	711.59
740.125	718.24
740.567	722.49
741.008	757.69
741.45	790.09
741.892	814.49
742.334	823.34
742.775	801.44
743.217	764.44
743.658	664.24
744.1	672.09
744.542	748.79
744.983	779.29
745.425	810.24
745.866	805.99
746.307	719.74
746.749	783.34
747.19	1129.89
747.632	2217.89
748.073	4105.24
748.514	5633.84
748.956	7473.19
749.397	8681.99
749.838	5992.94
750.279	5671.09
750.72	2931.84
751.162	1243.14
751.603	713.79
752.044	573.24
752.485	511.64
752.926	479.79
753.367	461.19
753.808	446.24
754.249	439.34
754.69	439.49
755.131	437.84
755.572	426.79
756.013	432.94
756.453	430.74
756.894	444.59
757.335	442.24
757.776	450.39
758.216	463.84
758.657	490.04
759.098	540.39
759.538	658.99
759.979	957.39
760.42	1946.49
760.86	5009.99
761.301	10257.09
761.741	11900.84
762.182	13573.69
762.622	8768.44
763.063	3170.69
763.503	1403.64
763.943	1067.69
764.384	1157.94
764.824	1099.24
765.264	1090.84
765.705	765.44
766.145	547.99
766.585	489.14
767.025	516.24
767.465	682.39
767.906	827.44
768.346	865.49
768.786	904.59
769.226	921.74
769.666	1593.09
770.106	3464.29
770.546	4836.74
770.986	5430.89
771.426	4079.79
771.866	1712.69
772.306	784.54
772.745	492.29
773.185	433.89
773.625	432.09
774.065	508.54
774.505	839.84
774.944	1693.49
775.384	2531.44
775.824	2864.14
776.263	2334.64
776.703	1145.14
777.142	581.99
777.582	397.29
778.021	356.24
778.461	334.39
778.9	330.39
779.34	303.94
779.779	290.24
780.219	280.89
780.658	270.99
781.097	270.39
781.537	260.34
781.976	264.99
782.415	264.14
782.855	265.44
783.294	260.64
783.733	257.99
784.172	263.34
784.611	255.84
785.05	263.09
785.489	265.19
785.928	274.09
786.367	287.24
786.806	305.09
787.245	324.59
787.684	333.09
788.123	328.49
788.562	312.04
789.001	295.74
789.44	292.49
789.879	291.64
790.317	293.79
790.756	317.89
791.195	362.04
791.634	490.99
792.072	888.39
792.511	2192.04
792.95	4012.44
793.388	4799.44
793.827	3101.34
794.265	1425.04
794.704	685.49
795.142	418.54
795.581	348.94
796.019	315.79
796.458	309.29
796.896	317.44
797.334	368.34
797.773	502.19
798.211	959.79
798.649	2003.39
799.087	3352.04
799.526	4695.84
799.964	4823.89
800.402	3284.79
800.84	1496.64
801.278	729.24
801.716	447.19
802.154	365.64
802.592	344.39
803.03	344.99
803.468	351.99
803.906	347.89
804.344	344.64
804.782	330.39
805.22	332.54
805.658	343.49
806.096	368.89
806.533	416.24
806.971	530.89
807.409	772.89
807.847	1551.69
808.284	3987.14
808.722	6941.44
809.16	9727.74
809.597	13167.64
810.035	15430.84
810.472	10452.24
810.91	4452.84
811.347	1986.59
811.785	934.39
812.222	590.64
812.66	455.34
813.097	387.79
813.535	333.89
813.972	305.84
814.409	280.94
814.846	269.29
815.284	250.49
815.721	257.74
816.158	279.34
816.595	358.44
817.032	430.69
817.47	406.14
817.907	312.64
818.344	276.94
818.781	262.44
819.218	311.94
819.655	447.34
820.092	571.74
820.529	529.69
820.966	437.49
821.403	324.69
821.839	284.09
822.276	297.59
822.713	340.84
823.15	330.49
823.587	362.64
824.023	648.59
824.46	1634.39
824.897	2826.14
825.333	2167.89
825.77	995.49
826.206	526.64
826.643	303.79
827.08	230.49
827.516	207.39
827.953	188.29
828.389	180.99
828.825	171.94
829.262	163.34
829.698	162.74
830.135	148.44
830.571	150.14
831.007	155.99
831.443	156.49
831.88	158.44
832.316	163.54
832.752	160.29
833.188	162.54
833.624	164.39
834.06	165.14
834.497	165.49
834.933	171.09
835.369	185.89
835.805	193.49
836.241	205.34
836.677	224.94
837.112	263.84
837.548	320.89
837.984	480.84
838.42	1031.79
838.856	2873.29
839.292	5611.29
839.727	4112.94
840.163	2796.74
840.599	4257.09
841.034	6488.84
841.47	3209.84
841.906	1569.99
842.341	894.54
842.777	781.79
843.212	915.89
843.648	548.49
844.083	342.59
844.519	236.19
844.954	189.99
845.39	158.29
845.825	154.94
846.261	142.59
846.696	139.74
847.131	139.74
847.566	133.64
848.002	136.49
848.437	150.44
848.872	155.34
849.307	199.19
849.742	363.34
850.177	941.09
850.613	1994.29
851.048	1402.94
851.483	645.64
851.918	364.49
852.353	210.99
852.788	169.04
853.223	138.74
853.657	125.84
854.092	118.74
854.527	113.29
854.962	121.34
855.397	126.29
855.832	108.89
856.266	106.34
856.701	104.94
857.136	105.39
857.57	121.99
858.005	142.64
858.44	124.19
858.874	119.94
859.309	123.44
859.743	124.09
860.178	121.39
860.612	127.49
861.047	163.59
861.481	210.09
861.915	152.14
862.35	118.99
862.784	97.19
863.218	93.09
863.653	102.94
864.087	127.64
864.521	165.44
864.955	277.14
865.39	456.39
865.824	332.09
866.258	384.49
866.692	547.09
867.126	398.34
867.56	218.19
867.994	151.74
868.428	128.99
868.862	156.59
869.296	141.04
869.73	168.79
870.164	149.54
870.598	133.89
871.031	97.54
871.465	92.04
871.899	78.89
872.333	67.64
872.766	72.69
873.2	75.94
873.634	79.59
874.067	77.69
874.501	76.64
874.935	81.04
875.368	81.54
875.802	73.49
876.235	69.69
876.669	66.19
877.102	60.89
877.535	61.54
877.969	60.44
878.402	58.59
878.836	59.59
879.269	55.44
879.702	57.84
880.135	59.64
880.569	72.59
881.002	57.29
881.435	60.89
881.868	60.29
882.301	53.59
882.734	54.54
883.167	56.99
883.601	53.64
884.034	50.99
884.467	50.74
884.899	51.04
885.332	44.19
885.765	52.64
886.198	41.69
886.631	46.69
887.064	47.89
887.497	46.14
887.929	49.19
888.362	45.84
888.795	44.39
889.228	53.99
889.66	46.44
890.093	45.64
890.526	45.94
890.958	48.19
891.391	49.84
891.823	47.79
892.256	44.44
892.688	47.29
893.121	39.79
893.553	47.24
893.985	39.89
894.418	43.74
894.85	47.34
895.282	43.74
895.715	43.19
896.147	39.79
896.579	38.14
897.011	45.54
897.444	42.29
897.876	39.64
898.308	40.34
898.74	40.29
899.172	45.34
899.604	44.09
900.036	42.49
900.468	39.09
900.9	45.44
901.332	52.19
901.764	57.04
902.196	56.04
902.628	51.74
903.06	73.04
903.491	75.99
903.923	62.74
904.355	63.29
904.787	78.29
905.218	59.09
905.65	55.04
906.082	51.49
906.513	52.74
906.945	53.29
907.376	52.44
907.808	62.29
908.239	64.54
908.671	67.34
909.102	69.04
909.534	96.19
909.965	185.39
910.397	465.99
910.828	1323.44
911.259	798.09
911.691	434.89
912.122	249.99
912.553	128.19
912.984	74.09
913.415	63.44
913.847	56.14
914.278	54.14
914.709	47.59
915.14	45.89
915.571	48.79
916.002	43.99
916.433	45.99
916.864	40.09
917.295	44.69
917.726	51.84
918.157	65.79
918.587	62.09
919.018	61.09
919.449	56.54
919.88	65.64
920.311	100.39
920.741	277.29
921.172	489.74
921.603	242.99
922.033	156.94
922.464	96.84
922.895	68.19
923.325	48.54
923.756	47.99
924.186	69.44
924.617	113.19
925.047	169.39
925.478	156.44
925.908	111.84
926.338	79.34
926.769	58.09
927.199	51.64
927.629	41.19
928.06	42.19
928.49	41.09
928.92	36.04
929.35	33.54
929.78	24.59
930.21	24.29
930.641	23.49
931.071	26.44
931.501	20.54
931.931	20.34
932.361	22.39
932.791	20.14
933.221	30.24
933.651	38.94
934.08	64.79
934.51	39.84
934.94	33.69
935.37	31.44
935.8	26.64
936.229	18.89
936.659	19.04
937.089	32.79
937.519	48.59
937.948	63.44
938.378	37.44
938.807	24.54
939.237	19.99
939.666	26.44
940.096	13.74
940.525	10.69
940.955	13.29
941.384	12.09
941.814	10.54
942.243	13.39
942.672	8.69
943.102	9.84
943.531	6.04
943.96	10.84
944.39	6.94
944.819	8.59
945.248	6.79
945.677	9.84
946.106	6.94
946.535	10.69
946.964	10.89
947.393	10.24
947.822	9.04
948.251	15.99
948.68	14.94
949.109	8.89
949.538	5.04
949.967	8.39
950.396	4.94
950.825	12.69
951.254	8.64
951.682	8.39
952.111	4.94
952.54	9.04
952.969	9.29
953.397	5.94
953.826	9.09
954.254	13.24
954.683	14.19
955.112	11.89
955.54	2.59
955.969	9.24
956.397	8.39
956.826	6.89
957.254	8.99
957.682	6.19
958.111	8.64
958.539	10.24
958.967	10.19
959.396	13.39
959.824	10.74
960.252	9.39
960.68	7.89
961.109	7.99
961.537	12.94
961.965	5.39
962.393	6.84
962.821	8.49
963.249	9.59
963.677	16.14
964.105	84.84
964.533	143.79
964.961	71.09
965.389	43.94
965.817	21.54
966.245	11.54
966.672	10.19
967.1	9.44
967.528	2.49
967.956	5.99
968.383	9.89
968.811	5.19
969.239	8.79
969.666	9.99
970.094	2.04
970.522	1.29
970.949	6.19
971.377	-1.81
971.804	2.94
972.232	6.74
972.659	5.74
973.087	6.99
973.514	8.59
973.941	4.34
974.369	-0.01
974.796	4.99
975.223	5.49
975.651	10.09
976.078	9.49
976.505	11.19
976.932	33.24
977.359	41.19
977.786	23.24
978.214	19.09
978.641	7.64
979.068	7.34
979.495	6.14
979.922	7.54
980.349	8.74
980.776	3.64
981.202	3.89
981.629	11.29
982.056	5.19
982.483	-0.66
982.91	7.84
983.337	1.99
983.763	4.59
984.19	7.79
984.617	4.19
985.043	7.14
985.47	7.79
985.897	4.34
986.323	10.09
986.75	3.64
987.176	1.89
987.603	2.29
988.029	3.69
988.456	4.94
988.882	2.79
989.308	-2.46
989.735	-2.06
990.161	3.49
990.587	4.39
991.014	2.04
991.44	4.34
991.866	0.99
992.292	4.34
992.719	4.34
993.145	4.64
993.571	4.49
993.997	7.09
994.423	6.49
994.849	-3.46
995.275	6.59
995.701	2.29
996.127	0.44
996.553	-1.11
996.979	0.04
997.405	3.94
997.83	3.64
998.256	4.74
998.682	1.64
999.108	5.09
999.534	0.64
999.959	0.69
1000.385	4.74
1000.811	-4.96
1001.236	-0.31
1001.662	-0.81
1002.087	7.24
1002.513	1.64
1002.938	-2.11
1003.364	1.24
1003.789	5.59
1004.215	-2.46
1004.64	5.74
1005.066	5.64
1005.491	7.19
1005.916	6.09
1006.342	2.39
1006.767	5.44
1007.192	3.29
1007.617	3.04
1008.042	5.54
1008.468	-1.71
1008.893	2.24
1009.318	8.39
1009.743	12.54
1010.168	26.04
1010.593	25.69
1011.018	11.39
1011.443	10.64
1011.868	7.74
1012.293	7.24
1012.718	2.49
1013.143	0.29
1013.567	3.99
1013.992	4.09
1014.417	1.74
1014.842	-2.91
1015.267	-0.16
1015.691	3.59
1016.116	2.09
1016.541	7.49
1016.965	2.29
1017.39	2.64
1017.814	-0.41
1018.239	4.24
1018.663	-4.11
1019.088	-0.81
1019.512	0.64
1019.937	-1.21
1020.361	0.04
1020.785	-3.11
1021.21	-2.36
1021.634	1.59
1022.058	4.49
1022.483	-4.26
1022.907	-2.56
1023.331	-3.66
1023.755	-3.11
1024.179	-2.26
1024.604	0.49
1025.028	2.19
1025.452	5.19
1025.876	2.74
1026.3	0.39
1026.724	-1.71
1027.148	4.74
1027.572	3.64
1027.996	5.04
1028.42	0.49
1028.843	-2.16
1029.267	-0.56
1029.691	5.59
1030.115	-1.41
1030.539	0.94
1030.962	-3.11
1031.386	2.19
1031.81	-1.71
1032.233	2.09
1032.657	-3.61
1033.08	-1.46
1033.504	0.54
1033.927	3.39
1034.351	-2.56
1034.774	0.59
1035.198	2.94
1035.621	-0.81
1036.045	-1.56
1036.468	6.34
1036.891	3.14
1037.315	3.79
1037.738	0.24
1038.161	1.19
1038.584	3.84
1039.008	0.44
1039.431	-0.56
1039.854	-2.46
1040.277	-0.01
1040.7	0.39
1041.123	-0.11
1041.546	-0.06
1041.969	-1.61
1042.392	6.49
1042.815	-7.36
1043.238	-0.31
1043.661	0.49
1044.084	-1.46
1044.507	-3.11
1044.93	-0.86
1045.352	-1.81
1045.775	1.74
1046.198	1.69
1046.621	5.29
1047.043	-0.16
1047.466	-0.26
1047.889	-0.21
1048.311	4.59
1048.734	-2.16
1049.156	1.29
1049.579	-0.51
1050.001	0.14
1050.424	-0.31
1050.846	-4.16
1051.269	-4.86
1051.691	-6.31
1052.113	-0.21
1052.536	-2.31
1052.958	-6.36
1053.38	4.19
1053.802	2.04
1054.225	-0.61
1054.647	-1.36
1055.069	-4.31
1055.491	3.34
1055.913	1.74
1056.335	-9.21
1056.757	-4.96
1057.179	0.64
1057.601	-3.56
1058.023	3.54
1058.445	-5.16
1058.867	3.44
1059.289	0.54
1059.711	-3.31
1060.133	1.39
1060.555	-2.41
1060.976	1.79
1061.398	-0.56
1061.82	3.39
1062.241	-2.01
1062.663	-3.11
1063.085	-4.91
1063.506	-8.71
1063.928	-3.41
1064.35	-0.86
1064.771	-1.51
1065.193	1.54
1065.614	-6.86
1066.035	5.89
1066.457	0.64
1066.878	-1.86
1067.3	-2.66
1067.721	1.04
1068.142	2.54
1068.564	3.94
1068.985	1.74
1069.406	-5.51
1069.827	3.29
1070.248	-3.11
1070.67	-2.96
1071.091	-10.76
1071.512	-2.11
1071.933	-1.96
1072.354	-7.51
1072.775	-1.56
1073.196	-0.16
1073.617	-7.36
1074.038	-1.46
1074.459	-0.81
1074.88	-0.81
1075.3	1.24
1075.721	5.79
1076.142	-2.56
1076.563	-4.61
1076.983	-4.96
1077.404	-5.66
1077.825	-1.31
1078.246	-4.81
1078.666	-1.16
1079.087	-1.26
1079.507	-0.06
1079.928	-0.21
1080.348	1.99
1080.769	-1.21
1081.189	-3.11
1081.61	-8.16
1082.03	5.14
1082.451	0.94
1082.871	-6.71
1083.291	-0.66
1083.711	-1.96
1084.132	-1.96
1084.552	-5.56
1084.972	-2.46
1085.392	-3.26
1085.813	-1.46
1086.233	-4.26
1086.653	0.49
1087.073	-2.41
1087.493	-4.26
1087.913	-5.61
1088.333	-6.21
1088.753	-2.06
1089.173	1.39
1089.593	1.99
1090.013	-1.86
1090.433	-4.36
1090.852	2.39
1091.272	-5.36
1091.692	1.09
1092.112	-4.41
1092.531	-2.91
1092.951	-7.81
1093.371	-3.86
1093.79	-4.16
1094.21	-0.31
1094.63	-0.06
1095.049	-3.66
1095.469	-9.56
1095.888	-0.51
1096.308	-2.91
1096.727	-1.16
1097.146	-3.41
1097.566	-1.31
1097.985	-0.16
1098.405	-1.81
1098.824	-0.66
1099.243	-3.31
1099.662	-2.06
1100.082	-2.91
1100.501	-1.21
1100.92	-3.86
1101.339	-1.41
1101.758	0.49
