Data from MSPlasma+Separation6_Subt14_10-15-01-814.txt Node
Date: Fri Jul 21 10:15:01 EDT 2017
User: Ender
Spectrometer: HR+D1039
Trigger mode: 0
Integration Time (sec): 6.430000E-3
Scans to average: 20
Electric dark correction enabled: true
Nonlinearity correction enabled: false
Boxcar width: 0
XAxis mode: Wavelengths
Number of Pixels in Spectrum: 2048
>>>>>Begin Spectral Data<<<<<
187.836	2.65
188.309	2.65
188.782	2.65
189.255	0
189.728	-1.4
190.201	-1.3
190.674	1.25
191.147	-3.05
191.619	-1.75
192.092	-1.45
192.565	0.6
193.038	3
193.511	5.8
193.984	-1.25
194.456	2.3
194.929	-5.65
195.402	0.25
195.874	0
196.347	2.05
196.82	4.6
197.292	-1.35
197.765	-1.3
198.237	-2.1
198.71	-1.45
199.182	-1.25
199.655	3.75
200.127	7.3
200.6	0.2
201.072	5.75
201.544	0.2
202.017	-3.05
202.489	5.45
202.961	-2.4
203.433	-2.3
203.906	1.65
204.378	4.4
204.85	1.35
205.322	-0.3
205.794	10.5
206.266	-1.35
206.739	6.2
207.211	2.95
207.683	2.7
208.155	3.4
208.627	1.6
209.099	5.5
209.57	2.25
210.042	5.3
210.514	5.45
210.986	12.7
211.458	23.7
211.93	11.35
212.402	3.7
212.873	0.1
213.345	-1.3
213.817	5.25
214.288	0.85
214.76	2.5
215.232	-0.25
215.703	0.9
216.175	3.15
216.646	6
217.118	2.1
217.589	-3.1
218.061	2.7
218.532	1.1
219.004	1.35
219.475	13.6
219.946	27.05
220.418	32.45
220.889	20.1
221.36	12.3
221.832	10.7
222.303	9.35
222.774	5
223.245	1.3
223.717	4.2
224.188	2.5
224.659	5.25
225.13	1.4
225.601	1.8
226.072	2.6
226.543	10.15
227.014	10.3
227.485	9.55
227.956	6.55
228.427	15.25
228.898	15.85
229.369	12.35
229.839	8.6
230.31	15.1
230.781	14
231.252	18.95
231.722	22.9
232.193	32.25
232.664	36.15
233.135	47.55
233.605	56.15
234.076	39.8
234.546	37.3
235.017	41.95
235.487	44.05
235.958	43.15
236.428	61.1
236.899	94.5
237.369	109.3
237.84	79.85
238.31	95.1
238.78	95.2
239.251	99.45
239.721	97.65
240.191	75.3
240.662	49.3
241.132	33.95
241.602	47.55
242.072	67.5
242.542	81.9
243.013	55.4
243.483	55
243.953	36.65
244.423	42.65
244.893	46.8
245.363	57.15
245.833	55
246.303	52.5
246.773	70.5
247.243	73.8
247.712	84.85
248.182	99.1
248.652	102.1
249.122	149
249.592	285.15
250.061	428.6
250.531	683.75
251.001	518.05
251.471	440.6
251.94	325.7
252.41	175.95
252.879	127.9
253.349	101.45
253.818	81.2
254.288	68.8
254.757	72.55
255.227	93.55
255.696	79.2
256.166	65.65
256.635	74.4
257.105	93
257.574	118.65
258.043	123.35
258.513	213.9
258.982	267.7
259.451	189.15
259.92	188.95
260.389	180.8
260.859	129.85
261.328	150.85
261.797	218.1
262.266	188.8
262.735	91.8
263.204	59.8
263.673	58.3
264.142	44.25
264.611	50.6
265.08	51.35
265.549	56.85
266.018	51.1
266.487	51.8
266.955	50.8
267.424	57.05
267.893	62.7
268.362	57.3
268.83	56.95
269.299	58.35
269.768	72.45
270.236	81.35
270.705	87.65
271.174	84
271.642	93.3
272.111	103.4
272.579	171.15
273.048	263.75
273.516	333.9
273.985	336.65
274.453	258.85
274.922	160.05
275.39	101.6
275.858	98.1
276.327	78.1
276.795	79.8
277.263	88.2
277.731	118.95
278.2	234
278.668	299.25
279.136	233.95
279.604	150.9
280.072	98.4
280.54	83.65
281.008	81.45
281.477	86.35
281.945	95.4
282.413	92.1
282.881	88.4
283.348	93.45
283.816	100.2
284.284	102.55
284.752	97.35
285.22	100.3
285.688	110.5
286.156	183.7
286.623	476.8
287.091	923.8
287.559	485.7
288.026	191.1
288.494	122.65
288.962	103.65
289.429	100.55
289.897	92.55
290.364	86.6
290.832	91.45
291.3	91.95
291.767	98.1
292.234	97.75
292.702	104.15
293.169	110.25
293.637	115.55
294.104	109.15
294.571	110.9
295.039	106.5
295.506	101.65
295.973	114.4
296.44	109.7
296.908	114.9
297.375	133.15
297.842	133.7
298.309	116.9
298.776	112.15
299.243	121.5
299.71	116.55
300.177	111.9
300.644	124.35
301.111	141.15
301.578	121.55
302.045	118.2
302.512	113.15
302.979	121.15
303.446	131.7
303.913	132.2
304.379	140.3
304.846	149.6
305.313	169.15
305.78	196.6
306.246	235.7
306.713	249.65
307.18	219.05
307.646	242.2
308.113	209.9
308.579	172
309.046	166.2
309.512	169.6
309.979	157
310.445	147.55
310.912	153.7
311.378	148.95
311.845	152.1
312.311	145.05
312.777	143.45
313.244	154.35
313.71	159.3
314.176	180.8
314.642	201.6
315.109	230.55
315.575	219.5
316.041	200.8
316.507	191.5
316.973	211.65
317.439	208.75
317.905	224.45
318.371	224.5
318.837	209.2
319.303	217.05
319.769	204.6
320.235	223.45
320.701	260.2
321.167	277.2
321.633	325.65
322.099	445.3
322.564	604
323.03	468.3
323.496	328.9
323.962	319.4
324.427	296.65
324.893	262.3
325.359	254.3
325.824	219.95
326.29	233.35
326.755	235.3
327.221	235.5
327.686	247.4
328.152	229.55
328.617	217.9
329.083	217.35
329.548	232.6
330.014	237.85
330.479	254.45
330.944	301.1
331.41	340.25
331.875	328
332.34	333.55
332.805	383.25
333.271	487.7
333.736	641.65
334.201	572.7
334.666	426.85
335.131	493.6
335.596	393.05
336.061	413.1
336.526	421.5
336.991	369.2
337.456	397.25
337.921	312.8
338.386	261.9
338.851	242.05
339.316	224.65
339.781	220.5
340.246	223.6
340.711	227.25
341.175	230.9
341.64	231.1
342.105	235.5
342.569	252.1
343.034	265.2
343.499	273.65
343.963	268.05
344.428	261.45
344.893	266.45
345.357	274.75
345.822	270.6
346.286	278.35
346.751	285.15
347.215	286.55
347.679	291.1
348.144	312.5
348.608	307.8
349.073	323.25
349.537	354.8
350.001	350.55
350.465	328.15
350.93	317.35
351.394	313.6
351.858	314.05
352.322	324.25
352.786	332.95
353.25	323.65
353.715	324.1
354.179	344.8
354.643	357.9
355.107	373.25
355.571	383.3
356.035	391.25
356.498	382.35
356.962	404.15
357.426	399.85
357.89	366.95
358.354	349.7
358.818	342.15
359.281	349.3
359.745	363.2
360.209	356.15
360.673	358.7
361.136	361.75
361.6	364.85
362.064	390.4
362.527	396.45
362.991	388.9
363.454	393.8
363.918	400.85
364.381	392.2
364.845	388.45
365.308	381.2
365.772	382.5
366.235	386.5
366.698	400.75
367.162	480.25
367.625	530.15
368.088	439.2
368.552	404
369.015	406.8
369.478	445.15
369.941	447.85
370.404	458.25
370.867	476.6
371.331	477.4
371.794	487.1
372.257	536.9
372.72	561.8
373.183	540.1
373.646	547.05
374.109	551.4
374.572	631
375.035	731.85
375.497	568.8
375.96	465.5
376.423	441.1
376.886	451.55
377.349	452.25
377.811	455.55
378.274	466.65
378.737	473.55
379.199	484.75
379.662	494.05
380.125	527.85
380.587	576.55
381.05	607.85
381.512	606.15
381.975	593.25
382.437	588.85
382.9	582.95
383.362	593.05
383.825	628.05
384.287	776.3
384.75	856.1
385.212	766.5
385.674	644.05
386.136	585.95
386.599	579.35
387.061	601.5
387.523	634.9
387.985	632.8
388.447	661.5
388.91	724.55
389.372	858.6
389.834	821.05
390.296	686.15
390.758	702.95
391.22	718.7
391.682	873.15
392.144	1330.85
392.606	1242.25
393.068	756.7
393.529	687.4
393.991	677.7
394.453	663
394.915	691.5
395.377	832.8
395.838	1011.25
396.3	732.8
396.762	580.5
397.224	550.1
397.685	547.6
398.147	550.6
398.608	559.6
399.07	569.2
399.531	548.7
399.993	563.25
400.454	566.65
400.916	569.15
401.377	585.3
401.839	585.5
402.3	591.1
402.762	614.8
403.223	681.25
403.684	688.95
404.145	634.25
404.607	622.8
405.068	621.2
405.529	639.55
405.99	646.95
406.451	649.25
406.913	642.15
407.374	653.8
407.835	655.1
408.296	675.45
408.757	674.5
409.218	696.6
409.679	703.9
410.14	711.15
410.601	744.2
411.062	774.35
411.522	883.95
411.983	967.65
412.444	833.5
412.905	742.9
413.366	748.6
413.826	770.3
414.287	867.45
414.748	1023
415.208	1043.7
415.669	875.9
416.13	802.1
416.59	782.05
417.051	807.4
417.511	842.5
417.972	906.15
418.432	968.6
418.893	1081.1
419.353	1024
419.814	797.1
420.274	717.1
420.734	711.3
421.195	757.05
421.655	787.2
422.115	761.5
422.576	733.55
423.036	743.15
423.496	773.05
423.956	807.75
424.416	859.8
424.876	976.15
425.336	972.95
425.797	961.85
426.257	965.85
426.717	896.1
427.177	841.45
427.637	876.9
428.097	910.7
428.556	945.6
429.016	1026.5
429.476	1028.4
429.936	989.2
430.396	956.6
430.856	972.65
431.315	997.9
431.775	1076.4
432.235	1137.25
432.694	1151.4
433.154	1089
433.614	1051
434.073	1015.1
434.533	923.35
434.993	892.25
435.452	902.55
435.912	890.15
436.371	887.35
436.83	884.25
437.29	893.6
437.749	859.7
438.209	842.2
438.668	857.75
439.127	859.7
439.587	844.65
440.046	804.9
440.505	827.75
440.964	829.15
441.424	849.6
441.883	866.55
442.342	822.8
442.801	790.55
443.26	819
443.719	807.25
444.178	801.45
444.637	804.9
445.096	803.55
445.555	827.55
446.014	820.45
446.473	805.1
446.932	799.7
447.391	816.2
447.849	831.55
448.308	822.9
448.767	839.25
449.226	852.9
449.685	868.45
450.143	902.3
450.602	910.45
451.061	866.8
451.519	880.35
451.978	897.7
452.436	923.7
452.895	884.05
453.353	865.25
453.812	867.9
454.27	857
454.729	833.15
455.187	840.85
455.646	848.5
456.104	862.45
456.562	848
457.021	845.95
457.479	815.3
457.937	837.95
458.395	854.15
458.854	842.6
459.312	831.75
459.77	853.85
460.228	859.6
460.686	872.1
461.144	868.25
461.602	857.55
462.06	867.75
462.518	885.05
462.976	882.85
463.434	891
463.892	906.8
464.35	914.15
464.808	934.4
465.266	934.15
465.724	957.8
466.181	949.3
466.639	955.25
467.097	988.85
467.555	1022.85
468.012	1011.05
468.47	1026.15
468.928	1052.2
469.385	1091.25
469.843	1090.35
470.3	1087.25
470.758	1121.2
471.215	1146.15
471.673	1163.05
472.13	1195.6
472.588	1225.25
473.045	1217.9
473.503	1237.9
473.96	1294.15
474.417	1303.4
474.875	1370.55
475.332	1421.55
475.789	1441.8
476.246	1475.9
476.704	1536.8
477.161	1586.3
477.618	1625.15
478.075	1704.4
478.532	1845.35
478.989	1974.45
479.446	2191.1
479.903	2303.3
480.36	2525.35
480.817	2675.8
481.274	2852.35
481.731	3125.4
482.188	3363.15
482.645	3619
483.102	3818.1
483.558	4108.25
484.015	4293.1
484.472	4297.25
484.929	4180.75
485.385	4003.65
485.842	3891.4
486.299	3711.6
486.755	3373.1
487.212	3019.85
487.668	2731.65
488.125	2541.2
488.582	2356.75
489.038	2261.45
489.494	2186.55
489.951	2129.45
490.407	2082.65
490.864	2056.65
491.32	2009.5
491.776	1987.3
492.233	1966.1
492.689	1965.7
493.145	1923.2
493.602	1901.8
494.058	1937.6
494.514	1968.75
494.97	1979.35
495.426	2011.8
495.882	2010.2
496.338	2014.65
496.794	2084.5
497.251	2095.75
497.707	2094.55
498.163	2108.85
498.618	2099.65
499.074	2113.2
499.53	2159.6
499.986	2196.8
500.442	2216.1
500.898	2221.1
501.354	2255.7
501.809	2265.7
502.265	2287.4
502.721	2405.5
503.177	2460.5
503.632	2347.2
504.088	2362.4
504.543	2569.3
504.999	2404.25
505.455	2152.2
505.91	2063.8
506.366	2045.6
506.821	2032.15
507.277	2016.25
507.732	2029.55
508.187	2018.75
508.643	2044.4
509.098	2039.9
509.553	2062.8
510.009	2089.75
510.464	2125.3
510.919	2149.4
511.375	2178.1
511.83	2190.8
512.285	2249.75
512.74	2298.95
513.195	2310.5
513.65	2370.05
514.105	2413.9
514.56	2409
515.015	2450.95
515.47	2483.15
515.925	2477.4
516.38	2467.05
516.835	2454.5
517.29	2446.15
517.745	2465.65
518.2	2422.85
518.655	2350.25
519.109	2317.55
519.564	2288.4
520.019	2277.05
520.474	2249.25
520.928	2236.05
521.383	2229.3
521.838	2215.1
522.292	2201.45
522.747	2176.55
523.201	2157.9
523.656	2140.95
524.11	2133.4
524.565	2126.3
525.019	2138.7
525.474	2151.25
525.928	2136.6
526.382	2112.7
526.837	2102.15
527.291	2128.35
527.745	2099.25
528.2	2103.8
528.654	2069.4
529.108	2075.7
529.562	2076.95
530.016	2080.8
530.47	2085.5
530.925	2081.35
531.379	2101.25
531.833	2124.5
532.287	2103.3
532.741	2085.25
533.195	2083.7
533.649	2091.85
534.103	2102
534.556	2079.95
535.01	2107.25
535.464	2096.2
535.918	2122.85
536.372	2118.5
536.826	2094.65
537.279	2085.2
537.733	2097.3
538.187	2109.55
538.64	2098.65
539.094	2117.65
539.548	2150.8
540.001	2141.9
540.455	2153.75
540.908	2162.65
541.362	2189.85
541.815	2202.55
542.269	2236.45
542.722	2232.7
543.175	2259.15
543.629	2278.65
544.082	2295.3
544.536	2315.6
544.989	2327.3
545.442	2328.65
545.895	2320.6
546.349	2327.2
546.802	2341
547.255	2329.5
547.708	2344.5
548.161	2369
548.614	2365.85
549.067	2385.45
549.52	2360.25
549.973	2358.75
550.426	2339.85
550.879	2307.75
551.332	2312.65
551.785	2330.9
552.238	2348.6
552.691	2359.8
553.144	2398.65
553.596	2429.55
554.049	2456.15
554.502	2494.65
554.955	2562.65
555.407	2585.15
555.86	2542.1
556.313	2525.2
556.765	2513.65
557.218	2469.5
557.67	2480.25
558.123	2447.7
558.576	2424.4
559.028	2417.4
559.48	2448.85
559.933	2433.5
560.385	2373.6
560.838	2288.95
561.29	2216.75
561.742	2210.8
562.195	2156.55
562.647	2147.5
563.099	2139.85
563.551	2126.25
564.004	2157.85
564.456	2133
564.908	2107.6
565.36	2051.45
565.812	2011.15
566.264	1995.95
566.716	1963.15
567.168	1933.15
567.62	1945.25
568.072	1925.45
568.524	1901.8
568.976	1892.4
569.428	1869.3
569.88	1875.3
570.332	1884.3
570.784	1884.05
571.235	1874.65
571.687	1887.55
572.139	1894.2
572.59	1899.8
573.042	1915.75
573.494	1913.15
573.945	1881.1
574.397	1849.95
574.849	1842.95
575.3	1853.65
575.752	1823.05
576.203	1810.05
576.655	1822.85
577.106	1792.4
577.557	1788.25
578.009	1765.55
578.46	1782.25
578.912	1762.25
579.363	1776.15
579.814	1767.85
580.265	1781.45
580.717	1777.1
581.168	1765.5
581.619	1780.45
582.07	1793.15
582.521	1775.6
582.972	1786.1
583.423	1809.05
583.875	1847
584.326	1934.8
584.777	2099.65
585.227	2298.4
585.678	2432.3
586.129	2475
586.58	2529
587.031	2554.6
587.482	2712.15
587.933	3151.85
588.384	2909.75
588.834	2411.3
589.285	2075.75
589.736	2028.1
590.186	2026.4
590.637	2011.45
591.088	1962.7
591.538	1932.45
591.989	1922.05
592.439	1910.25
592.89	1886.55
593.34	1896.5
593.791	1904.7
594.241	1910.65
594.692	1939.75
595.142	1913
595.593	1885.85
596.043	1889.3
596.493	1916.55
596.943	1959.35
597.394	1941.05
597.844	1910.45
598.294	1942.75
598.744	2005.2
599.195	2107.5
599.645	2234.75
600.095	2340.5
600.545	2445.65
600.995	2558.2
601.445	2642.35
601.895	2773.3
602.345	2864.65
602.795	2813.7
603.245	2693.8
603.695	2530.7
604.145	2398.8
604.594	2282.75
605.044	2158.75
605.494	2029.35
605.944	1919.45
606.393	1888.9
606.843	1855.75
607.293	1864.85
607.743	1859.4
608.192	1872.75
608.642	1870.4
609.091	1882.2
609.541	1874.6
609.99	1874.85
610.44	1831.85
610.889	1813
611.339	1794.65
611.788	1775
612.238	1799.95
612.687	1810.05
613.136	1841.95
613.586	1867.9
614.035	1867.4
614.484	1879.65
614.933	1883.05
615.383	1842.05
615.832	1788.1
616.281	1749.65
616.73	1709.95
617.179	1673.15
617.628	1634.75
618.077	1604.7
618.526	1576.9
618.975	1572.4
619.424	1535.2
619.873	1538.6
620.322	1525.4
620.771	1530.2
621.22	1506.4
621.669	1478.5
622.118	1463.85
622.567	1451.15
623.015	1433.05
623.464	1424.75
623.913	1411.8
624.361	1404.55
624.81	1402
625.259	1391.5
625.707	1378.45
626.156	1391.6
626.604	1402
627.053	1415.7
627.501	1414.95
627.95	1426.7
628.398	1431.65
628.847	1416.45
629.295	1421.65
629.744	1441.65
630.192	1470.55
630.64	1568.1
631.089	1714.75
631.537	1790.7
631.985	1783.65
632.433	1874.4
632.881	1847.2
633.33	2199.75
633.778	2396.45
634.226	1727.1
634.674	1597.75
635.122	1592.65
635.57	1620.55
636.018	1858.55
636.466	1531.9
636.914	1377.15
637.362	1374.65
637.81	1387.1
638.258	1423.1
638.705	1443
639.153	1490.2
639.601	1501.95
640.049	1516.85
640.497	1564.05
640.944	1605.05
641.392	1525.55
641.84	1446.45
642.287	1382
642.735	1368.85
643.182	1347.3
643.63	1352
644.078	1345.85
644.525	1374.8
644.973	1407.6
645.42	1419.95
645.867	1448.9
646.315	1465.2
646.762	1525.85
647.21	1567.25
647.657	1645.4
648.104	1703.05
648.551	1750.9
648.999	1904.05
649.446	2087.8
649.893	2343.7
650.34	2742.1
650.787	3386.9
651.234	4408.15
651.682	6112.15
652.129	8708.05
652.576	12428.75
653.023	15513.35
653.47	15539.15
653.917	15539.2
654.363	15539.1
654.81	15536.1
655.257	15536.75
655.704	15396.45
656.151	9439.5
656.598	6145.1
657.044	4375.55
657.491	3426.4
657.938	2785.15
658.385	2351.75
658.831	2085.15
659.278	1870.5
659.724	1721.3
660.171	1601.85
660.618	1483.15
661.064	1396.45
661.511	1360.1
661.957	1314.35
662.404	1279.85
662.85	1271.45
663.296	1264.65
663.743	1233.85
664.189	1215.3
664.635	1221.05
665.082	1187.8
665.528	1178.2
665.974	1147.1
666.42	1136.35
666.867	1154.25
667.313	1147.9
667.759	1204.6
668.205	1200.1
668.651	1207.3
669.097	1172.65
669.543	1275.55
669.989	1211.95
670.435	1075.85
670.881	1067.75
671.327	1118.25
671.773	1197.75
672.219	1274.8
672.665	1353.35
673.11	1403.1
673.556	1410.85
674.002	1444.1
674.448	1463.3
674.893	1239.35
675.339	1084.8
675.785	1008.25
676.23	964.5
676.676	930.25
677.122	902.8
677.567	870.1
678.013	842.75
678.458	841.95
678.904	845.4
679.349	829.3
679.794	820.25
680.24	817.3
680.685	817.65
681.131	817.25
681.576	825.65
682.021	820.15
682.466	827.25
682.912	842.4
683.357	891.35
683.802	961.4
684.247	1051.95
684.692	1110.1
685.137	1167.35
685.583	1177.6
686.028	1243.85
686.473	1168.7
686.918	1022.6
687.363	936.6
687.807	892.15
688.252	847.55
688.697	813.75
689.142	791.8
689.587	791.75
690.032	805.2
690.477	839.4
690.921	883.95
691.366	929.85
691.811	970.8
692.255	1046.35
692.7	1282.6
693.145	1849.55
693.589	2824.85
694.034	3346.55
694.478	3534.7
694.923	3226.25
695.367	4567.45
695.812	2783.9
696.256	1181.45
696.701	871.75
697.145	801.65
697.59	777.8
698.034	768.55
698.478	766.9
698.922	776.5
699.367	794.35
699.811	827.75
700.255	896.25
700.699	986.1
701.143	1065.85
701.588	1125.55
702.032	1171.5
702.476	1203.6
702.92	1279.95
703.364	1691.1
703.808	2583.4
704.252	3210.2
704.696	3357.05
705.14	3160.5
705.584	4338.7
706.027	2407.55
706.471	1217.05
706.915	906.55
707.359	806.95
707.803	759.85
708.246	736.5
708.69	732.1
709.134	720.25
709.577	726.05
710.021	733.05
710.465	726.3
710.908	718.75
711.352	758.5
711.795	831.9
712.239	898.7
712.682	916.3
713.126	910.6
713.569	1010.7
714.012	835.45
714.456	738.1
714.899	690.45
715.342	648.55
715.786	625.6
716.229	604.85
716.672	592.8
717.115	592.1
717.558	602.9
718.002	622.2
718.445	644.25
718.888	682.65
719.331	686.75
719.774	706.4
720.217	687.65
720.66	650.9
721.103	623.65
721.546	583.55
721.989	566.9
722.432	564.4
722.874	563.35
723.317	566.6
723.76	619.55
724.203	768.1
724.645	1015.4
725.088	1188.2
725.531	1157.55
725.974	1259.8
726.416	1132.5
726.859	705.9
727.301	586.95
727.744	553.3
728.187	548.25
728.629	568.75
729.071	596.15
729.514	625.6
729.956	644.25
730.399	648.6
730.841	650.85
731.283	635.4
731.726	619.7
732.168	621.9
732.61	659.9
733.053	714.65
733.495	787.65
733.937	882
734.379	1035.55
734.821	1318.9
735.263	2119.9
735.705	3818.25
736.148	5564.5
736.59	5522
737.032	5947.4
737.474	4897.5
737.916	1879.8
738.357	1001.6
738.799	766.2
739.241	713.35
739.683	715.4
740.125	725.5
740.567	722.7
741.008	762.05
741.45	802.8
741.892	823.6
742.334	817.3
742.775	819.15
743.217	770.15
743.658	667.05
744.1	683.95
744.542	764.35
744.983	785.5
745.425	826.65
745.866	814.05
746.307	724.2
746.749	787.1
747.19	1152.15
747.632	2258.8
748.073	4164.5
748.514	5701.65
748.956	7532.45
749.397	8790.7
749.838	6039.75
750.279	5726.85
750.72	2976.1
751.162	1252.95
751.603	729.4
752.044	582.45
752.485	514.15
752.926	485.85
753.367	464.55
753.808	455.7
754.249	448.85
754.69	441.25
755.131	429.9
755.572	433.6
756.013	435.05
756.453	440.5
756.894	448.05
757.335	450.15
757.776	456.15
758.216	469.55
758.657	497.9
759.098	551.4
759.538	665.35
759.979	973.2
760.42	1970.2
760.86	5076.1
761.301	10357.05
761.741	11994
762.182	13652.45
762.622	8843.45
763.063	3208.3
763.503	1399.7
763.943	1051.65
764.384	1111.8
764.824	1048.8
765.264	1041.3
765.705	748
766.145	541.55
766.585	486.6
767.025	519.15
767.465	659.3
767.906	795.25
768.346	825.6
768.786	873.1
769.226	919.2
769.666	1604.35
770.106	3485.75
770.546	4896.05
770.986	5460.3
771.426	4118.7
771.866	1731.2
772.306	790.2
772.745	500.4
773.185	429.05
773.625	429.4
774.065	497.35
774.505	802.1
774.944	1579.85
775.384	2354.85
775.824	2660.65
776.263	2182.45
776.703	1077.45
777.142	560
777.582	388.3
778.021	351.95
778.461	332.45
778.9	327.35
779.34	296.95
779.779	284.9
780.219	278.25
780.658	269.4
781.097	266.9
781.537	265.65
781.976	262.55
782.415	263.2
782.855	261.05
783.294	260.75
783.733	253.25
784.172	260.45
784.611	258.25
785.05	259.5
785.489	270.2
785.928	274.25
786.367	285.9
786.806	302.15
787.245	326.45
787.684	337.75
788.123	325.55
788.562	316.8
789.001	301.9
789.44	296.6
789.879	299.7
790.317	301.85
790.756	317.75
791.195	367.5
791.634	491.6
792.072	898.2
792.511	2235.75
792.95	4041.4
793.388	4823.1
793.827	3117
794.265	1443.55
794.704	688.45
795.142	418.9
795.581	343.85
796.019	313.6
796.458	309.55
796.896	325.35
797.334	375.65
797.773	503.8
798.211	971.8
798.649	2021.7
799.087	3371.55
799.526	4754.75
799.964	4848.85
800.402	3328.4
800.84	1511.85
801.278	735.35
801.716	446.85
802.154	371.35
802.592	348.15
803.03	347.55
803.468	352.65
803.906	355.8
804.344	347.35
804.782	339.55
805.22	338.65
805.658	351.5
806.096	373.45
806.533	418.95
806.971	541.9
807.409	784.65
807.847	1577.8
808.284	4031.4
808.722	6999.75
809.16	9814
809.597	13278
810.035	15502.55
810.472	10543.3
810.91	4517.5
811.347	2011.85
811.785	942.85
812.222	588.05
812.66	459.7
813.097	389.4
813.535	341.65
813.972	308.75
814.409	283.05
814.846	269.3
815.284	253.2
815.721	267.3
816.158	286.5
816.595	365.95
817.032	438.1
817.47	404.4
817.907	312.95
818.344	276
818.781	266.75
819.218	320.7
819.655	455.75
820.092	577.5
820.529	532.9
820.966	439.15
821.403	325.7
821.839	280.25
822.276	299.15
822.713	343.3
823.15	331.5
823.587	364.9
824.023	656.6
824.46	1656.95
824.897	2853.8
825.333	2195.8
825.77	1014.6
826.206	526.45
826.643	308
827.08	235.2
827.516	200.35
827.953	192.5
828.389	180.7
828.825	173.25
829.262	166.15
829.698	161.55
830.135	155.1
830.571	154.6
831.007	156.45
831.443	163.9
831.88	161.3
832.316	167.6
832.752	162.9
833.188	166.4
833.624	164.05
834.06	166.55
834.497	167.15
834.933	177.8
835.369	186.4
835.805	195.9
836.241	201.15
836.677	223.7
837.112	258.95
837.548	327.2
837.984	483.05
838.42	1037.35
838.856	2892.8
839.292	5685.15
839.727	4139.35
840.163	2836.35
840.599	4312.85
841.034	6552.75
841.47	3252.3
841.906	1586.15
842.341	888.25
842.777	755.45
843.212	864.75
843.648	514.95
844.083	328.4
844.519	229.25
844.954	184.8
845.39	158.05
845.825	152.75
846.261	144.55
846.696	142.45
847.131	129.9
847.566	138.7
848.002	143.95
848.437	153.35
848.872	155
849.307	200.2
849.742	360.8
850.177	947.95
850.613	1998
851.048	1414.2
851.483	649.3
851.918	367.7
852.353	215.35
852.788	171.05
853.223	138.75
853.657	121.1
854.092	112.75
854.527	117.5
854.962	120.4
855.397	126.75
855.832	115.95
856.266	100.95
856.701	101.45
857.136	107.65
857.57	126.9
858.005	147.2
858.44	125.85
858.874	124.1
859.309	125.3
859.743	120.95
860.178	121.15
860.612	130.95
861.047	169.5
861.481	214.6
861.915	151.7
862.35	117.4
862.784	99.1
863.218	96.45
863.653	106.95
864.087	126.2
864.521	160.7
864.955	274.8
865.39	466.25
865.824	339.65
866.258	392.75
866.692	565
867.126	406.5
867.56	231.6
867.994	147.8
868.428	134.25
868.862	159.15
869.296	143.55
869.73	171
870.164	150.35
870.598	136.75
871.031	103.6
871.465	92.65
871.899	74.85
872.333	73
872.766	74.5
873.2	76.85
873.634	75.3
874.067	80.75
874.501	79.6
874.935	80.45
875.368	80.1
875.802	73.2
876.235	72.3
876.669	67
877.102	60.35
877.535	62.25
877.969	63.3
878.402	59.7
878.836	61
879.269	59.3
879.702	61.8
880.135	62.55
880.569	71.95
881.002	58.85
881.435	57.55
881.868	58.15
882.301	53.45
882.734	53.25
883.167	53.6
883.601	51.25
884.034	54.3
884.467	47.35
884.899	49.15
885.332	51.65
885.765	52.25
886.198	49.65
886.631	46.65
887.064	44.5
887.497	45.8
887.929	47.15
888.362	50.6
888.795	49
889.228	50.05
889.66	48.6
890.093	47.5
890.526	46.35
890.958	45.55
891.391	49.85
891.823	43.65
892.256	46.25
892.688	48.6
893.121	44
893.553	46.6
893.985	44.75
894.418	44.9
894.85	44.85
895.282	45.9
895.715	42.65
896.147	40.7
896.579	38.55
897.011	42.45
897.444	42.45
897.876	33.35
898.308	36.85
898.74	43.4
899.172	43.35
899.604	44.6
900.036	43.35
900.468	36.65
900.9	44
901.332	55.35
901.764	55.2
902.196	53
902.628	53.9
903.06	75.2
903.491	75.3
903.923	68.45
904.355	61.9
904.787	70.15
905.218	60.45
905.65	60.3
906.082	55.4
906.513	52.05
906.945	47.15
907.376	54.95
907.808	59.15
908.239	64.65
908.671	61.25
909.102	69.6
909.534	104.05
909.965	186.45
910.397	467.6
910.828	1330.55
911.259	808.15
911.691	442.55
912.122	255.65
912.553	130.25
912.984	72.75
913.415	63.3
913.847	55.65
914.278	51.35
914.709	43.1
915.14	47.75
915.571	46.7
916.002	43.3
916.433	45.55
916.864	40.45
917.295	44.95
917.726	52.05
918.157	66.6
918.587	66.25
919.018	61.8
919.449	56.2
919.88	68.5
920.311	100.4
920.741	280.55
921.172	489.75
921.603	246.75
922.033	155.2
922.464	99.7
922.895	68.25
923.325	48
923.756	46.75
924.186	64.9
924.617	105.05
925.047	157.45
925.478	140.05
925.908	99.75
926.338	67.7
926.769	55.7
927.199	43.7
927.629	42.05
928.06	46.05
928.49	40.55
928.92	36.5
929.35	34.6
929.78	29.7
930.21	27.5
930.641	20.9
931.071	26.55
931.501	23.75
931.931	24.65
932.361	28.05
932.791	26.8
933.221	30.3
933.651	43.3
934.08	63.8
934.51	35.25
934.94	35.6
935.37	28.35
935.8	19.7
936.229	19.05
936.659	22.05
937.089	33.4
937.519	47.9
937.948	65.45
938.378	44.15
938.807	26.75
939.237	19.7
939.666	23.5
940.096	10.75
940.525	12.3
940.955	16.75
941.384	12.2
941.814	16.5
942.243	13
942.672	12.15
943.102	10.3
943.531	8.3
943.96	8.95
944.39	13.75
944.819	14.1
945.248	9.6
945.677	15.35
946.106	12.45
946.535	13.85
946.964	11.75
947.393	7.7
947.822	7.75
948.251	12.7
948.68	18.5
949.109	13.1
949.538	10.85
949.967	12.2
950.396	13
950.825	10.5
951.254	7.85
951.682	5.75
952.111	3.6
952.54	5.7
952.969	6.8
953.397	4.8
953.826	7.65
954.254	14.2
954.683	13
955.112	14
955.54	8.15
955.969	5.7
956.397	10.1
956.826	8.75
957.254	10.4
957.682	6.65
958.111	10.1
958.539	10.25
958.967	9.3
959.396	13.3
959.824	8.85
960.252	8.1
960.68	2.1
961.109	9.55
961.537	14.9
961.965	7.5
962.393	9.6
962.821	8.15
963.249	11.8
963.677	18
964.105	82.95
964.533	140.4
964.961	71.25
965.389	39.3
965.817	23.15
966.245	13.75
966.672	8.75
967.1	12.35
967.528	4.9
967.956	8.65
968.383	9.9
968.811	4.2
969.239	5.4
969.666	8.3
970.094	6.8
970.522	2.6
970.949	8.5
971.377	2.05
971.804	7.4
972.232	6.5
972.659	5.4
973.087	4.65
973.514	3.95
973.941	1.8
974.369	2.05
974.796	4.65
975.223	6.65
975.651	11.05
976.078	6.4
976.505	11.15
976.932	32.8
977.359	43.1
977.786	28.3
978.214	14.9
978.641	8.25
979.068	9.1
979.495	4
979.922	5.55
980.349	7.9
980.776	6.45
981.202	5.45
981.629	10.2
982.056	3.8
982.483	2.9
982.91	8.4
983.337	0
983.763	4.2
984.19	7.1
984.617	-0.35
985.043	7.75
985.47	9.4
985.897	4.1
986.323	9.65
986.75	2.6
987.176	5.4
987.603	7.95
988.029	8
988.456	8.35
988.882	4.9
989.308	0.25
989.735	0.55
990.161	3.75
990.587	2.25
991.014	8.1
991.44	4.3
991.866	8.95
992.292	3.95
992.719	1.85
993.145	5.75
993.571	6
993.997	4.4
994.423	8.3
994.849	-2.85
995.275	7.25
995.701	5.6
996.127	1.15
996.553	2.75
996.979	-0.35
997.405	8.1
997.83	5.65
998.256	10.75
998.682	2.7
999.108	5.8
999.534	-1.3
999.959	-0.2
1000.385	5.95
1000.811	3.65
1001.236	3.05
1001.662	3.3
1002.087	9.55
1002.513	2.8
1002.938	-3.05
1003.364	0.05
1003.789	8.85
1004.215	1.1
1004.64	4.3
1005.066	4.9
1005.491	5.65
1005.916	4.8
1006.342	7.8
1006.767	4.4
1007.192	6.8
1007.617	2.35
1008.042	1.7
1008.468	4.5
1008.893	8.8
1009.318	11.35
1009.743	17.8
1010.168	18.65
1010.593	22.25
1011.018	12.6
1011.443	5.2
1011.868	7.9
1012.293	4.9
1012.718	1
1013.143	6.25
1013.567	4.5
1013.992	4.45
1014.417	3.95
1014.842	2.1
1015.267	-0.9
1015.691	3.8
1016.116	3
1016.541	4.2
1016.965	2.15
1017.39	-0.45
1017.814	-1.55
1018.239	-0.3
1018.663	-6.4
1019.088	-2.95
1019.512	4.25
1019.937	0
1020.361	5.15
1020.785	3.1
1021.21	-0.55
1021.634	5
1022.058	0.7
1022.483	-1.25
1022.907	1.3
1023.331	0.95
1023.755	-1.4
1024.179	1.15
1024.604	3.65
1025.028	2.4
1025.452	1
1025.876	4.15
1026.3	1.35
1026.724	-0.85
1027.148	2.65
1027.572	-1.55
1027.996	-1.1
1028.42	0.8
1028.843	-0.55
1029.267	2.3
1029.691	5.3
1030.115	-1.95
1030.539	-0.05
1030.962	-3.55
1031.386	0.45
1031.81	2.45
1032.233	0.7
1032.657	-6.25
1033.08	0.6
1033.504	-1.35
1033.927	0.75
1034.351	0.2
1034.774	-6.4
1035.198	-3.1
1035.621	3.85
1036.045	-1.7
1036.468	8.35
1036.891	-1.35
1037.315	4.1
1037.738	1.5
1038.161	1.6
1038.584	-3
1039.008	-0.45
1039.431	1.1
1039.854	-2.4
1040.277	4.9
1040.7	-1.45
1041.123	-0.15
1041.546	-0.9
1041.969	1.25
1042.392	1.05
1042.815	-6.8
1043.238	-0.8
1043.661	-1.9
1044.084	1.3
1044.507	3.5
1044.93	0.2
1045.352	1.35
1045.775	4.15
1046.198	3.7
1046.621	5.25
1047.043	1.35
1047.466	4.9
1047.889	1.8
1048.311	2.2
1048.734	-2.75
1049.156	-2.85
1049.579	0.8
1050.001	0.65
1050.424	2.95
1050.846	-4.25
1051.269	-2.7
1051.691	-0.45
1052.113	2.45
1052.536	0.95
1052.958	-2.55
1053.38	-0.85
1053.802	-0.7
1054.225	1.65
1054.647	3.5
1055.069	2.05
1055.491	3.55
1055.913	-2.4
1056.335	-11.3
1056.757	-8.15
1057.179	-1.35
1057.601	-0.15
1058.023	3.4
1058.445	-5.5
1058.867	2.8
1059.289	-0.25
1059.711	-4
1060.133	2.35
1060.555	-4.05
1060.976	-0.1
1061.398	-1.45
1061.82	0.15
1062.241	-1.05
1062.663	-0.2
1063.085	-3.45
1063.506	-4
1063.928	-0.45
1064.35	-5.3
1064.771	-4.5
1065.193	-0.75
1065.614	-1.9
1066.035	7.05
1066.457	5.25
1066.878	4.85
1067.3	-4.05
1067.721	4.4
1068.142	0.75
1068.564	2.95
1068.985	2
1069.406	-4.05
1069.827	2.8
1070.248	-3.4
1070.67	-3.45
1071.091	-3.75
1071.512	0
1071.933	-3.45
1072.354	-10.05
1072.775	2.35
1073.196	0.2
1073.617	-4.35
1074.038	-2.7
1074.459	-2.4
1074.88	-2.5
1075.3	-0.3
1075.721	-0.2
1076.142	-0.1
1076.563	-4.05
1076.983	2.8
1077.404	-10.1
1077.825	0
1078.246	-4.5
1078.666	-3.45
1079.087	-3.05
1079.507	-6.25
1079.928	-3.7
1080.348	-7.4
1080.769	1.25
1081.189	-2
1081.61	-3.9
1082.03	-2.1
1082.451	-0.55
1082.871	-5.3
1083.291	-0.95
1083.711	-2
1084.132	-5.25
1084.552	-7.2
1084.972	-10.75
1085.392	-3
1085.813	0.1
1086.233	-4
1086.653	1.95
1087.073	-0.75
1087.493	-3.8
1087.913	-8.3
1088.333	-2.3
1088.753	1.95
1089.173	1.2
1089.593	3.1
1090.013	-4.85
1090.433	-6.25
1090.852	2.8
1091.272	-8.4
1091.692	-1.9
1092.112	-3.2
1092.531	-7.6
1092.951	1.5
1093.371	-3.35
1093.79	-0.85
1094.21	-3.6
1094.63	-0.65
1095.049	-4.75
1095.469	-6.3
1095.888	-2.95
1096.308	3.55
1096.727	-8.75
1097.146	-1.9
1097.566	-3.3
1097.985	2.3
1098.405	3
1098.824	3.25
1099.243	-5.05
1099.662	-2.9
1100.082	-6.3
1100.501	-1.25
1100.92	4
1101.339	0.4
1101.758	0.15
