Data from MSPlasma+Separation6_Subt14_10-15-18-588.txt Node
Date: Fri Jul 21 10:15:18 EDT 2017
User: Ender
Spectrometer: HR+D1039
Trigger mode: 0
Integration Time (sec): 6.430000E-3
Scans to average: 20
Electric dark correction enabled: true
Nonlinearity correction enabled: false
Boxcar width: 0
XAxis mode: Wavelengths
Number of Pixels in Spectrum: 2048
>>>>>Begin Spectral Data<<<<<
187.836	-2.13
188.309	-2.13
188.782	-2.13
189.255	-0.78
189.728	3.02
190.201	-1.03
190.674	-1.78
191.147	-0.43
191.619	4.37
192.092	1.62
192.565	-2.28
193.038	3.42
193.511	3.02
193.984	-1.63
194.456	-1.38
194.929	-2.13
195.402	-2.03
195.874	0.22
196.347	5.62
196.82	1.67
197.292	0.47
197.765	-2.38
198.237	-3.53
198.71	-3.63
199.182	2.07
199.655	4.37
200.127	4.47
200.6	-2.58
201.072	3.27
201.544	-1.68
202.017	-0.33
202.489	1.52
202.961	0.82
203.433	-2.28
203.906	3.47
204.378	4.17
204.85	3.82
205.322	4.97
205.794	3.17
206.266	2.82
206.739	2.32
207.211	1.82
207.683	-0.23
208.155	3.67
208.627	5.32
209.099	6.72
209.57	2.52
210.042	2.52
210.514	7.32
210.986	11.42
211.458	16.47
211.93	11.42
212.402	3.47
212.873	-0.03
213.345	-0.63
213.817	4.07
214.288	-1.38
214.76	0.52
215.232	2.37
215.703	1.92
216.175	2.17
216.646	3.82
217.118	5.87
217.589	0.82
218.061	7.22
218.532	1.97
219.004	8.72
219.475	15.02
219.946	26.42
220.418	34.07
220.889	22.12
221.36	15.32
221.832	7.47
222.303	6.67
222.774	3.22
223.245	5.87
223.717	3.47
224.188	10.62
224.659	10.07
225.13	2.57
225.601	4.27
226.072	2.32
226.543	8.92
227.014	7.32
227.485	12.52
227.956	7.02
228.427	11.22
228.898	11.37
229.369	13.02
229.839	11.52
230.31	12.87
230.781	17.12
231.252	17.97
231.722	26.27
232.193	31.82
232.664	36.72
233.135	50.22
233.605	55.12
234.076	45.52
234.546	38.67
235.017	43.62
235.487	39.57
235.958	37.82
236.428	57.92
236.899	97.02
237.369	110.12
237.84	76.72
238.31	100.92
238.78	95.47
239.251	100.37
239.721	98.77
240.191	75.47
240.662	49.32
241.132	36.97
241.602	45.72
242.072	65.17
242.542	79.17
243.013	57.77
243.483	52.72
243.953	38.32
244.423	41.92
244.893	52.02
245.363	57.27
245.833	51.52
246.303	54.07
246.773	75.72
247.243	76.67
247.712	87.12
248.182	96.37
248.652	102.77
249.122	158.17
249.592	285.67
250.061	438.97
250.531	694.17
251.001	524.12
251.471	438.02
251.94	331.37
252.41	179.57
252.879	128.27
253.349	100.57
253.818	78.92
254.288	69.37
254.757	69.27
255.227	93.07
255.696	75.92
256.166	71.02
256.635	73.77
257.105	91.07
257.574	118.62
258.043	124.77
258.513	220.52
258.982	276.82
259.451	186.27
259.92	193.52
260.389	173.37
260.859	132.27
261.328	147.42
261.797	218.37
262.266	192.02
262.735	94.82
263.204	59.37
263.673	57.87
264.142	51.42
264.611	52.52
265.08	58.37
265.549	61.42
266.018	52.42
266.487	54.52
266.955	52.97
267.424	58.22
267.893	64.82
268.362	62.57
268.83	62.72
269.299	62.77
269.768	70.37
270.236	85.92
270.705	92.12
271.174	88.77
271.642	97.07
272.111	109.32
272.579	183.32
273.048	267.82
273.516	347.97
273.985	348.57
274.453	271.52
274.922	162.32
275.39	109.42
275.858	98.67
276.327	83.77
276.795	83.92
277.263	97.97
277.731	128.72
278.2	238.97
278.668	314.52
279.136	242.92
279.604	155.17
280.072	97.92
280.54	91.82
281.008	92.37
281.477	93.37
281.945	95.92
282.413	95.12
282.881	102.12
283.348	93.27
283.816	104.12
284.284	106.97
284.752	102.32
285.22	108.97
285.688	120.92
286.156	188.82
286.623	502.37
287.091	968.37
287.559	506.77
288.026	202.27
288.494	127.27
288.962	110.22
289.429	105.37
289.897	100.37
290.364	96.37
290.832	97.47
291.3	100.52
291.767	100.92
292.234	106.67
292.702	110.87
293.169	115.37
293.637	123.47
294.104	120.22
294.571	115.42
295.039	118.57
295.506	111.57
295.973	113.82
296.44	109.57
296.908	127.22
297.375	142.32
297.842	141.22
298.309	119.12
298.776	126.17
299.243	124.52
299.71	120.62
300.177	121.97
300.644	131.62
301.111	146.22
301.578	136.77
302.045	127.92
302.512	124.17
302.979	129.52
303.446	137.27
303.913	143.07
304.379	149.72
304.846	165.82
305.313	181.17
305.78	207.82
306.246	247.17
306.713	263.37
307.18	235.12
307.646	257.77
308.113	222.52
308.579	182.32
309.046	176.92
309.512	177.72
309.979	167.67
310.445	155.92
310.912	163.87
311.378	161.57
311.845	164.52
312.311	157.67
312.777	157.27
313.244	160.72
313.71	170.57
314.176	191.02
314.642	214.47
315.109	246.82
315.575	225.17
316.041	208.67
316.507	198.77
316.973	220.17
317.439	216.67
317.905	233.72
318.371	234.02
318.837	220.87
319.303	237.62
319.769	218.67
320.235	236.92
320.701	273.07
321.167	289.32
321.633	346.92
322.099	471.17
322.564	624.72
323.03	497.67
323.496	351.02
323.962	331.72
324.427	308.27
324.893	273.22
325.359	268.12
325.824	231.37
326.29	243.37
326.755	248.37
327.221	246.92
327.686	255.97
328.152	239.22
328.617	227.82
329.083	229.57
329.548	241.87
330.014	250.92
330.479	270.27
330.944	317.12
331.41	350.32
331.875	336.02
332.34	353.47
332.805	402.47
333.271	506.97
333.736	670.97
334.201	601.47
334.666	452.82
335.131	512.77
335.596	410.17
336.061	436.27
336.526	436.27
336.991	382.77
337.456	413.17
337.921	333.77
338.386	278.62
338.851	255.97
339.316	234.37
339.781	234.92
340.246	233.72
340.711	239.52
341.175	242.07
341.64	252.67
342.105	250.67
342.569	267.22
343.034	286.52
343.499	287.67
343.963	279.02
344.428	277.67
344.893	283.22
345.357	290.47
345.822	282.82
346.286	297.62
346.751	300.97
347.215	299.87
347.679	306.07
348.144	335.87
348.608	331.62
349.073	334.42
349.537	375.72
350.001	367.77
350.465	347.22
350.93	334.12
351.394	332.37
351.858	325.27
352.322	344.72
352.786	344.42
353.25	335.92
353.715	343.67
354.179	360.87
354.643	376.67
355.107	392.07
355.571	406.47
356.035	411.32
356.498	399.02
356.962	424.12
357.426	415.32
357.89	381.37
358.354	356.82
358.818	363.02
359.281	365.17
359.745	385.37
360.209	378.47
360.673	380.57
361.136	386.82
361.6	386.47
362.064	407.62
362.527	415.02
362.991	409.22
363.454	409.42
363.918	414.17
364.381	411.32
364.845	405.72
365.308	401.22
365.772	403.77
366.235	400.87
366.698	420.77
367.162	502.02
367.625	552.72
368.088	463.47
368.552	428.22
369.015	429.77
369.478	459.67
369.941	460.77
370.404	469.82
370.867	493.42
371.331	497.62
371.794	509.02
372.257	564.47
372.72	593.62
373.183	567.17
373.646	569.52
374.109	565.97
374.572	656.42
375.035	763.22
375.497	590.42
375.96	488.47
376.423	466.67
376.886	466.07
377.349	479.82
377.811	479.82
378.274	479.37
378.737	489.32
379.199	510.47
379.662	521.27
380.125	549.12
380.587	596.02
381.05	627.37
381.512	628.82
381.975	620.47
382.437	608.82
382.9	610.02
383.362	614.82
383.825	657.77
384.287	807.42
384.75	887.82
385.212	796.02
385.674	664.07
386.136	608.07
386.599	607.07
387.061	633.77
387.523	652.07
387.985	651.42
388.447	671.42
388.91	753.47
389.372	901.67
389.834	843.02
390.296	716.87
390.758	724.92
391.22	745.67
391.682	903.42
392.144	1367.67
392.606	1287.22
393.068	779.87
393.529	721.57
393.991	701.52
394.453	685.92
394.915	714.22
395.377	860.52
395.838	1037.72
396.3	754.67
396.762	600.42
397.224	570.37
397.685	565.92
398.147	574.97
398.608	577.92
399.07	591.62
399.531	577.02
399.993	591.52
400.454	602.52
400.916	590.52
401.377	613.27
401.839	618.17
402.3	619.37
402.762	644.07
403.223	708.87
403.684	720.92
404.145	665.57
404.607	654.52
405.068	648.37
405.529	663.37
405.99	678.82
406.451	676.72
406.913	671.37
407.374	667.17
407.835	680.02
408.296	699.57
408.757	700.97
409.218	724.52
409.679	738.02
410.14	742.32
410.601	775.57
411.062	809.77
411.522	913.52
411.983	999.67
412.444	874.72
412.905	778.97
413.366	778.87
413.826	805.92
414.287	906.82
414.748	1081.72
415.208	1101.87
415.669	921.27
416.13	837.12
416.59	823.07
417.051	855.37
417.511	884.22
417.972	943.62
418.432	1022.67
418.893	1136.47
419.353	1082.92
419.814	834.42
420.274	752.92
420.734	740.07
421.195	788.67
421.655	824.07
422.115	790.97
422.576	770.87
423.036	767.62
423.496	806.82
423.956	841.52
424.416	902.17
424.876	1015.87
425.336	1020.02
425.797	1007.22
426.257	1002.57
426.717	946.87
427.177	881.62
427.637	900.42
428.097	946.67
428.556	989.52
429.016	1072.22
429.476	1065.32
429.936	1021.87
430.396	992.77
430.856	1011.62
431.315	1036.27
431.775	1116.02
432.235	1171.97
432.694	1199.32
433.154	1128.02
433.614	1089.22
434.073	1048.27
434.533	960.12
434.993	932.12
435.452	942.92
435.912	928.27
436.371	925.67
436.83	925.67
437.29	934.67
437.749	887.32
438.209	880.92
438.668	891.82
439.127	899.52
439.587	885.57
440.046	854.92
440.505	872.72
440.964	867.87
441.424	898.32
441.883	917.22
442.342	863.02
442.801	829.42
443.26	853.37
443.719	841.97
444.178	838.47
444.637	852.02
445.096	860.52
445.555	869.02
446.014	867.67
446.473	833.62
446.932	831.72
447.391	854.57
447.849	875.17
448.308	867.87
448.767	879.57
449.226	901.67
449.685	908.32
450.143	946.57
450.602	947.67
451.061	908.52
451.519	922.57
451.978	937.72
452.436	964.42
452.895	929.22
453.353	897.62
453.812	914.97
454.27	906.12
454.729	879.32
455.187	894.02
455.646	894.82
456.104	908.57
456.562	902.37
457.021	889.57
457.479	851.22
457.937	882.42
458.395	905.17
458.854	897.07
459.312	884.92
459.77	890.72
460.228	897.82
460.686	917.52
461.144	921.77
461.602	902.62
462.06	899.52
462.518	925.92
462.976	931.17
463.434	937.17
463.892	948.27
464.35	972.62
464.808	967.87
465.266	984.57
465.724	1000.87
466.181	1011.57
466.639	996.22
467.097	1043.97
467.555	1070.62
468.012	1076.77
468.47	1075.27
468.928	1115.37
469.385	1140.77
469.843	1155.82
470.3	1148.02
470.758	1176.67
471.215	1204.92
471.673	1228.02
472.13	1260.32
472.588	1285.52
473.045	1285.67
473.503	1311.97
473.96	1360.77
474.417	1378.92
474.875	1441.62
475.332	1480.12
475.789	1505.62
476.246	1546.52
476.704	1610.72
477.161	1657.37
477.618	1711.47
478.075	1785.27
478.532	1925.52
478.989	2068.22
479.446	2275.52
479.903	2393.17
480.36	2599.02
480.817	2750.92
481.274	2952.37
481.731	3220.07
482.188	3460.12
482.645	3718.72
483.102	3921.47
483.558	4210.37
484.015	4401.92
484.472	4419.47
484.929	4289.67
485.385	4095.97
485.842	4003.97
486.299	3820.52
486.755	3475.72
487.212	3123.42
487.668	2822.97
488.125	2641.22
488.582	2437.77
489.038	2363.07
489.494	2281.32
489.951	2224.07
490.407	2160.57
490.864	2136.37
491.32	2104.87
491.776	2067.67
492.233	2073.77
492.689	2048.97
493.145	2026.87
493.602	2000.12
494.058	2040.12
494.514	2073.32
494.97	2080.17
495.426	2095.97
495.882	2108.57
496.338	2118.62
496.794	2191.62
497.251	2213.42
497.707	2209.17
498.163	2212.42
498.618	2213.92
499.074	2227.52
499.53	2261.82
499.986	2302.22
500.442	2337.77
500.898	2326.77
501.354	2368.07
501.809	2374.07
502.265	2393.17
502.721	2509.77
503.177	2563.52
503.632	2456.47
504.088	2483.42
504.543	2693.47
504.999	2538.07
505.455	2285.72
505.91	2188.77
506.366	2152.02
506.821	2148.87
507.277	2128.27
507.732	2131.62
508.187	2131.22
508.643	2153.52
509.098	2145.02
509.553	2185.62
510.009	2208.57
510.464	2251.87
510.919	2276.42
511.375	2294.82
511.83	2328.67
512.285	2374.32
512.74	2418.02
513.195	2464.52
513.65	2501.97
514.105	2539.62
514.56	2548.72
515.015	2594.22
515.47	2626.92
515.925	2616.97
516.38	2596.12
516.835	2585.07
517.29	2585.07
517.745	2583.87
518.2	2549.77
518.655	2483.82
519.109	2449.02
519.564	2414.37
520.019	2400.17
520.474	2376.97
520.928	2369.82
521.383	2363.82
521.838	2346.92
522.292	2306.97
522.747	2280.97
523.201	2267.67
523.656	2257.82
524.11	2260.82
524.565	2239.52
525.019	2247.42
525.474	2260.37
525.928	2253.87
526.382	2232.22
526.837	2221.42
527.291	2237.92
527.745	2218.72
528.2	2200.17
528.654	2187.27
529.108	2201.37
529.562	2211.92
530.016	2206.72
530.47	2210.97
530.925	2201.72
531.379	2212.42
531.833	2236.52
532.287	2224.97
532.741	2220.62
533.195	2216.17
533.649	2220.62
534.103	2221.27
534.556	2196.82
535.01	2223.62
535.464	2216.87
535.918	2219.87
536.372	2230.67
536.826	2227.72
537.279	2212.12
537.733	2201.17
538.187	2212.82
538.64	2219.32
539.094	2241.27
539.548	2278.87
540.001	2250.92
540.455	2266.42
540.908	2275.37
541.362	2307.62
541.815	2325.92
542.269	2373.97
542.722	2354.87
543.175	2399.27
543.629	2412.32
544.082	2422.42
544.536	2443.47
544.989	2449.82
545.442	2457.17
545.895	2470.82
546.349	2469.32
546.802	2464.82
547.255	2472.72
547.708	2483.37
548.161	2505.27
548.614	2508.92
549.067	2528.72
549.52	2506.57
549.973	2482.87
550.426	2467.72
550.879	2448.67
551.332	2435.12
551.785	2468.17
552.238	2483.02
552.691	2481.07
553.144	2513.57
553.596	2563.57
554.049	2601.12
554.502	2652.22
554.955	2699.52
555.407	2730.22
555.86	2699.37
556.313	2668.17
556.765	2648.62
557.218	2610.17
557.67	2606.77
558.123	2585.62
558.576	2572.02
559.028	2566.02
559.48	2599.42
559.933	2581.07
560.385	2497.97
560.838	2410.77
561.29	2338.32
561.742	2330.12
562.195	2283.92
562.647	2270.07
563.099	2262.27
563.551	2258.02
564.004	2284.37
564.456	2247.37
564.908	2221.52
565.36	2164.32
565.812	2118.22
566.264	2102.77
566.716	2085.32
567.168	2043.37
567.62	2053.22
568.072	2029.07
568.524	2009.17
568.976	2000.42
569.428	1985.52
569.88	1987.27
570.332	1991.47
570.784	1985.62
571.235	1978.27
571.687	1999.32
572.139	1998.77
572.59	2014.37
573.042	2021.22
573.494	2026.32
573.945	1993.37
574.397	1944.82
574.849	1962.37
575.3	1962.97
575.752	1928.52
576.203	1914.37
576.655	1925.42
577.106	1899.12
577.557	1878.82
578.009	1874.77
578.46	1878.02
578.912	1876.37
579.363	1877.17
579.814	1873.77
580.265	1865.12
580.717	1872.17
581.168	1879.27
581.619	1873.17
582.07	1906.32
582.521	1899.52
582.972	1896.37
583.423	1908.07
583.875	1947.67
584.326	2027.07
584.777	2208.52
585.227	2393.52
585.678	2541.42
586.129	2589.52
586.58	2627.67
587.031	2674.72
587.482	2821.17
587.933	3283.62
588.384	3027.17
588.834	2526.17
589.285	2185.32
589.736	2138.77
590.186	2147.57
590.637	2112.22
591.088	2065.82
591.538	2047.22
591.989	2018.77
592.439	2013.37
592.89	1987.52
593.34	2002.82
593.791	2006.02
594.241	2008.92
594.692	2037.72
595.142	2024.57
595.593	1993.72
596.043	1989.52
596.493	2031.27
596.943	2064.32
597.394	2049.77
597.844	2017.07
598.294	2059.87
598.744	2138.42
599.195	2234.97
599.645	2367.62
600.095	2476.82
600.545	2603.57
600.995	2701.17
601.445	2804.37
601.895	2951.62
602.345	3021.52
602.795	2990.52
603.245	2852.87
603.695	2689.97
604.145	2528.72
604.594	2417.07
605.044	2287.82
605.494	2144.02
605.944	2034.77
606.393	1995.97
606.843	1969.72
607.293	1965.22
607.743	1957.77
608.192	1970.22
608.642	1980.62
609.091	1976.87
609.541	1989.92
609.99	1982.82
610.44	1934.62
610.889	1920.87
611.339	1887.62
611.788	1857.57
612.238	1901.27
612.687	1907.47
613.136	1936.67
613.586	1963.22
614.035	1956.97
614.484	1994.37
614.933	1996.72
615.383	1938.62
615.832	1895.57
616.281	1858.22
616.73	1798.12
617.179	1753.97
617.628	1712.02
618.077	1687.42
618.526	1661.02
618.975	1655.12
619.424	1614.42
619.873	1629.32
620.322	1616.07
620.771	1614.32
621.22	1590.22
621.669	1559.17
622.118	1537.62
622.567	1534.17
623.015	1501.72
623.464	1505.87
623.913	1479.52
624.361	1483.92
624.81	1484.07
625.259	1467.77
625.707	1462.97
626.156	1464.97
626.604	1472.82
627.053	1488.62
627.501	1489.12
627.95	1493.52
628.398	1512.52
628.847	1498.67
629.295	1496.32
629.744	1515.32
630.192	1542.77
630.64	1640.37
631.089	1795.22
631.537	1875.22
631.985	1872.22
632.433	1951.32
632.881	1936.97
633.33	2300.42
633.778	2500.62
634.226	1805.57
634.674	1679.57
635.122	1664.02
635.57	1689.32
636.018	1939.97
636.466	1610.52
636.914	1451.27
637.362	1441.72
637.81	1469.27
638.258	1505.97
638.705	1520.82
639.153	1560.92
639.601	1576.67
640.049	1601.67
640.497	1648.37
640.944	1692.87
641.392	1613.72
641.84	1517.32
642.287	1460.17
642.735	1432.92
643.182	1412.67
643.63	1418.02
644.078	1419.67
644.525	1430.07
644.973	1476.57
645.42	1498.72
645.867	1514.27
646.315	1535.57
646.762	1594.07
647.21	1626.17
647.657	1713.92
648.104	1769.12
648.551	1825.27
648.999	1972.82
649.446	2142.77
649.893	2414.72
650.34	2808.92
650.787	3458.72
651.234	4463.52
651.682	6156.52
652.129	8789.52
652.576	12536.67
653.023	15530.92
653.47	15539.87
653.917	15539.92
654.363	15539.82
654.81	15536.82
655.257	15537.47
655.704	15458.22
656.151	9515.02
656.598	6234.07
657.044	4446.97
657.491	3486.77
657.938	2850.37
658.385	2417.52
658.831	2151.37
659.278	1946.32
659.724	1783.82
660.171	1666.87
660.618	1537.97
661.064	1461.57
661.511	1414.22
661.957	1371.07
662.404	1341.12
662.85	1339.27
663.296	1316.32
663.743	1280.12
664.189	1281.77
664.635	1266.02
665.082	1250.92
665.528	1237.72
665.974	1200.42
666.42	1196.12
666.867	1203.02
667.313	1214.07
667.759	1256.77
668.205	1244.22
668.651	1264.57
669.097	1234.42
669.543	1332.02
669.989	1257.02
670.435	1131.82
670.881	1129.07
671.327	1174.02
671.773	1248.22
672.219	1349.37
672.665	1434.32
673.11	1479.47
673.556	1501.52
674.002	1522.57
674.448	1547.82
674.893	1313.42
675.339	1153.22
675.785	1061.22
676.23	1012.92
676.676	970.82
677.122	951.77
677.567	924.32
678.013	896.57
678.458	894.57
678.904	884.42
679.349	880.47
679.794	875.17
680.24	876.02
680.685	854.82
681.131	860.62
681.576	868.97
682.021	879.07
682.466	886.72
682.912	885.82
683.357	939.27
683.802	1016.77
684.247	1098.52
684.692	1180.82
685.137	1227.22
685.583	1247.22
686.028	1311.42
686.473	1245.22
686.918	1069.17
687.363	980.27
687.807	933.77
688.252	898.02
688.697	863.57
689.142	839.07
689.587	845.17
690.032	861.47
690.477	888.22
690.921	935.42
691.366	978.62
691.811	1024.77
692.255	1106.37
692.7	1352.92
693.145	1957.02
693.589	2997.07
694.034	3542.12
694.478	3747.72
694.923	3410.47
695.367	4894.07
695.812	2956.42
696.256	1257.22
696.701	918.27
697.145	854.62
697.59	823.12
698.034	812.97
698.478	805.17
698.922	817.72
699.367	841.02
699.811	879.27
700.255	954.82
700.699	1040.82
701.143	1129.67
701.588	1195.82
702.032	1233.37
702.476	1281.57
702.92	1354.87
703.364	1791.82
703.808	2741.27
704.252	3406.77
704.696	3577.82
705.14	3369.17
705.584	4620.22
706.027	2549.27
706.471	1289.32
706.915	955.92
707.359	860.32
707.803	798.52
708.246	773.17
708.69	768.62
709.134	764.27
709.577	762.42
710.021	771.87
710.465	765.52
710.908	761.22
711.352	793.22
711.795	879.12
712.239	946.67
712.682	967.17
713.126	958.07
713.569	1075.42
714.012	883.07
714.456	778.17
714.899	728.17
715.342	683.37
715.786	655.82
716.229	640.87
716.672	629.72
717.115	628.27
717.558	637.17
718.002	653.72
718.445	681.12
718.888	718.67
719.331	730.57
719.774	737.42
720.217	723.72
720.66	689.42
721.103	652.42
721.546	607.87
721.989	600.52
722.432	594.72
722.874	594.47
723.317	606.72
723.76	660.22
724.203	813.57
724.645	1076.02
725.088	1255.72
725.531	1220.87
725.974	1341.32
726.416	1209.42
726.859	744.32
727.301	625.22
727.744	590.77
728.187	586.57
728.629	596.47
729.071	628.87
729.514	655.02
729.956	680.37
730.399	691.32
730.841	687.57
731.283	673.07
731.726	645.37
732.168	656.27
732.61	702.67
733.053	765.02
733.495	842.42
733.937	935.07
734.379	1097.87
734.821	1407.92
735.263	2249.67
735.705	4067.17
736.148	5902.42
736.59	5836.82
737.032	6325.47
737.474	5198.77
737.916	1981.22
738.357	1060.12
738.799	806.82
739.241	757.02
739.683	751.32
740.125	764.67
740.567	765.77
741.008	812.17
741.45	846.27
741.892	867.97
742.334	866.97
742.775	855.82
743.217	818.52
743.658	706.52
744.1	717.37
744.542	793.32
744.983	824.97
745.425	866.57
745.866	862.52
746.307	756.37
746.749	836.42
747.19	1217.47
747.632	2411.37
748.073	4451.27
748.514	6064.67
748.956	8036.42
749.397	9337.97
749.838	6422.02
750.279	6110.17
750.72	3141.67
751.162	1325.32
751.603	766.62
752.044	612.67
752.485	550.27
752.926	511.72
753.367	489.97
753.808	475.57
754.249	475.12
754.69	465.17
755.131	457.22
755.572	461.02
756.013	464.32
756.453	459.02
756.894	473.32
757.335	472.22
757.776	481.27
758.216	496.07
758.657	522.67
759.098	576.52
759.538	708.72
759.979	1030.12
760.42	2102.22
760.86	5414.22
761.301	10986.87
761.741	12680.92
762.182	14407.17
762.622	9367.57
763.063	3387.42
763.503	1480.82
763.943	1097.47
764.384	1147.37
764.824	1076.92
765.264	1060.62
765.705	776.67
766.145	565.07
766.585	516.02
767.025	543.67
767.465	688.57
767.906	816.22
768.346	853.47
768.786	904.12
769.226	968.47
769.666	1708.52
770.106	3721.12
770.546	5189.77
770.986	5797.62
771.426	4378.97
771.866	1826.22
772.306	1168.12
772.745	869.82
773.185	802.47
773.625	799.37
774.065	865.22
774.505	1166.17
774.944	1949.72
775.384	2702.02
775.824	2984.92
776.263	2514.22
776.703	1442.57
777.142	924.12
777.582	754.72
778.021	716.47
778.461	700.77
778.9	685.92
779.34	670.22
779.779	650.87
780.219	651.97
780.658	642.92
781.097	636.87
781.537	630.17
781.976	633.42
782.415	634.32
782.855	625.17
783.294	633.62
783.733	621.02
784.172	629.97
784.611	626.27
785.05	628.62
785.489	637.87
785.928	644.47
786.367	659.37
786.806	669.77
787.245	695.92
787.684	705.17
788.123	697.02
788.562	688.02
789.001	674.02
789.44	664.12
789.879	660.87
790.317	667.42
790.756	684.82
791.195	732.47
791.634	863.72
792.072	1279.72
792.511	2606.07
792.95	4434.82
793.388	5223.22
793.827	3499.02
794.265	1800.47
794.704	1057.22
795.142	788.77
795.581	715.87
796.019	680.02
796.458	682.42
796.896	688.12
797.334	742.92
797.773	875.32
798.211	1352.67
798.649	2396.17
799.087	3779.22
799.526	5168.97
799.964	5256.87
800.402	3706.92
800.84	1880.52
801.278	1107.37
801.716	817.17
802.154	735.07
802.592	716.37
803.03	713.52
803.468	718.07
803.906	726.12
804.344	720.07
804.782	701.82
805.22	707.67
805.658	721.22
806.096	746.27
806.533	785.82
806.971	913.57
807.409	1148.62
807.847	1971.17
808.284	4465.42
808.722	7397.07
809.16	10249.67
809.597	13648.37
810.035	15129.62
810.472	10879.02
810.91	4887.07
811.347	2383.32
811.785	1312.72
812.222	969.37
812.66	825.37
813.097	759.87
813.535	709.62
813.972	677.62
814.409	648.27
814.846	640.42
815.284	624.02
815.721	630.07
816.158	652.97
816.595	727.07
817.032	801.27
817.47	766.82
817.907	679.12
818.344	641.37
818.781	632.22
819.218	680.67
819.655	809.37
820.092	941.97
820.529	889.42
820.966	798.07
821.403	690.02
821.839	648.72
822.276	662.42
822.713	713.37
823.15	699.52
823.587	730.02
824.023	1034.62
824.46	2034.57
824.897	3226.42
825.333	2561.42
825.77	1384.82
826.206	899.62
826.643	682.57
827.08	600.47
827.516	571.12
827.953	560.72
828.389	549.32
828.825	546.27
829.262	535.47
829.698	533.07
830.135	520.42
830.571	522.12
831.007	527.12
831.443	526.92
831.88	531.92
832.316	535.72
832.752	536.07
833.188	533.37
833.624	532.72
834.06	534.87
834.497	534.97
834.933	538.12
835.369	548.22
835.805	562.92
836.241	571.22
836.677	596.52
837.112	630.67
837.548	696.27
837.984	852.12
838.42	1424.57
838.856	3308.87
839.292	6078.77
839.727	4523.02
840.163	3218.77
840.599	4735.87
841.034	6934.17
841.47	3608.92
841.906	1957.92
842.341	1254.12
842.777	1118.87
843.212	1224.52
843.648	874.82
844.083	693.17
844.519	597.87
844.954	551.57
845.39	531.07
845.825	524.52
846.261	519.07
846.696	508.17
847.131	503.52
847.566	507.02
848.002	510.67
848.437	523.92
848.872	522.82
849.307	568.37
849.742	734.77
850.177	1323.82
850.613	2384.42
851.048	1778.47
851.483	1024.87
851.918	731.02
852.353	582.82
852.788	534.92
853.223	513.47
853.657	487.82
854.092	484.87
854.527	483.47
854.962	481.97
855.397	500.42
855.832	479.62
856.266	468.67
856.701	470.27
857.136	473.27
857.57	489.32
858.005	509.77
858.44	493.22
858.874	490.72
859.309	495.62
859.743	489.32
860.178	483.32
860.612	500.37
861.047	528.27
861.481	580.97
861.915	516.97
862.35	487.47
862.784	464.77
863.218	463.97
863.653	468.72
864.087	489.47
864.521	531.77
864.955	648.77
865.39	834.22
865.824	698.37
866.258	753.47
866.692	919.07
867.126	765.72
867.56	588.87
867.994	514.62
868.428	497.17
868.862	522.22
869.296	512.62
869.73	539.32
870.164	515.57
870.598	505.27
871.031	472.67
871.465	460.07
871.899	447.17
872.333	442.57
872.766	442.02
873.2	448.17
873.634	439.47
874.067	448.67
874.501	446.27
874.935	446.42
875.368	444.12
875.802	440.37
876.235	434.97
876.669	431.47
877.102	432.62
877.535	425.52
877.969	423.52
878.402	432.97
878.836	429.67
879.269	431.07
879.702	430.32
880.135	430.37
880.569	435.67
881.002	423.47
881.435	425.97
881.868	426.27
882.301	423.02
882.734	420.92
883.167	421.22
883.601	426.37
884.034	419.47
884.467	413.07
884.899	418.52
885.332	412.12
885.765	415.07
886.198	414.47
886.631	416.32
887.064	414.82
887.497	414.42
887.929	415.72
888.362	416.02
888.795	417.02
889.228	418.12
889.66	414.77
890.093	413.57
890.526	420.92
890.958	415.72
891.391	421.22
891.823	410.02
892.256	416.22
892.688	418.12
893.121	406.22
893.553	418.37
893.985	413.67
894.418	406.37
894.85	417.62
895.282	409.87
895.715	412.62
896.147	405.22
896.579	405.37
897.011	412.67
897.444	411.62
897.876	401.87
898.308	406.72
898.74	410.62
899.172	411.87
899.604	412.42
900.036	407.27
900.468	407.27
900.9	412.22
901.332	419.42
901.764	422.67
902.196	421.62
902.628	422.62
903.06	440.87
903.491	443.82
903.923	432.47
904.355	433.67
904.787	436.72
905.218	430.92
905.65	424.52
906.082	423.17
906.513	421.32
906.945	420.77
907.376	422.52
907.808	424.17
908.239	433.42
908.671	434.47
909.102	438.92
909.534	469.27
909.965	552.37
910.397	843.57
910.828	1708.02
911.259	1174.47
911.691	802.82
912.122	624.02
912.553	498.07
912.984	443.37
913.415	434.47
913.847	425.27
914.278	423.17
914.709	412.62
915.14	417.42
915.571	411.62
916.002	414.57
916.433	407.77
916.864	412.22
917.295	411.77
917.726	417.97
918.157	430.22
918.587	430.32
919.018	428.32
919.449	422.37
919.88	433.17
920.311	471.67
920.741	652.62
921.172	860.17
921.603	614.62
922.033	532.57
922.464	471.22
922.895	433.47
923.325	409.52
923.756	412.92
924.186	431.97
924.617	466.47
925.047	526.72
925.478	513.17
925.908	466.92
926.338	438.47
926.769	423.37
927.199	414.67
927.629	404.87
928.06	409.22
928.49	408.97
928.92	404.02
929.35	400.07
929.78	397.32
930.21	394.17
930.641	389.27
931.071	393.07
931.501	389.27
931.931	392.22
932.361	386.92
932.791	397.62
933.221	393.07
933.651	406.67
934.08	436.07
934.51	409.32
934.94	402.67
935.37	393.67
935.8	386.42
936.229	387.62
936.659	389.37
937.089	403.02
937.519	412.07
937.948	426.02
938.378	406.47
938.807	397.92
939.237	390.32
939.666	386.17
940.096	382.92
940.525	376.47
940.955	383.42
941.384	379.67
941.814	378.47
942.243	379.22
942.672	379.07
943.102	375.42
943.531	377.97
943.96	377.02
944.39	377.32
944.819	382.42
945.248	378.42
945.677	381.62
946.106	379.32
946.535	380.72
946.964	378.27
947.393	377.82
947.822	377.02
948.251	381.62
948.68	383.02
949.109	381.87
949.538	377.62
949.967	377.97
950.396	376.37
950.825	379.27
951.254	379.27
951.682	375.47
952.111	376.02
952.54	375.62
952.969	378.57
953.397	375.62
953.826	371.52
954.254	380.92
954.683	375.02
955.112	380.12
955.54	375.07
955.969	376.77
956.397	377.67
956.826	375.97
957.254	375.02
957.682	379.77
958.111	375.02
958.539	372.92
958.967	374.37
959.396	377.52
959.824	375.02
960.252	375.82
960.68	376.17
961.109	377.42
961.537	380.67
961.965	371.27
962.393	376.57
962.821	377.92
963.249	375.92
963.677	383.62
964.105	450.22
964.533	508.77
964.961	440.17
965.389	409.27
965.817	386.62
966.245	381.82
966.672	376.27
967.1	378.82
967.528	372.07
967.956	372.42
968.383	376.57
968.811	371.42
969.239	373.82
969.666	375.52
970.094	371.27
970.522	370.92
970.949	374.77
971.377	368.82
971.804	368.87
972.232	374.52
972.659	371.02
973.087	378.47
973.514	371.47
973.941	370.32
974.369	368.52
974.796	373.37
975.223	369.72
975.651	373.27
976.078	374.82
976.505	378.32
976.932	406.32
977.359	411.12
977.786	392.02
978.214	389.97
978.641	371.87
979.068	375.22
979.495	377.57
979.922	372.27
980.349	371.62
980.776	373.42
981.202	372.37
981.629	376.47
982.056	372.02
982.483	367.87
982.91	377.37
983.337	367.07
983.763	372.12
984.19	372.22
984.617	369.87
985.043	373.52
985.47	376.77
985.897	375.52
986.323	372.92
986.75	369.82
987.176	374.27
987.603	372.82
988.029	374.62
988.456	375.72
988.882	370.27
989.308	366.12
989.735	370.32
990.161	372.97
990.587	371.77
991.014	370.92
991.44	376.07
991.866	374.97
992.292	373.87
992.719	373.77
993.145	373.07
993.571	369.52
993.997	375.32
994.423	373.72
994.849	364.77
995.275	367.67
995.701	372.82
996.127	362.02
996.553	367.37
996.979	369.27
997.405	374.32
997.83	373.92
998.256	370.17
998.682	372.72
999.108	373.87
999.534	367.17
999.959	365.92
1000.385	375.07
1000.811	367.92
1001.236	367.37
1001.662	367.82
1002.087	376.22
1002.513	370.87
1002.938	370.02
1003.364	370.12
1003.789	370.92
1004.215	369.72
1004.64	365.72
1005.066	365.32
1005.491	374.82
1005.916	370.62
1006.342	376.07
1006.767	370.07
1007.192	377.82
1007.617	371.37
1008.042	376.32
1008.468	371.07
1008.893	376.72
1009.318	376.27
1009.743	381.77
1010.168	391.32
1010.593	386.02
1011.018	379.62
1011.443	376.12
1011.868	373.67
1012.293	371.57
1012.718	369.17
1013.143	369.12
1013.567	373.02
1013.992	371.92
1014.417	365.77
1014.842	368.42
1015.267	367.92
1015.691	376.57
1016.116	365.37
1016.541	372.17
1016.965	367.97
1017.39	371.32
1017.814	364.42
1018.239	362.82
1018.663	360.57
1019.088	362.67
1019.512	372.42
1019.937	365.82
1020.361	367.37
1020.785	365.57
1021.21	361.67
1021.634	368.57
1022.058	369.62
1022.483	368.07
1022.907	364.72
1023.331	367.62
1023.755	366.02
1024.179	371.17
1024.604	366.62
1025.028	369.62
1025.452	373.17
1025.876	371.07
1026.3	373.42
1026.724	363.77
1027.148	370.22
1027.572	368.82
1027.996	375.52
1028.42	366.07
1028.843	369.17
1029.267	369.02
1029.691	365.72
1030.115	369.97
1030.539	368.52
1030.962	365.42
1031.386	366.82
1031.81	363.92
1032.233	366.97
1032.657	364.17
1033.08	367.42
1033.504	367.17
1033.927	368.72
1034.351	366.22
1034.774	362.82
1035.198	366.37
1035.621	365.02
1036.045	365.72
1036.468	374.32
1036.891	368.62
1037.315	371.77
1037.738	367.22
1038.161	366.02
1038.584	369.97
1039.008	366.47
1039.431	367.22
1039.854	363.52
1040.277	373.27
1040.7	367.32
1041.123	368.87
1041.546	366.87
1041.969	374.42
1042.392	371.87
1042.815	362.92
1043.238	366.22
1043.661	368.32
1044.084	371.12
1044.507	366.32
1044.93	365.52
1045.352	371.42
1045.775	371.92
1046.198	371.62
1046.621	371.87
1047.043	368.02
1047.466	370.37
1047.889	368.42
1048.311	370.92
1048.734	368.22
1049.156	368.12
1049.579	366.22
1050.001	367.82
1050.424	366.27
1050.846	365.42
1051.269	365.02
1051.691	364.42
1052.113	368.42
1052.536	365.57
1052.958	365.62
1053.38	366.62
1053.802	373.92
1054.225	373.02
1054.647	371.42
1055.069	365.77
1055.491	368.12
1055.913	371.42
1056.335	357.52
1056.757	358.67
1057.179	362.62
1057.601	365.67
1058.023	367.42
1058.445	363.12
1058.867	369.77
1059.289	362.97
1059.711	364.72
1060.133	368.12
1060.555	368.22
1060.976	371.97
1061.398	365.42
1061.82	370.02
1062.241	361.37
1062.663	365.87
1063.085	365.27
1063.506	362.37
1063.928	362.17
1064.35	364.07
1064.771	364.27
1065.193	364.42
1065.614	363.97
1066.035	369.22
1066.457	373.52
1066.878	369.27
1067.3	364.82
1067.721	371.67
1068.142	373.12
1068.564	370.42
1068.985	367.87
1069.406	363.57
1069.827	365.22
1070.248	363.47
1070.67	363.87
1071.091	364.52
1071.512	365.82
1071.933	366.32
1072.354	362.67
1072.775	367.22
1073.196	370.92
1073.617	364.07
1074.038	368.02
1074.459	362.22
1074.88	363.67
1075.3	364.17
1075.721	368.47
1076.142	362.87
1076.563	360.87
1076.983	368.32
1077.404	359.02
1077.825	369.27
1078.246	361.12
1078.666	365.22
1079.087	363.62
1079.507	362.77
1079.928	363.82
1080.348	367.02
1080.769	368.12
1081.189	365.22
1081.61	361.37
1082.03	367.07
1082.451	365.92
1082.871	362.12
1083.291	364.07
1083.711	367.92
1084.132	364.87
1084.552	361.72
1084.972	360.52
1085.392	360.42
1085.813	366.22
1086.233	363.12
1086.653	371.02
1087.073	362.17
1087.493	365.92
1087.913	360.72
1088.333	365.87
1088.753	368.82
1089.173	369.02
1089.593	369.02
1090.013	366.37
1090.433	356.97
1090.852	367.62
1091.272	363.07
1091.692	367.17
1092.112	364.07
1092.531	360.72
1092.951	365.92
1093.371	364.82
1093.79	365.57
1094.21	363.17
1094.63	363.77
1095.049	367.47
1095.469	359.92
1095.888	369.47
1096.308	367.52
1096.727	367.07
1097.146	363.72
1097.566	365.62
1097.985	365.82
1098.405	365.47
1098.824	367.52
1099.243	362.47
1099.662	363.62
1100.082	362.02
1100.501	370.57
1100.92	371.42
1101.339	369.87
1101.758	370.52
