Data from MSPlasma+Separation6_Subt14_10-15-48-356.txt Node
Date: Fri Jul 21 10:15:48 EDT 2017
User: Ender
Spectrometer: HR+D1039
Trigger mode: 0
Integration Time (sec): 2.510000E-3
Scans to average: 20
Electric dark correction enabled: true
Nonlinearity correction enabled: false
Boxcar width: 0
XAxis mode: Wavelengths
Number of Pixels in Spectrum: 2048
>>>>>Begin Spectral Data<<<<<
187.836	0.66
188.309	0.66
188.782	0.66
189.255	-0.14
189.728	1.96
190.201	3.16
190.674	-0.64
191.147	-5.64
191.619	-2.29
192.092	0.36
192.565	-4.89
193.038	4.56
193.511	4.31
193.984	-1.84
194.456	-0.24
194.929	0.06
195.402	-2.79
195.874	3.41
196.347	0.46
196.82	3.41
197.292	1.61
197.765	1.21
198.237	-2.49
198.71	-2.54
199.182	0.36
199.655	1.96
200.127	-0.24
200.6	-3.14
201.072	4.81
201.544	-4.24
202.017	4.26
202.489	-1.74
202.961	-1.94
203.433	-2.54
203.906	-2.04
204.378	-0.04
204.85	0.06
205.322	-4.59
205.794	0.76
206.266	-4.24
206.739	-0.34
207.211	-2.39
207.683	-4.89
208.155	1.31
208.627	-1.19
209.099	-1.49
209.57	-2.39
210.042	-1.39
210.514	0.81
210.986	0.31
211.458	-1.34
211.93	-0.59
212.402	2.71
212.873	-4.39
213.345	-4.39
213.817	2.86
214.288	-5.89
214.76	-0.94
215.232	-2.19
215.703	-4.49
216.175	-3.04
216.646	3.76
217.118	0.86
217.589	-7.09
218.061	2.56
218.532	-6.14
219.004	0.46
219.475	2.51
219.946	5.21
220.418	14.41
220.889	8.66
221.36	3.41
221.832	5.56
222.303	0.36
222.774	0.71
223.245	-3.19
223.717	-1.39
224.188	3.01
224.659	-0.24
225.13	-1.04
225.601	0.71
226.072	2.61
226.543	1.06
227.014	-2.79
227.485	-2.44
227.956	-0.49
228.427	8.16
228.898	2.41
229.369	2.96
229.839	3.81
230.31	5.76
230.781	0.71
231.252	3.61
231.722	7.31
232.193	6.76
232.664	7.86
233.135	14.01
233.605	15.06
234.076	14.61
234.546	11.41
235.017	16.06
235.487	13.31
235.958	12.36
236.428	22.11
236.899	32.06
237.369	39.71
237.84	28.26
238.31	36.66
238.78	31.56
239.251	37.91
239.721	34.56
240.191	24.46
240.662	18.31
241.132	13.46
241.602	17.16
242.072	23.56
242.542	25.01
243.013	15.06
243.483	20.56
243.953	9.11
244.423	12.61
244.893	11.61
245.363	18.86
245.833	14.86
246.303	14.41
246.773	30.16
247.243	24.76
247.712	27.61
248.182	36.61
248.652	37.91
249.122	57.46
249.592	111.71
250.061	163.81
250.531	261.96
251.001	209.46
251.471	167.76
251.94	127.81
252.41	69.81
252.879	46.11
253.349	39.06
253.818	26.11
254.288	24.26
254.757	26.86
255.227	33.06
255.696	24.91
256.166	22.51
256.635	27.76
257.105	36.31
257.574	46.06
258.043	45.71
258.513	83.26
258.982	97.46
259.451	79.41
259.92	70.71
260.389	72.41
260.859	43.31
261.328	59.61
261.797	84.56
262.266	72.61
262.735	35.96
263.204	17.26
263.673	16.96
264.142	9.81
264.611	18.96
265.08	24.01
265.549	19.56
266.018	20.36
266.487	15.01
266.955	15.31
267.424	21.46
267.893	24.41
268.362	22.36
268.83	20.71
269.299	20.81
269.768	26.81
270.236	34.26
270.705	34.81
271.174	36.16
271.642	34.01
272.111	39.71
272.579	61.31
273.048	106.76
273.516	138.31
273.985	141.31
274.453	108.11
274.922	60.71
275.39	38.16
275.858	38.21
276.327	29.91
276.795	30.16
277.263	35.16
277.731	42.76
278.2	98.06
278.668	121.36
279.136	96.31
279.604	59.96
280.072	29.46
280.54	29.51
281.008	34.66
281.477	37.86
281.945	33.56
282.413	32.96
282.881	36.56
283.348	34.46
283.816	40.96
284.284	39.36
284.752	36.46
285.22	40.51
285.688	43.01
286.156	74.71
286.623	205.81
287.091	400.86
287.559	204.96
288.026	83.76
288.494	49.46
288.962	45.46
289.429	39.01
289.897	38.31
290.364	33.81
290.832	32.36
291.3	36.21
291.767	40.36
292.234	45.81
292.702	38.96
293.169	43.36
293.637	45.16
294.104	42.61
294.571	40.06
295.039	43.06
295.506	36.26
295.973	41.21
296.44	39.96
296.908	47.46
297.375	53.66
297.842	52.51
298.309	41.06
298.776	41.16
299.243	48.36
299.71	43.36
300.177	43.56
300.644	48.16
301.111	54.36
301.578	48.66
302.045	43.76
302.512	43.06
302.979	49.56
303.446	50.11
303.913	50.56
304.379	56.51
304.846	65.71
305.313	68.86
305.78	87.21
306.246	105.06
306.713	111.71
307.18	100.51
307.646	105.76
308.113	93.46
308.579	72.26
309.046	75.46
309.512	74.31
309.979	64.61
310.445	57.16
310.912	61.61
311.378	66.46
311.845	63.41
312.311	59.11
312.777	54.06
313.244	64.51
313.71	63.56
314.176	75.41
314.642	83.96
315.109	94.46
315.575	93.46
316.041	81.41
316.507	77.31
316.973	90.56
317.439	90.31
317.905	98.31
318.371	96.21
318.837	90.66
319.303	95.21
319.769	83.06
320.235	101.06
320.701	110.66
321.167	118.41
321.633	150.96
322.099	200.96
322.564	271.61
323.03	211.41
323.496	143.21
323.962	135.81
324.427	130.41
324.893	111.66
325.359	110.81
325.824	97.46
326.29	100.31
326.755	92.91
327.221	94.91
327.686	107.16
328.152	93.76
328.617	90.21
329.083	91.76
329.548	93.26
330.014	96.96
330.479	110.21
330.944	132.81
331.41	150.11
331.875	141.21
332.34	147.86
332.805	169.76
333.271	216.76
333.736	289.16
334.201	256.96
334.666	195.21
335.131	215.66
335.596	175.91
336.061	177.61
336.526	181.16
336.991	155.51
337.456	167.46
337.921	139.26
338.386	109.76
338.851	100.71
339.316	93.26
339.781	88.41
340.246	90.51
340.711	89.81
341.175	87.41
341.64	95.61
342.105	94.26
342.569	107.21
343.034	111.31
343.499	114.36
343.963	116.41
344.428	109.61
344.893	115.86
345.357	116.11
345.822	112.81
346.286	115.41
346.751	118.46
347.215	117.76
347.679	123.81
348.144	136.96
348.608	126.36
349.073	134.06
349.537	149.31
350.001	146.01
350.465	141.06
350.93	127.66
351.394	131.21
351.858	124.81
352.322	139.16
352.786	136.21
353.25	137.31
353.715	134.76
354.179	149.41
354.643	147.16
355.107	149.01
355.571	156.06
356.035	164.91
356.498	164.21
356.962	167.91
357.426	169.31
357.89	154.91
358.354	144.26
358.818	141.31
359.281	148.41
359.745	160.26
360.209	143.96
360.673	152.36
361.136	154.81
361.6	152.51
362.064	158.16
362.527	166.21
362.991	161.76
363.454	166.66
363.918	174.26
364.381	164.11
364.845	161.61
365.308	156.26
365.772	161.46
366.235	164.71
366.698	174.41
367.162	206.11
367.625	231.91
368.088	191.41
368.552	169.56
369.015	170.81
369.478	186.21
369.941	190.41
370.404	188.01
370.867	204.26
371.331	211.31
371.794	209.71
372.257	234.91
372.72	245.41
373.183	239.56
373.646	240.11
374.109	237.86
374.572	276.16
375.035	332.96
375.497	245.56
375.96	201.56
376.423	187.86
376.886	188.41
377.349	192.16
377.811	197.46
378.274	201.31
378.737	200.41
379.199	203.61
379.662	214.71
380.125	229.06
380.587	253.36
381.05	263.71
381.512	255.16
381.975	251.21
382.437	255.26
382.9	248.06
383.362	249.56
383.825	267.56
384.287	337.21
384.75	377.01
385.212	338.86
385.674	277.71
386.136	250.46
386.599	248.56
387.061	254.01
387.523	266.86
387.985	273.16
388.447	282.71
388.91	328.66
389.372	391.41
389.834	366.11
390.296	300.36
390.758	301.41
391.22	311.16
391.682	378.56
392.144	576.06
392.606	531.06
393.068	328.06
393.529	297.51
393.991	290.36
394.453	283.31
394.915	296.36
395.377	358.31
395.838	432.36
396.3	313.86
396.762	240.76
397.224	232.56
397.685	223.51
398.147	231.61
398.608	228.96
399.07	237.76
399.531	227.56
399.993	240.81
400.454	236.16
400.916	236.86
401.377	244.86
401.839	251.61
402.3	247.21
402.762	261.46
403.223	286.61
403.684	283.86
404.145	264.91
404.607	264.06
405.068	262.36
405.529	271.61
405.99	275.16
406.451	277.41
406.913	271.86
407.374	275.01
407.835	278.86
408.296	294.81
408.757	290.16
409.218	300.66
409.679	304.21
410.14	304.46
410.601	322.26
411.062	330.06
411.522	379.01
411.983	424.81
412.444	356.66
412.905	317.76
413.366	304.71
413.826	327.81
414.287	361.96
414.748	429.26
415.208	431.66
415.669	357.66
416.13	334.41
416.59	329.81
417.051	342.26
417.511	352.76
417.972	377.71
418.432	405.51
418.893	439.71
419.353	429.16
419.814	326.31
420.274	297.21
420.734	292.66
421.195	315.66
421.655	322.96
422.115	319.41
422.576	308.76
423.036	301.91
423.496	317.91
423.956	340.31
424.416	370.41
424.876	409.26
425.336	402.51
425.797	405.56
426.257	407.16
426.717	380.41
427.177	365.31
427.637	371.61
428.097	396.91
428.556	418.86
429.016	454.46
429.476	451.46
429.936	436.36
430.396	422.91
430.856	428.36
431.315	437.56
431.775	472.81
432.235	490.06
432.694	507.31
433.154	475.51
433.614	459.36
434.073	444.31
434.533	405.86
434.993	384.81
435.452	390.96
435.912	385.01
436.371	376.51
436.83	380.36
437.29	382.26
437.749	363.86
438.209	358.61
438.668	363.76
439.127	361.16
439.587	354.26
440.046	346.56
440.505	345.56
440.964	351.71
441.424	353.81
441.883	365.56
442.342	351.11
442.801	331.06
443.26	340.16
443.719	336.96
444.178	328.16
444.637	332.66
445.096	335.46
445.555	343.56
446.014	341.96
446.473	336.91
446.932	331.61
447.391	339.51
447.849	343.06
448.308	343.66
448.767	352.66
449.226	354.01
449.685	363.56
450.143	376.61
450.602	378.11
451.061	361.81
451.519	365.16
451.978	371.46
452.436	388.41
452.895	372.26
453.353	354.76
453.812	363.36
454.27	358.71
454.729	345.76
455.187	351.66
455.646	348.56
456.104	355.11
456.562	356.71
457.021	349.96
457.479	337.51
457.937	347.36
458.395	351.41
458.854	352.71
459.312	346.46
459.77	350.76
460.228	356.71
460.686	358.71
461.144	359.31
461.602	355.26
462.06	354.21
462.518	369.66
462.976	363.96
463.434	366.16
463.892	371.76
464.35	381.36
464.808	388.91
465.266	387.31
465.724	395.16
466.181	389.56
466.639	387.91
467.097	406.96
467.555	417.56
468.012	420.06
468.47	425.76
468.928	434.76
469.385	449.56
469.843	451.66
470.3	452.66
470.758	466.91
471.215	471.46
471.673	484.31
472.13	501.56
472.588	508.36
473.045	513.16
473.503	519.31
473.96	538.81
474.417	551.41
474.875	569.11
475.332	594.91
475.789	602.01
476.246	619.31
476.704	652.76
477.161	673.01
477.618	693.16
478.075	738.01
478.532	792.66
478.989	868.96
479.446	965.36
479.903	1024.06
480.36	1128.76
480.817	1210.66
481.274	1304.76
481.731	1430.21
482.188	1544.06
482.645	1660.41
483.102	1754.16
483.558	1873.06
484.015	1980.16
484.472	1976.71
484.929	1913.86
485.385	1818.26
485.842	1766.61
486.299	1667.26
486.755	1514.86
487.212	1342.26
487.668	1200.66
488.125	1101.61
488.582	1012.91
489.038	966.46
489.494	927.06
489.951	898.01
490.407	871.96
490.864	862.81
491.32	831.01
491.776	825.51
492.233	828.06
492.689	815.71
493.145	798.11
493.602	797.96
494.058	802.61
494.514	818.51
494.97	821.36
495.426	832.41
495.882	827.81
496.338	837.06
496.794	867.26
497.251	867.56
497.707	872.26
498.163	870.46
498.618	867.41
499.074	882.26
499.53	899.11
499.986	916.16
500.442	923.01
500.898	925.66
501.354	935.06
501.809	945.46
502.265	956.91
502.721	1000.21
503.177	1028.21
503.632	969.91
504.088	976.86
504.543	1063.96
504.999	997.16
505.455	879.51
505.91	841.66
506.366	824.11
506.821	825.66
507.277	821.76
507.732	826.91
508.187	834.51
508.643	833.81
509.098	830.61
509.553	839.96
510.009	848.41
510.464	868.21
510.919	879.46
511.375	886.01
511.83	896.51
512.285	916.66
512.74	937.21
513.195	945.31
513.65	971.31
514.105	976.31
514.56	979.61
515.015	993.91
515.47	1009.21
515.925	1000.06
516.38	994.46
516.835	996.01
517.29	990.06
517.745	1000.06
518.2	974.21
518.655	950.06
519.109	937.56
519.564	927.76
520.019	931.51
520.474	917.16
520.928	898.36
521.383	907.91
521.838	912.91
522.292	894.56
522.747	890.36
523.201	892.51
523.656	870.26
524.11	874.86
524.565	870.26
525.019	874.61
525.474	879.26
525.928	875.31
526.382	857.86
526.837	857.46
527.291	858.31
527.745	852.66
528.2	853.06
528.654	839.31
529.108	847.91
529.562	859.11
530.016	852.71
530.47	850.06
530.925	846.61
531.379	849.51
531.833	862.81
532.287	854.56
532.741	850.56
533.195	850.56
533.649	855.96
534.103	859.61
534.556	848.46
535.01	856.61
535.464	848.86
535.918	862.81
536.372	863.81
536.826	862.21
537.279	850.26
537.733	850.11
538.187	858.76
538.64	861.91
539.094	863.96
539.548	874.26
540.001	869.61
540.455	875.66
540.908	881.61
541.362	889.76
541.815	900.41
542.269	922.01
542.722	905.46
543.175	924.76
543.629	922.76
544.082	935.31
544.536	931.81
544.989	945.76
545.442	949.91
545.895	945.71
546.349	948.11
546.802	950.36
547.255	948.41
547.708	955.76
548.161	963.56
548.614	965.86
549.067	966.36
549.52	961.11
549.973	949.26
550.426	954.41
550.879	932.86
551.332	936.66
551.785	946.41
552.238	955.06
552.691	952.71
553.144	967.71
553.596	989.81
554.049	996.86
554.502	1004.51
554.955	1028.46
555.407	1041.66
555.86	1038.36
556.313	1021.36
556.765	1009.76
557.218	993.91
557.67	1004.16
558.123	983.01
558.576	988.11
559.028	974.71
559.48	993.21
559.933	977.56
560.385	953.66
560.838	928.36
561.29	899.01
561.742	900.71
562.195	882.31
562.647	876.06
563.099	871.76
563.551	868.81
564.004	879.86
564.456	869.56
564.908	853.26
565.36	836.76
565.812	822.81
566.264	822.86
566.716	804.16
567.168	783.66
567.62	796.16
568.072	787.21
568.524	770.31
568.976	771.41
569.428	767.96
569.88	766.51
570.332	770.26
570.784	773.86
571.235	753.61
571.687	773.81
572.139	772.36
572.59	774.36
573.042	783.31
573.494	779.16
573.945	763.51
574.397	754.71
574.849	758.41
575.3	757.96
575.752	743.46
576.203	738.06
576.655	744.56
577.106	734.11
577.557	726.91
578.009	727.76
578.46	728.11
578.912	720.21
579.363	727.46
579.814	727.91
580.265	727.96
580.717	725.51
581.168	715.91
581.619	721.96
582.07	733.91
582.521	734.96
582.972	730.76
583.423	737.61
583.875	757.21
584.326	799.81
584.777	869.71
585.227	958.61
585.678	1010.66
586.129	1035.11
586.58	1054.21
587.031	1052.71
587.482	1116.16
587.933	1297.46
588.384	1201.46
588.834	990.56
589.285	845.46
589.736	828.01
590.186	828.81
590.637	820.66
591.088	801.71
591.538	797.41
591.989	786.41
592.439	778.86
592.89	774.66
593.34	776.71
593.791	785.26
594.241	783.81
594.692	796.36
595.142	787.51
595.593	777.86
596.043	784.81
596.493	787.46
596.943	812.36
597.394	798.56
597.844	786.61
598.294	797.01
598.744	828.01
599.195	864.86
599.645	910.81
600.095	948.76
600.545	999.36
600.995	1039.11
601.445	1074.66
601.895	1118.36
602.345	1154.66
602.795	1130.16
603.245	1074.26
603.695	1012.71
604.145	964.06
604.594	921.46
605.044	873.41
605.494	824.31
605.944	788.76
606.393	773.71
606.843	765.21
607.293	761.16
607.743	757.76
608.192	772.16
608.642	767.26
609.091	774.31
609.541	771.36
609.99	764.96
610.44	749.46
610.889	743.71
611.339	740.51
611.788	730.26
612.238	740.41
612.687	743.76
613.136	758.06
613.586	771.01
614.035	771.21
614.484	777.16
614.933	786.06
615.383	764.76
615.832	741.01
616.281	725.16
616.73	705.66
617.179	686.56
617.628	674.86
618.077	663.36
618.526	655.11
618.975	657.96
619.424	634.76
619.873	641.81
620.322	634.16
620.771	631.26
621.22	624.96
621.669	616.71
622.118	604.26
622.567	603.76
623.015	595.76
623.464	596.36
623.913	580.51
624.361	587.71
624.81	581.26
625.259	576.81
625.707	570.06
626.156	571.56
626.604	589.16
627.053	579.26
627.501	576.41
627.95	586.86
628.398	590.36
628.847	584.76
629.295	588.06
629.744	597.66
630.192	613.51
630.64	660.46
631.089	734.16
631.537	760.46
631.985	770.01
632.433	800.91
632.881	794.81
633.33	951.71
633.778	1032.61
634.226	737.71
634.674	683.36
635.122	673.46
635.57	678.36
636.018	792.06
636.466	645.41
636.914	573.46
637.362	567.61
637.81	576.61
638.258	589.66
638.705	596.96
639.153	617.66
639.601	626.71
640.049	638.36
640.497	653.01
640.944	661.86
641.392	640.51
641.84	602.86
642.287	583.36
642.735	568.36
643.182	570.26
643.63	570.41
644.078	575.46
644.525	582.21
644.973	601.86
645.42	616.56
645.867	615.96
646.315	634.36
646.762	664.66
647.21	678.61
647.657	715.21
648.104	755.81
648.551	778.01
648.999	855.41
649.446	950.91
649.893	1073.06
650.34	1290.71
650.787	1604.31
651.234	2091.31
651.682	2948.71
652.129	4302.16
652.576	6223.81
653.023	8298.26
653.47	9644.71
653.917	10352.41
654.363	10663.36
654.81	11208.96
655.257	11241.71
655.704	7676.41
656.151	4482.21
656.598	2871.56
657.044	2048.86
657.491	1589.31
657.938	1289.61
658.385	1083.26
658.831	946.36
659.278	836.76
659.724	760.71
660.171	707.91
660.618	652.06
661.064	617.16
661.511	595.36
661.957	566.51
662.404	562.11
662.85	550.86
663.296	539.21
663.743	521.16
664.189	516.66
664.635	514.01
665.082	504.01
665.528	499.16
665.974	483.26
666.42	488.51
666.867	491.11
667.313	491.46
667.759	513.76
668.205	515.61
668.651	522.31
669.097	498.61
669.543	547.86
669.989	519.11
670.435	450.21
670.881	445.31
671.327	469.96
671.773	495.76
672.219	533.16
672.665	571.26
673.11	580.61
673.556	590.66
674.002	599.26
674.448	603.66
674.893	509.61
675.339	454.56
675.785	414.41
676.23	396.21
676.676	382.76
677.122	375.16
677.567	364.21
678.013	347.11
678.458	350.16
678.904	347.96
679.349	347.26
679.794	346.21
680.24	345.76
680.685	339.96
681.131	341.86
681.576	341.51
682.021	349.46
682.466	349.86
682.912	351.46
683.357	370.16
683.802	403.96
684.247	440.41
684.692	464.96
685.137	475.31
685.583	485.21
686.028	507.96
686.473	485.61
686.918	414.21
687.363	380.66
687.807	367.61
688.252	346.11
688.697	338.31
689.142	327.06
689.587	333.61
690.032	336.26
690.477	349.81
690.921	369.96
691.366	392.31
691.811	405.76
692.255	440.16
692.7	528.01
693.145	770.16
693.589	1151.96
694.034	1354.71
694.478	1402.46
694.923	1266.46
695.367	1734.76
695.812	1103.36
696.256	491.66
696.701	364.11
697.145	332.16
697.59	323.71
698.034	319.06
698.478	319.56
698.922	323.76
699.367	333.51
699.811	343.96
700.255	380.96
700.699	409.16
701.143	437.31
701.588	465.36
702.032	473.06
702.476	492.96
702.92	524.86
703.364	702.46
703.808	1062.51
704.252	1280.91
704.696	1344.21
705.14	1248.61
705.584	1645.26
706.027	966.86
706.471	501.86
706.915	372.86
707.359	336.56
707.803	317.01
708.246	296.01
708.69	301.51
709.134	293.36
709.577	302.66
710.021	305.86
710.465	301.66
710.908	300.36
711.352	313.31
711.795	350.06
712.239	374.16
712.682	380.11
713.126	373.66
713.569	417.56
714.012	345.21
714.456	305.61
714.899	282.71
715.342	271.11
715.786	256.21
716.229	252.71
716.672	245.91
717.115	244.16
717.558	249.91
718.002	256.71
718.445	265.96
718.888	283.71
719.331	287.01
719.774	290.41
720.217	282.26
720.66	265.41
721.103	254.16
721.546	245.11
721.989	233.06
722.432	228.96
722.874	231.16
723.317	234.86
723.76	259.21
724.203	322.61
724.645	424.26
725.088	488.86
725.531	471.86
725.974	509.46
726.416	460.61
726.859	292.66
727.301	237.01
727.744	232.96
728.187	231.21
728.629	235.81
729.071	248.71
729.514	259.21
729.956	267.31
730.399	272.06
730.841	265.91
731.283	260.26
731.726	251.16
732.168	261.91
732.61	275.96
733.053	292.56
733.495	325.21
733.937	362.46
734.379	430.41
734.821	552.31
735.263	873.31
735.705	1536.26
736.148	2168.56
736.59	2117.66
737.032	2238.16
737.474	1882.26
737.916	774.76
738.357	413.41
738.799	319.26
739.241	291.21
739.683	291.01
740.125	291.46
740.567	296.61
741.008	308.61
741.45	326.06
741.892	332.46
742.334	332.56
742.775	336.41
743.217	311.81
743.658	274.91
744.1	277.16
744.542	308.76
744.983	314.71
745.425	330.11
745.866	331.01
746.307	299.86
746.749	328.16
747.19	477.51
747.632	930.91
748.073	1660.11
748.514	2224.86
748.956	2931.16
749.397	3370.71
749.838	2342.66
750.279	2167.56
750.72	1182.66
751.162	506.51
751.603	296.71
752.044	239.11
752.485	212.16
752.926	198.01
753.367	193.46
753.808	191.26
754.249	180.36
754.69	186.61
755.131	182.16
755.572	182.81
756.013	177.21
756.453	179.71
756.894	188.51
757.335	186.51
757.776	184.51
758.216	194.31
758.657	205.81
759.098	227.91
759.538	275.86
759.979	399.26
760.42	815.91
760.86	2023.96
761.301	4082.21
761.741	4623.11
762.182	5168.41
762.622	3370.46
763.063	1314.56
763.503	582.36
763.943	452.66
764.384	484.36
764.824	453.21
765.264	448.96
765.705	323.26
766.145	230.01
766.585	205.11
767.025	215.21
767.465	283.56
767.906	349.11
768.346	364.91
768.786	374.61
769.226	391.96
769.666	665.76
770.106	1402.11
770.546	1899.31
770.986	2063.26
771.426	1586.11
771.866	702.86
772.306	330.86
772.745	202.66
773.185	177.61
773.625	184.01
774.065	213.71
774.505	353.46
774.944	705.86
775.384	1029.51
775.824	1119.46
776.263	922.71
776.703	470.21
777.142	241.36
777.582	169.21
778.021	151.11
778.461	143.56
778.9	141.06
779.34	125.81
779.779	115.61
780.219	118.16
780.658	114.41
781.097	112.31
781.537	108.71
781.976	106.66
782.415	106.71
782.855	110.41
783.294	104.71
783.733	102.11
784.172	109.91
784.611	102.71
785.05	107.36
785.489	110.76
785.928	115.81
786.367	119.31
786.806	122.81
787.245	135.56
787.684	132.81
788.123	131.76
788.562	131.01
789.001	125.96
789.44	126.11
789.879	126.91
790.317	123.06
790.756	128.31
791.195	149.86
791.634	209.86
792.072	369.61
792.511	912.11
792.95	1585.46
793.388	1831.31
793.827	1217.51
794.265	583.86
794.704	284.16
795.142	174.46
795.581	145.11
796.019	128.31
796.458	129.51
796.896	134.06
797.334	153.36
797.773	207.01
798.211	404.31
798.649	816.31
799.087	1329.41
799.526	1829.31
799.964	1851.51
800.402	1273.96
800.84	612.61
801.278	300.06
801.716	182.21
802.154	144.06
802.592	138.96
803.03	138.66
803.468	142.91
803.906	146.11
804.344	139.91
804.782	135.86
805.22	138.01
805.658	143.61
806.096	153.96
806.533	166.81
806.971	220.86
807.409	327.16
807.847	655.16
808.284	1588.06
808.722	2689.51
809.16	3758.76
809.597	5179.86
810.035	6171.66
810.472	3939.31
810.91	1789.86
811.347	813.51
811.785	383.31
812.222	240.16
812.66	184.81
813.097	160.91
813.535	139.91
813.972	125.36
814.409	113.61
814.846	111.71
815.284	105.21
815.721	102.01
816.158	115.36
816.595	141.51
817.032	171.11
817.47	158.81
817.907	122.16
818.344	112.66
818.781	107.86
819.218	125.46
819.655	173.61
820.092	224.61
820.529	210.91
820.966	170.36
821.403	130.06
821.839	116.51
822.276	120.91
822.713	137.71
823.15	132.11
823.587	146.26
824.023	269.56
824.46	662.86
824.897	1101.61
825.333	847.86
825.77	413.56
826.206	218.06
826.643	124.71
827.08	94.71
827.516	85.81
827.953	78.61
828.389	78.06
828.825	72.01
829.262	70.16
829.698	62.91
830.135	59.71
830.571	55.76
831.007	62.36
831.443	65.21
831.88	68.11
832.316	66.61
832.752	63.36
833.188	64.56
833.624	66.81
834.06	69.96
834.497	61.71
834.933	65.96
835.369	77.76
835.805	82.26
836.241	79.41
836.677	96.06
837.112	104.51
837.548	130.11
837.984	199.51
838.42	426.46
838.856	1147.81
839.292	2116.61
839.727	1582.26
840.163	1139.46
840.599	1686.01
841.034	2445.21
841.47	1263.71
841.906	643.31
842.341	365.31
842.777	321.01
843.212	363.71
843.648	217.86
844.083	139.61
844.519	93.91
844.954	75.36
845.39	62.11
845.825	61.61
846.261	59.16
846.696	58.56
847.131	50.16
847.566	60.81
848.002	54.66
848.437	64.26
848.872	61.31
849.307	75.36
849.742	148.06
850.177	380.31
850.613	777.31
851.048	555.11
851.483	257.16
851.918	147.96
852.353	87.41
852.788	68.61
853.223	61.21
853.657	52.41
854.092	49.06
854.527	45.31
854.962	46.51
855.397	54.56
855.832	46.46
856.266	37.71
856.701	40.11
857.136	43.51
857.57	44.96
858.005	49.61
858.44	47.31
858.874	46.81
859.309	50.76
859.743	46.21
860.178	44.21
860.612	49.36
861.047	62.31
861.481	84.01
861.915	53.81
862.35	44.16
862.784	34.66
863.218	37.81
863.653	41.71
864.087	43.11
864.521	65.01
864.955	113.06
865.39	184.61
865.824	127.81
866.258	148.11
866.692	213.36
867.126	153.86
867.56	84.51
867.994	56.01
868.428	55.01
868.862	59.41
869.296	53.36
869.73	63.86
870.164	58.46
870.598	50.41
871.031	41.56
871.465	37.71
871.899	32.61
872.333	24.96
872.766	33.71
873.2	32.61
873.634	29.81
874.067	37.01
874.501	35.61
874.935	28.91
875.368	27.41
875.802	27.06
876.235	26.26
876.669	26.61
877.102	21.31
877.535	25.96
877.969	21.26
878.402	22.91
878.836	24.26
879.269	21.86
879.702	17.76
880.135	24.81
880.569	25.81
881.002	20.61
881.435	22.86
881.868	22.71
882.301	19.81
882.734	18.71
883.167	25.66
883.601	21.86
884.034	22.06
884.467	18.26
884.899	22.11
885.332	14.71
885.765	19.36
886.198	18.16
886.631	13.96
887.064	16.26
887.497	14.61
887.929	20.26
888.362	17.76
888.795	16.51
889.228	25.06
889.66	17.16
890.093	16.86
890.526	17.66
890.958	19.96
891.391	19.01
891.823	17.36
892.256	18.11
892.688	19.91
893.121	14.06
893.553	20.86
893.985	14.56
894.418	12.61
894.85	18.06
895.282	16.11
895.715	17.91
896.147	11.96
896.579	13.56
897.011	16.86
897.444	14.21
897.876	11.31
898.308	14.11
898.74	12.51
899.172	16.56
899.604	16.56
900.036	18.66
900.468	12.66
900.9	15.16
901.332	21.81
901.764	17.11
902.196	20.16
902.628	13.11
903.06	29.06
903.491	27.11
903.923	23.11
904.355	30.26
904.787	25.81
905.218	21.96
905.65	21.96
906.082	19.81
906.513	18.81
906.945	17.86
907.376	20.86
907.808	22.06
908.239	26.36
908.671	26.96
909.102	30.76
909.534	40.56
909.965	76.16
910.397	182.51
910.828	513.71
911.259	317.21
911.691	173.46
912.122	104.71
912.553	54.86
912.984	23.56
913.415	20.91
913.847	21.66
914.278	21.71
914.709	18.46
915.14	15.11
915.571	18.36
916.002	19.81
916.433	16.56
916.864	14.01
917.295	16.11
917.726	17.26
918.157	23.61
918.587	19.66
919.018	22.01
919.449	17.76
919.88	21.46
920.311	39.66
920.741	107.51
921.172	190.91
921.603	93.66
922.033	61.56
922.464	39.61
922.895	24.56
923.325	17.56
923.756	12.71
924.186	26.61
924.617	41.21
925.047	64.41
925.478	58.91
925.908	42.81
926.338	29.36
926.769	23.76
927.199	19.06
927.629	13.96
928.06	18.56
928.49	16.61
928.92	11.56
929.35	14.91
929.78	10.51
930.21	9.56
930.641	6.76
931.071	7.41
931.501	7.81
931.931	7.26
932.361	8.61
932.791	12.56
933.221	12.51
933.651	14.91
934.08	20.96
934.51	13.16
934.94	15.76
935.37	13.36
935.8	12.26
936.229	3.21
936.659	3.21
937.089	9.56
937.519	17.61
937.948	24.81
938.378	17.86
938.807	11.26
939.237	6.06
939.666	9.46
940.096	1.56
940.525	-0.89
940.955	4.86
941.384	3.21
941.814	2.16
942.243	3.36
942.672	5.96
943.102	2.06
943.531	4.81
943.96	3.66
944.39	-0.19
944.819	-0.04
945.248	2.86
945.677	4.56
946.106	1.06
946.535	2.81
946.964	1.01
947.393	0.46
947.822	-1.74
948.251	4.06
948.68	-1.34
949.109	5.86
949.538	-1.09
949.967	2.21
950.396	-1.59
950.825	5.36
951.254	-2.44
951.682	-5.74
952.111	-0.24
952.54	0.61
952.969	2.11
953.397	-0.24
953.826	-0.29
954.254	6.96
954.683	4.71
955.112	3.06
955.54	-0.64
955.969	1.61
956.397	6.81
956.826	-1.09
957.254	0.21
957.682	0.16
958.111	5.86
958.539	3.31
958.967	1.46
959.396	4.61
959.824	6.81
960.252	2.86
960.68	1.81
961.109	6.46
961.537	11.86
961.965	-1.19
962.393	-1.19
962.821	2.01
963.249	2.26
963.677	2.71
964.105	30.86
964.533	53.86
964.961	25.21
965.389	11.36
965.817	2.96
966.245	2.06
966.672	5.06
967.1	1.71
967.528	-3.99
967.956	-2.94
968.383	1.36
968.811	-3.79
969.239	1.11
969.666	5.86
970.094	-0.89
970.522	-1.14
970.949	-0.89
971.377	-1.59
971.804	-1.04
972.232	-0.89
972.659	2.66
973.087	1.31
973.514	-0.94
973.941	0.26
974.369	-5.39
974.796	-2.69
975.223	-3.99
975.651	-1.49
976.078	-2.79
976.505	5.16
976.932	9.41
977.359	13.56
977.786	7.56
978.214	6.51
978.641	1.26
979.068	-1.34
979.495	2.61
979.922	-1.84
980.349	1.01
980.776	0.46
981.202	3.66
981.629	1.46
982.056	-0.54
982.483	-9.19
982.91	4.16
983.337	-4.19
983.763	-0.09
984.19	4.11
984.617	-4.79
985.043	-0.34
985.47	-0.84
985.897	3.71
986.323	2.31
986.75	-0.89
987.176	1.51
987.603	3.71
988.029	4.01
988.456	2.86
988.882	1.66
989.308	-4.64
989.735	-1.39
990.161	0.81
990.587	-2.19
991.014	0.01
991.44	2.76
991.866	-0.24
992.292	0.01
992.719	-1.64
993.145	2.11
993.571	3.06
993.997	4.26
994.423	2.81
994.849	-2.04
995.275	1.51
995.701	0.76
996.127	-4.94
996.553	-1.94
996.979	-4.84
997.405	-0.79
997.83	0.06
998.256	3.46
998.682	-0.89
999.108	1.26
999.534	-4.59
999.959	-4.29
1000.385	1.41
1000.811	-1.69
1001.236	-3.64
1001.662	-0.44
1002.087	0.51
1002.513	-0.79
1002.938	-3.69
1003.364	-1.94
1003.789	1.81
1004.215	-3.94
1004.64	-1.74
1005.066	4.56
1005.491	2.71
1005.916	2.06
1006.342	2.36
1006.767	2.96
1007.192	1.76
1007.617	-0.79
1008.042	-2.09
1008.468	2.91
1008.893	-1.64
1009.318	1.06
1009.743	0.61
1010.168	7.71
1010.593	5.76
1011.018	3.46
1011.443	-1.04
1011.868	2.51
1012.293	-0.44
1012.718	-3.84
1013.143	-1.34
1013.567	2.21
1013.992	1.46
1014.417	-0.64
1014.842	-1.04
1015.267	-3.94
1015.691	3.31
1016.116	-1.44
1016.541	2.96
1016.965	1.56
1017.39	2.41
1017.814	-2.29
1018.239	-4.64
1018.663	-6.64
1019.088	-1.74
1019.512	2.06
1019.937	-6.64
1020.361	-1.24
1020.785	-4.24
1021.21	-5.29
1021.634	-1.84
1022.058	1.26
1022.483	-4.29
1022.907	-4.14
1023.331	-4.54
1023.755	-3.14
1024.179	-4.79
1024.604	-1.34
1025.028	-1.34
1025.452	2.56
1025.876	-3.39
1026.3	0.26
1026.724	-4.79
1027.148	-2.29
1027.572	-1.64
1027.996	-0.79
1028.42	-2.74
1028.843	-6.29
1029.267	-2.34
1029.691	2.61
1030.115	-0.69
1030.539	2.26
1030.962	-2.09
1031.386	-3.34
1031.81	-5.74
1032.233	-4.59
1032.657	-8.54
1033.08	-0.64
1033.504	-1.84
1033.927	-3.54
1034.351	-2.79
1034.774	-2.74
1035.198	-2.04
1035.621	2.71
1036.045	0.01
1036.468	1.16
1036.891	-2.89
1037.315	-0.79
1037.738	-1.24
1038.161	-0.24
1038.584	-3.54
1039.008	-4.54
1039.431	-4.64
1039.854	-6.14
1040.277	4.36
1040.7	-4.24
1041.123	-3.44
1041.546	-5.69
1041.969	2.81
1042.392	0.16
1042.815	-8.04
1043.238	-5.89
1043.661	-1.84
1044.084	-9.09
1044.507	-2.54
1044.93	-0.34
1045.352	-0.44
1045.775	-0.54
1046.198	-1.49
1046.621	2.91
1047.043	-1.24
1047.466	-1.74
1047.889	-2.34
1048.311	5.26
1048.734	-0.04
1049.156	-3.14
1049.579	-4.64
1050.001	-5.54
1050.424	1.91
1050.846	-5.79
1051.269	-5.09
1051.691	-1.19
1052.113	2.86
1052.536	-2.04
1052.958	-6.19
1053.38	-3.84
1053.802	-6.09
1054.225	-2.89
1054.647	-1.89
1055.069	-3.39
1055.491	2.36
1055.913	-0.69
1056.335	-8.79
1056.757	-4.84
1057.179	-1.39
1057.601	-6.84
1058.023	-0.54
1058.445	-7.49
1058.867	1.11
1059.289	-5.99
1059.711	-3.04
1060.133	-0.54
1060.555	-1.94
1060.976	1.36
1061.398	-8.19
1061.82	-1.79
1062.241	0.16
1062.663	0.61
1063.085	-5.04
1063.506	-9.94
1063.928	-2.44
1064.35	-1.49
1064.771	-3.14
1065.193	-2.59
1065.614	-0.99
1066.035	4.71
1066.457	1.81
1066.878	2.01
1067.3	-2.74
1067.721	1.11
1068.142	-0.84
1068.564	-0.04
1068.985	-2.24
1069.406	-6.44
1069.827	-2.39
1070.248	-3.09
1070.67	-4.74
1071.091	-4.09
1071.512	-4.64
1071.933	-6.44
1072.354	-4.44
1072.775	0.06
1073.196	-3.54
1073.617	-3.44
1074.038	-1.99
1074.459	-6.04
1074.88	-1.99
1075.3	-2.74
1075.721	1.51
1076.142	-3.09
1076.563	-4.19
1076.983	-0.09
1077.404	-12.39
1077.825	-3.09
1078.246	-6.24
1078.666	-1.04
1079.087	-3.29
1079.507	-7.09
1079.928	-5.84
1080.348	-3.89
1080.769	-0.09
1081.189	-4.79
1081.61	-5.84
1082.03	-2.29
1082.451	-2.94
1082.871	-5.04
1083.291	-5.64
1083.711	-1.94
1084.132	-6.59
1084.552	-6.69
1084.972	-7.49
1085.392	-7.19
1085.813	0.01
1086.233	-3.29
1086.653	-0.84
1087.073	-5.69
1087.493	-3.84
1087.913	-5.84
1088.333	-1.89
1088.753	-1.84
1089.173	0.41
1089.593	-1.89
1090.013	-2.89
1090.433	-6.04
1090.852	0.01
1091.272	-5.14
1091.692	3.86
1092.112	-3.04
1092.531	-4.69
1092.951	-6.59
1093.371	-0.74
1093.79	-4.89
1094.21	-3.49
1094.63	0.46
1095.049	-4.29
1095.469	-13.09
1095.888	-0.09
1096.308	-0.79
1096.727	-2.49
1097.146	-3.84
1097.566	-0.84
1097.985	-0.74
1098.405	-2.54
1098.824	-0.19
1099.243	-3.24
1099.662	-6.34
1100.082	-3.39
1100.501	0.01
1100.92	2.16
1101.339	-0.34
1101.758	4.36
