Data from MSPlasma+Separation6_Subt14_10-14-40-212.txt Node
Date: Fri Jul 21 10:14:40 EDT 2017
User: Ender
Spectrometer: HR+D1039
Trigger mode: 0
Integration Time (sec): 6.430000E-3
Scans to average: 20
Electric dark correction enabled: true
Nonlinearity correction enabled: false
Boxcar width: 0
XAxis mode: Wavelengths
Number of Pixels in Spectrum: 2048
>>>>>Begin Spectral Data<<<<<
187.836	-0.08
188.309	-0.08
188.782	-0.08
189.255	3.02
189.728	-1.03
190.201	-0.48
190.674	-0.68
191.147	-2.23
191.619	0.87
192.092	0.02
192.565	-0.93
193.038	6.02
193.511	2.77
193.984	0.12
194.456	-2.03
194.929	-3.18
195.402	0.12
195.874	-2.23
196.347	-1.03
196.82	-2.13
197.292	-7.28
197.765	-3.23
198.237	-2.98
198.71	-3.68
199.182	-1.08
199.655	2.57
200.127	-2.13
200.6	-2.33
201.072	-0.63
201.544	3.77
202.017	-0.23
202.489	1.57
202.961	-0.63
203.433	-2.93
203.906	-2.18
204.378	6.07
204.85	3.22
205.322	4.12
205.794	6.37
206.266	7.47
206.739	4.37
207.211	-1.68
207.683	4.27
208.155	2.67
208.627	2.17
209.099	1.82
209.57	0.62
210.042	5.52
210.514	5.92
210.986	12.62
211.458	16.92
211.93	7.62
212.402	6.37
212.873	-2.28
213.345	-1.38
213.817	1.87
214.288	-0.53
214.76	3.57
215.232	2.17
215.703	2.97
216.175	2.57
216.646	2.52
217.118	-0.63
217.589	-2.03
218.061	6.12
218.532	2.47
219.004	2.62
219.475	11.92
219.946	22.07
220.418	31.22
220.889	20.97
221.36	10.02
221.832	6.77
222.303	2.82
222.774	4.57
223.245	8.42
223.717	6.17
224.188	6.07
224.659	4.22
225.13	2.57
225.601	3.32
226.072	4.07
226.543	7.32
227.014	5.52
227.485	8.62
227.956	9.07
228.427	12.87
228.898	9.52
229.369	14.47
229.839	6.92
230.31	14.72
230.781	10.72
231.252	19.02
231.722	19.27
232.193	31.17
232.664	35.37
233.135	43.37
233.605	49.32
234.076	40.27
234.546	34.22
235.017	38.47
235.487	38.47
235.958	36.82
236.428	55.42
236.899	88.22
237.369	97.02
237.84	72.27
238.31	90.12
238.78	87.17
239.251	88.97
239.721	89.92
240.191	72.02
240.662	40.97
241.132	30.62
241.602	44.47
242.072	64.07
242.542	70.77
243.013	53.52
243.483	47.87
243.953	31.67
244.423	33.92
244.893	39.72
245.363	47.72
245.833	46.12
246.303	49.17
246.773	64.22
247.243	64.67
247.712	75.77
248.182	91.72
248.652	92.42
249.122	141.37
249.592	260.02
250.061	394.37
250.531	619.72
251.001	476.82
251.471	393.07
251.94	295.77
252.41	161.42
252.879	114.42
253.349	84.82
253.818	68.72
254.288	57.87
254.757	60.82
255.227	83.77
255.696	63.52
256.166	63.92
256.635	66.37
257.105	79.27
257.574	102.17
258.043	111.47
258.513	187.17
258.982	236.32
259.451	168.77
259.92	161.72
260.389	152.77
260.859	117.72
261.328	130.37
261.797	191.77
262.266	170.72
262.735	82.42
263.204	50.62
263.673	47.97
264.142	44.07
264.611	42.37
265.08	46.32
265.549	46.87
266.018	45.82
266.487	41.32
266.955	46.42
267.424	53.82
267.893	52.57
268.362	51.87
268.83	49.17
269.299	52.87
269.768	58.17
270.236	71.52
270.705	77.27
271.174	75.47
271.642	81.27
272.111	89.22
272.579	146.57
273.048	224.57
273.516	280.27
273.985	284.72
274.453	218.62
274.922	134.67
275.39	85.57
275.858	83.27
276.327	67.82
276.795	73.07
277.263	83.67
277.731	122.17
278.2	256.77
278.668	337.27
279.136	252.22
279.604	152.67
280.072	87.02
280.54	71.97
281.008	73.67
281.477	73.92
281.945	74.17
282.413	74.27
282.881	77.72
283.348	80.27
283.816	88.77
284.284	92.02
284.752	84.92
285.22	85.92
285.688	91.87
286.156	146.37
286.623	399.32
287.091	768.37
287.559	405.47
288.026	163.37
288.494	100.17
288.962	87.52
289.429	79.32
289.897	82.52
290.364	76.67
290.832	80.02
291.3	79.22
291.767	83.52
292.234	86.72
292.702	90.12
293.169	93.47
293.637	94.92
294.104	93.92
294.571	89.62
295.039	93.22
295.506	87.52
295.973	95.37
296.44	91.62
296.908	100.57
297.375	110.87
297.842	113.02
298.309	95.72
298.776	93.27
299.243	97.77
299.71	94.22
300.177	91.57
300.644	104.32
301.111	119.02
301.578	110.22
302.045	96.97
302.512	96.82
302.979	104.67
303.446	108.37
303.913	102.92
304.379	118.27
304.846	123.97
305.313	143.62
305.78	159.57
306.246	184.57
306.713	194.07
307.18	176.52
307.646	188.37
308.113	166.87
308.579	140.77
309.046	139.77
309.512	140.17
309.979	134.87
310.445	121.77
310.912	126.07
311.378	129.37
311.845	125.87
312.311	126.62
312.777	120.17
313.244	124.72
313.71	135.07
314.176	145.82
314.642	164.17
315.109	182.47
315.575	171.92
316.041	164.02
316.507	156.67
316.973	175.07
317.439	168.22
317.905	185.47
318.371	183.92
318.837	175.42
319.303	177.12
319.769	168.37
320.235	183.02
320.701	208.47
321.167	216.72
321.633	258.97
322.099	341.57
322.564	447.87
323.03	360.82
323.496	258.17
323.962	251.32
324.427	241.92
324.893	207.87
325.359	205.12
325.824	186.07
326.29	189.97
326.755	190.72
327.221	192.77
327.686	204.77
328.152	188.57
328.617	183.92
329.083	184.37
329.548	198.57
330.014	202.97
330.479	212.67
330.944	239.22
331.41	272.07
331.875	264.37
332.34	265.87
332.805	305.62
333.271	380.57
333.736	482.82
334.201	441.57
334.666	342.47
335.131	387.47
335.596	311.82
336.061	320.02
336.526	334.77
336.991	294.32
337.456	312.12
337.921	252.07
338.386	220.97
338.851	202.02
339.316	193.87
339.781	195.42
340.246	195.77
340.711	196.72
341.175	199.02
341.64	202.17
342.105	208.67
342.569	220.97
343.034	234.77
343.499	237.22
343.963	231.07
344.428	227.92
344.893	229.37
345.357	236.72
345.822	233.97
346.286	232.57
346.751	241.97
347.215	248.27
347.679	254.17
348.144	271.22
348.608	264.07
349.073	278.57
349.537	297.12
350.001	295.47
350.465	276.52
350.93	273.87
351.394	275.62
351.858	269.47
352.322	283.22
352.786	288.17
353.25	279.47
353.715	284.52
354.179	300.67
354.643	309.02
355.107	319.82
355.571	335.37
356.035	346.17
356.498	335.02
356.962	356.97
357.426	345.57
357.89	314.82
358.354	297.22
358.818	290.37
359.281	300.07
359.745	320.97
360.209	315.52
360.673	318.62
361.136	324.52
361.6	318.77
362.064	344.02
362.527	344.72
362.991	339.37
363.454	341.02
363.918	349.77
364.381	344.72
364.845	332.97
365.308	330.67
365.772	337.97
366.235	338.47
366.698	353.87
367.162	410.32
367.625	446.42
368.088	380.87
368.552	351.72
369.015	360.57
369.478	384.07
369.941	395.07
370.404	401.82
370.867	425.62
371.331	428.12
371.794	434.07
372.257	480.37
372.72	506.72
373.183	476.52
373.646	476.82
374.109	477.77
374.572	527.07
375.035	608.27
375.497	486.02
375.96	416.52
376.423	399.82
376.886	394.52
377.349	406.37
377.811	414.17
378.274	422.12
378.737	427.32
379.199	436.97
379.662	448.12
380.125	481.77
380.587	521.47
381.05	549.02
381.512	548.57
381.975	529.77
382.437	528.17
382.9	530.32
383.362	524.82
383.825	550.32
384.287	673.82
384.75	752.02
385.212	677.32
385.674	566.57
386.136	521.52
386.599	522.12
387.061	542.87
387.523	568.37
387.985	570.92
388.447	590.77
388.91	638.57
389.372	766.92
389.834	728.12
390.296	621.17
390.758	630.87
391.22	643.97
391.682	780.17
392.144	1165.67
392.606	1090.57
393.068	660.57
393.529	609.87
393.991	605.42
394.453	586.37
394.915	613.72
395.377	732.72
395.838	885.57
396.3	641.42
396.762	512.52
397.224	496.37
397.685	490.27
398.147	494.47
398.608	492.37
399.07	499.17
399.531	491.32
399.993	509.07
400.454	514.37
400.916	508.92
401.377	522.57
401.839	527.87
402.3	528.42
402.762	548.57
403.223	606.37
403.684	623.52
404.145	568.07
404.607	556.52
405.068	553.27
405.529	571.77
405.99	575.17
406.451	593.02
406.913	578.02
407.374	585.47
407.835	584.12
408.296	610.67
408.757	609.67
409.218	627.97
409.679	628.97
410.14	644.77
410.601	668.87
411.062	687.87
411.522	774.47
411.983	846.47
412.444	742.12
412.905	665.67
413.366	662.62
413.826	685.82
414.287	770.62
414.748	907.57
415.208	920.02
415.669	779.47
416.13	711.22
416.59	696.22
417.051	720.72
417.511	750.17
417.972	804.62
418.432	860.07
418.893	946.62
419.353	905.02
419.814	709.12
420.274	639.22
420.734	637.12
421.195	687.32
421.655	711.17
422.115	685.67
422.576	661.32
423.036	661.77
423.496	692.62
423.956	721.47
424.416	771.87
424.876	862.12
425.336	858.67
425.797	855.32
426.257	862.17
426.717	808.37
427.177	755.87
427.637	778.07
428.097	818.92
428.556	861.52
429.016	929.32
429.476	921.72
429.936	901.12
430.396	882.32
430.856	891.07
431.315	923.37
431.775	984.47
432.235	1021.67
432.694	1051.82
433.154	983.67
433.614	954.57
434.073	927.67
434.533	843.22
434.993	815.87
435.452	819.02
435.912	796.12
436.371	791.17
436.83	799.52
437.29	802.52
437.749	767.42
438.209	747.92
438.668	757.22
439.127	767.42
439.587	748.42
440.046	719.22
440.505	730.12
440.964	734.42
441.424	755.37
441.883	766.57
442.342	726.92
442.801	707.62
443.26	727.52
443.719	729.67
444.178	709.82
444.637	715.92
445.096	719.47
445.555	728.32
446.014	727.67
446.473	711.87
446.932	715.62
447.391	722.97
447.849	745.27
448.308	732.72
448.767	746.17
449.226	766.92
449.685	773.62
450.143	793.12
450.602	799.47
451.061	764.52
451.519	777.97
451.978	784.37
452.436	795.82
452.895	775.12
453.353	748.02
453.812	759.27
454.27	757.07
454.729	739.72
455.187	743.47
455.646	751.07
456.104	757.17
456.562	751.47
457.021	750.57
457.479	717.67
457.937	746.42
458.395	766.47
458.854	755.12
459.312	739.72
459.77	754.97
460.228	762.97
460.686	775.72
461.144	782.82
461.602	766.97
462.06	768.52
462.518	789.17
462.976	786.92
463.434	794.32
463.892	803.42
464.35	816.92
464.808	830.97
465.266	833.82
465.724	848.67
466.181	851.92
466.639	845.67
467.097	885.57
467.555	910.52
468.012	900.52
468.47	911.02
468.928	950.92
469.385	970.32
469.843	986.02
470.3	979.22
470.758	1006.42
471.215	1014.32
471.673	1038.72
472.13	1063.82
472.588	1095.52
473.045	1088.27
473.503	1118.22
473.96	1169.67
474.417	1178.07
474.875	1233.32
475.332	1271.42
475.789	1301.02
476.246	1338.87
476.704	1397.62
477.161	1443.67
477.618	1484.67
478.075	1581.17
478.532	1698.47
478.989	1844.42
479.446	2020.82
479.903	2171.22
480.36	2407.92
480.817	2565.82
481.274	2736.52
481.731	3005.52
482.188	3248.77
482.645	3505.62
483.102	3706.92
483.558	3965.62
484.015	4150.72
484.472	4146.67
484.929	4001.22
485.385	3807.17
485.842	3709.47
486.299	3511.32
486.755	3155.17
487.212	2829.67
487.668	2536.67
488.125	2352.92
488.582	2164.87
489.038	2061.72
489.494	2002.77
489.951	1938.87
490.407	1880.12
490.864	1853.47
491.32	1805.82
491.776	1787.22
492.233	1776.42
492.689	1742.77
493.145	1730.92
493.602	1711.97
494.058	1747.22
494.514	1768.82
494.97	1767.17
495.426	1788.42
495.882	1789.47
496.338	1803.22
496.794	1857.47
497.251	1862.52
497.707	1855.17
498.163	1868.92
498.618	1871.27
499.074	1889.92
499.53	1910.82
499.986	1949.62
500.442	1969.17
500.898	1968.32
501.354	2006.32
501.809	2017.97
502.265	2041.12
502.721	2117.67
503.177	2169.52
503.632	2081.87
504.088	2080.12
504.543	2248.32
504.999	2125.07
505.455	1912.97
505.91	1824.22
506.366	1814.67
506.821	1811.12
507.277	1796.47
507.732	1801.27
508.187	1808.57
508.643	1823.72
509.098	1824.97
509.553	1841.27
510.009	1865.87
510.464	1890.27
510.919	1915.42
511.375	1935.77
511.83	1953.32
512.285	2000.57
512.74	2048.22
513.195	2070.17
513.65	2102.97
514.105	2140.27
514.56	2149.22
515.015	2190.67
515.47	2217.57
515.925	2203.62
516.38	2189.77
516.835	2174.57
517.29	2182.57
517.745	2180.22
518.2	2147.22
518.655	2087.37
519.109	2064.57
519.564	2035.22
520.019	2021.92
520.474	2002.82
520.928	1989.82
521.383	1989.02
521.838	1979.12
522.292	1958.02
522.747	1932.67
523.201	1928.97
523.656	1910.57
524.11	1906.42
524.565	1901.02
525.019	1912.97
525.474	1916.67
525.928	1915.67
526.382	1889.82
526.837	1871.02
527.291	1877.82
527.745	1864.42
528.2	1870.12
528.654	1857.72
529.108	1858.57
529.562	1856.67
530.016	1865.37
530.47	1870.42
530.925	1874.42
531.379	1886.92
531.833	1899.17
532.287	1888.12
532.741	1869.27
533.195	1861.07
533.649	1876.07
534.103	1875.42
534.556	1866.87
535.01	1877.42
535.464	1866.07
535.918	1883.12
536.372	1889.57
536.826	1875.77
537.279	1858.22
537.733	1868.02
538.187	1880.47
538.64	1865.02
539.094	1882.42
539.548	1916.82
540.001	1902.62
540.455	1915.92
540.908	1933.97
541.362	1958.62
541.815	1968.67
542.269	2009.67
542.722	2004.12
543.175	2021.12
543.629	2035.37
544.082	2042.22
544.536	2071.12
544.989	2071.42
545.442	2078.82
545.895	2072.92
546.349	2079.02
546.802	2088.87
547.255	2076.27
547.708	2104.32
548.161	2107.12
548.614	2115.92
549.067	2125.32
549.52	2114.37
549.973	2088.47
550.426	2085.92
550.879	2069.27
551.332	2060.82
551.785	2076.42
552.238	2098.92
552.691	2097.82
553.144	2127.77
553.596	2172.47
554.049	2190.22
554.502	2228.32
554.955	2265.32
555.407	2307.42
555.86	2273.22
556.313	2252.77
556.765	2230.17
557.218	2209.02
557.67	2217.12
558.123	2179.02
558.576	2153.42
559.028	2148.17
559.48	2182.12
559.933	2160.12
560.385	2103.27
560.838	2033.47
561.29	1974.87
561.742	1971.92
562.195	1924.22
562.647	1917.07
563.099	1913.72
563.551	1894.02
564.004	1930.62
564.456	1897.42
564.908	1871.67
565.36	1843.47
565.812	1793.42
566.264	1787.62
566.716	1759.77
567.168	1744.52
567.62	1748.77
568.072	1727.92
568.524	1701.47
568.976	1695.82
569.428	1690.32
569.88	1674.07
570.332	1696.22
570.784	1681.47
571.235	1679.27
571.687	1693.62
572.139	1683.92
572.59	1708.47
573.042	1712.87
573.494	1715.42
573.945	1689.47
574.397	1649.72
574.849	1648.22
575.3	1655.57
575.752	1632.47
576.203	1618.22
576.655	1625.57
577.106	1600.97
577.557	1597.62
578.009	1597.57
578.46	1600.77
578.912	1582.07
579.363	1591.27
579.814	1583.47
580.265	1589.32
580.717	1581.57
581.168	1587.67
581.619	1599.72
582.07	1612.32
582.521	1607.22
582.972	1606.97
583.423	1640.42
583.875	1697.72
584.326	1831.27
584.777	2099.42
585.227	2384.22
585.678	2609.97
586.129	2659.87
586.58	2704.37
587.031	2718.92
587.482	2930.82
587.933	3610.82
588.384	3211.42
588.834	2445.62
589.285	1894.17
589.736	1830.62
590.186	1819.17
590.637	1792.37
591.088	1772.62
591.538	1729.72
591.989	1711.67
592.439	1695.32
592.89	1697.67
593.34	1700.22
593.791	1708.77
594.241	1711.17
594.692	1732.52
595.142	1716.72
595.593	1689.47
596.043	1688.92
596.493	1709.77
596.943	1745.92
597.394	1741.87
597.844	1725.47
598.294	1748.72
598.744	1809.37
599.195	1891.32
599.645	1993.07
600.095	2101.87
600.545	2201.12
600.995	2296.42
601.445	2370.07
601.895	2474.22
602.345	2527.97
602.795	2486.92
603.245	2387.57
603.695	2246.67
604.145	2131.02
604.594	2024.47
605.044	1933.42
605.494	1811.02
605.944	1717.62
606.393	1689.22
606.843	1672.42
607.293	1676.82
607.743	1663.92
608.192	1684.27
608.642	1691.32
609.091	1679.82
609.541	1674.37
609.99	1667.37
610.44	1637.17
610.889	1620.02
611.339	1610.07
611.788	1602.02
612.238	1629.07
612.687	1650.12
613.136	1669.07
613.586	1689.72
614.035	1679.67
614.484	1706.97
614.933	1715.27
615.383	1667.42
615.832	1625.12
616.281	1581.77
616.73	1533.32
617.179	1489.37
617.628	1462.92
618.077	1433.87
618.526	1411.92
618.975	1405.42
619.424	1370.92
619.873	1389.32
620.322	1372.07
620.771	1375.57
621.22	1350.92
621.669	1320.72
622.118	1322.97
622.567	1300.97
623.015	1276.52
623.464	1276.37
623.913	1264.72
624.361	1263.47
624.81	1250.87
625.259	1261.72
625.707	1243.07
626.156	1247.87
626.604	1257.27
627.053	1254.62
627.501	1254.47
627.95	1266.92
628.398	1273.57
628.847	1269.57
629.295	1273.47
629.744	1287.27
630.192	1315.07
630.64	1402.47
631.089	1544.42
631.537	1619.32
631.985	1597.52
632.433	1660.52
632.881	1650.52
633.33	1935.07
633.778	2103.57
634.226	1536.17
634.674	1428.62
635.122	1413.07
635.57	1434.37
636.018	1642.12
636.466	1370.27
636.914	1228.32
637.362	1236.17
637.81	1243.87
638.258	1290.07
638.705	1304.02
639.153	1340.27
639.601	1346.17
640.049	1364.52
640.497	1414.72
640.944	1445.57
641.392	1378.97
641.84	1311.52
642.287	1252.12
642.735	1249.27
643.182	1236.67
643.63	1240.52
644.078	1241.92
644.525	1264.67
644.973	1293.42
645.42	1318.67
645.867	1337.97
646.315	1369.22
646.762	1427.22
647.21	1459.87
647.657	1544.57
648.104	1615.57
648.551	1681.02
648.999	1818.72
649.446	2019.07
649.893	2285.52
650.34	2707.22
650.787	3390.22
651.234	4453.97
651.682	6253.37
652.129	9024.62
652.576	12938.17
653.023	15534.02
653.47	15537.22
653.917	15537.27
654.363	15537.17
654.81	15534.17
655.257	15534.82
655.704	15486.17
656.151	9404.12
656.598	6081.12
657.044	4328.72
657.491	3354.17
657.938	2697.57
658.385	2257.47
658.831	1991.07
659.278	1773.02
659.724	1607.72
660.171	1499.27
660.618	1393.02
661.064	1310.72
661.511	1264.37
661.957	1217.62
662.404	1181.32
662.85	1174.22
663.296	1158.27
663.743	1127.12
664.189	1121.12
664.635	1108.47
665.082	1081.32
665.528	1070.47
665.974	1045.22
666.42	1036.52
666.867	1057.92
667.313	1070.77
667.759	1126.07
668.205	1125.67
668.651	1121.32
669.097	1093.27
669.543	1196.02
669.989	1118.42
670.435	978.17
670.881	970.87
671.327	1009.37
671.773	1080.22
672.219	1164.12
672.665	1227.57
673.11	1267.12
673.556	1267.02
674.002	1297.57
674.448	1305.37
674.893	1112.07
675.339	981.07
675.785	898.27
676.23	858.67
676.676	831.37
677.122	799.37
677.567	775.27
678.013	756.32
678.458	760.92
678.904	760.17
679.349	749.12
679.794	744.87
680.24	743.82
680.685	736.32
681.131	734.82
681.576	739.02
682.021	750.52
682.466	747.52
682.912	751.52
683.357	786.67
683.802	862.52
684.247	947.02
684.692	1005.52
685.137	1051.77
685.583	1056.62
686.028	1110.17
686.473	1046.17
686.918	906.22
687.363	834.27
687.807	797.42
688.252	749.07
688.697	727.02
689.142	710.72
689.587	716.32
690.032	732.22
690.477	749.97
690.921	801.67
691.366	832.52
691.811	874.42
692.255	938.72
692.7	1147.92
693.145	1670.02
693.589	2538.32
694.034	3018.07
694.478	3149.02
694.923	2849.52
695.367	3957.27
695.812	2453.27
696.256	1055.97
696.701	784.17
697.145	732.52
697.59	697.07
698.034	687.27
698.478	688.87
698.922	695.77
699.367	713.82
699.811	747.47
700.255	813.87
700.699	885.02
701.143	955.22
701.588	1011.82
702.032	1040.37
702.476	1068.07
702.92	1144.92
703.364	1520.72
703.808	2338.62
704.252	2888.42
704.696	2991.22
705.14	2784.97
705.584	3754.22
706.027	2130.57
706.471	1081.22
706.915	804.37
707.359	723.77
707.803	683.57
708.246	659.77
708.69	657.42
709.134	642.27
709.577	648.62
710.021	657.17
710.465	651.67
710.908	641.87
711.352	677.07
711.795	753.72
712.239	803.67
712.682	823.72
713.126	816.17
713.569	899.97
714.012	747.82
714.456	668.02
714.899	619.67
715.342	576.62
715.786	554.92
716.229	537.67
716.672	521.67
717.115	531.47
717.558	537.17
718.002	552.57
718.445	581.02
718.888	607.87
719.331	619.42
719.774	628.32
720.217	605.32
720.66	581.67
721.103	548.87
721.546	517.52
721.989	507.77
722.432	504.62
722.874	500.87
723.317	511.02
723.76	558.12
724.203	690.97
724.645	910.07
725.088	1066.22
725.531	1029.72
725.974	1109.02
726.416	999.22
726.859	633.72
727.301	523.22
727.744	501.07
728.187	500.82
728.629	509.57
729.071	530.52
729.514	550.97
729.956	582.92
730.399	590.72
730.841	582.77
731.283	567.27
731.726	551.87
732.168	559.07
732.61	597.12
733.053	648.32
733.495	711.27
733.937	790.37
734.379	925.57
734.821	1191.57
735.263	1911.12
735.705	3440.27
736.148	4944.22
736.59	4874.57
737.032	5161.82
737.474	4262.92
737.916	1684.47
738.357	889.87
738.799	683.52
739.241	640.07
739.683	642.72
740.125	651.92
740.567	646.87
741.008	684.62
741.45	712.82
741.892	747.52
742.334	744.12
742.775	723.32
743.217	690.87
743.658	600.77
744.1	625.07
744.542	693.12
744.983	710.62
745.425	732.87
745.866	736.07
746.307	650.17
746.749	714.07
747.19	1033.67
747.632	2026.62
748.073	3737.12
748.514	5074.22
748.956	6711.57
749.397	7726.17
749.838	5320.37
750.279	4978.97
750.72	2628.47
751.162	1127.02
751.603	649.92
752.044	519.32
752.485	460.77
752.926	429.92
753.367	417.77
753.808	406.82
754.249	403.57
754.69	400.22
755.131	390.32
755.572	394.67
756.013	393.77
756.453	395.52
756.894	405.62
757.335	406.17
757.776	408.22
758.216	426.57
758.657	449.67
759.098	495.07
759.538	606.37
759.979	873.77
760.42	1774.12
760.86	4554.87
761.301	9279.27
761.741	10688.32
762.182	11937.67
762.622	7756.27
763.063	2862.67
763.503	1272.77
763.943	992.62
764.384	1079.57
764.824	1024.37
765.264	1013.07
765.705	720.47
766.145	510.47
766.585	450.57
767.025	482.27
767.465	630.12
767.906	776.57
768.346	815.32
768.786	837.02
769.226	857.32
769.666	1457.02
770.106	3129.42
770.546	4336.17
770.986	4745.77
771.426	3611.12
771.866	1541.77
772.306	713.37
772.745	450.47
773.185	389.32
773.625	394.72
774.065	468.82
774.505	765.37
774.944	1542.67
775.384	2302.27
775.824	2554.57
776.263	2074.47
776.703	1035.72
777.142	523.27
777.582	354.67
778.021	317.82
778.461	301.27
778.9	294.17
779.34	271.72
779.779	257.62
780.219	249.67
780.658	243.97
781.097	239.77
781.537	235.97
781.976	232.17
782.415	235.02
782.855	233.37
783.294	229.92
783.733	229.92
784.172	231.97
784.611	233.42
785.05	232.62
785.489	242.52
785.928	246.92
786.367	255.52
786.806	277.32
787.245	289.67
787.684	295.07
788.123	288.47
788.562	282.92
789.001	271.12
789.44	265.12
789.879	266.57
790.317	262.32
790.756	286.12
791.195	328.12
791.634	453.52
792.072	811.42
792.511	2000.87
792.95	3601.12
793.388	4220.02
793.827	2744.92
794.265	1293.37
794.704	619.87
795.142	380.02
795.581	313.72
796.019	284.22
796.458	280.57
796.896	287.97
797.334	332.17
797.773	452.47
798.211	867.67
798.649	1799.67
799.087	2978.37
799.526	4185.12
799.964	4251.87
800.402	2910.67
800.84	1345.87
801.278	670.22
801.716	405.12
802.154	328.12
802.592	309.67
803.03	310.82
803.468	311.72
803.906	319.37
804.344	308.62
804.782	302.47
805.22	300.87
805.658	316.82
806.096	335.62
806.533	375.42
806.971	485.97
807.409	712.47
807.847	1415.72
808.284	3576.72
808.722	6214.62
809.16	8650.87
809.597	11860.27
810.035	14143.07
810.472	9233.72
810.91	4013.77
811.347	1803.32
811.785	845.72
812.222	529.17
812.66	406.32
813.097	350.97
813.535	304.32
813.972	273.72
814.409	255.87
814.846	245.72
815.284	228.27
815.721	234.52
816.158	262.67
816.595	343.92
817.032	417.62
817.47	384.12
817.907	308.67
818.344	269.47
818.781	248.32
819.218	291.02
819.655	414.67
820.092	521.97
820.529	489.52
820.966	398.87
821.403	296.62
821.839	259.22
822.276	274.87
822.713	309.87
823.15	297.37
823.587	327.57
824.023	594.27
824.46	1465.97
824.897	2507.17
825.333	1913.82
825.77	897.47
826.206	472.17
826.643	273.97
827.08	207.42
827.516	181.92
827.953	172.62
828.389	160.32
828.825	154.02
829.262	154.72
829.698	140.82
830.135	137.92
830.571	135.82
831.007	140.67
831.443	142.27
831.88	141.77
832.316	148.52
832.752	142.72
833.188	146.47
833.624	150.32
834.06	150.47
834.497	144.12
834.933	149.42
835.369	162.17
835.805	176.97
836.241	178.72
836.677	202.57
837.112	232.72
837.548	290.17
837.984	437.67
838.42	923.92
838.856	2562.67
839.292	4960.82
839.727	3650.62
840.163	2509.97
840.599	3822.72
841.034	5720.27
841.47	2865.82
841.906	1417.87
842.341	798.92
842.777	700.57
843.212	814.17
843.648	485.27
844.083	305.02
844.519	211.02
844.954	170.52
845.39	144.77
845.825	139.97
846.261	133.47
846.696	125.12
847.131	119.57
847.566	122.22
848.002	125.77
848.437	135.72
848.872	140.17
849.307	177.72
849.742	321.47
850.177	831.42
850.613	1748.72
851.048	1246.27
851.483	579.27
851.918	334.02
852.353	188.37
852.788	145.47
853.223	119.02
853.657	110.87
854.092	110.27
854.527	98.22
854.962	108.62
855.397	111.27
855.832	101.02
856.266	88.17
856.701	87.72
857.136	98.17
857.57	109.12
858.005	128.57
858.44	114.82
858.874	111.02
859.309	114.12
859.743	108.47
860.178	105.97
860.612	114.67
861.047	149.17
861.481	191.92
861.915	135.92
862.35	107.47
862.784	91.07
863.218	88.12
863.653	93.87
864.087	109.97
864.521	146.97
864.955	246.02
865.39	405.07
865.824	297.47
866.258	356.67
866.692	505.87
867.126	365.62
867.56	205.82
867.994	137.12
868.428	118.87
868.862	137.72
869.296	130.62
869.73	154.17
870.164	131.97
870.598	125.97
871.031	89.02
871.465	87.47
871.899	68.72
872.333	63.77
872.766	68.22
873.2	67.22
873.634	64.82
874.067	69.07
874.501	69.97
874.935	68.97
875.368	70.62
875.802	65.42
876.235	59.32
876.669	54.92
877.102	49.12
877.535	52.82
877.969	54.62
878.402	58.87
878.836	53.12
879.269	52.52
879.702	51.97
880.135	59.27
880.569	60.82
881.002	54.47
881.435	56.17
881.868	51.22
882.301	45.82
882.734	47.37
883.167	49.72
883.601	46.52
884.034	50.77
884.467	42.47
884.899	43.42
885.332	40.67
885.765	39.57
886.198	42.97
886.631	39.57
887.064	41.52
887.497	43.97
887.929	39.67
888.362	40.17
888.795	36.47
889.228	46.72
889.66	43.82
890.093	38.52
890.526	40.77
890.958	42.07
891.391	42.12
891.823	40.67
892.256	36.82
892.688	40.87
893.121	35.67
893.553	38.22
893.985	37.67
894.418	35.67
894.85	38.42
895.282	39.17
895.715	35.02
896.147	32.82
896.579	33.27
897.011	41.32
897.444	37.07
897.876	31.97
898.308	34.07
898.74	32.57
899.172	39.12
899.604	37.72
900.036	36.22
900.468	34.32
900.9	37.57
901.332	48.22
901.764	48.02
902.196	45.77
902.628	50.02
903.06	64.42
903.491	66.42
903.923	57.92
904.355	60.52
904.787	67.87
905.218	49.47
905.65	47.47
906.082	47.57
906.513	41.62
906.945	46.57
907.376	49.47
907.808	53.22
908.239	55.17
908.671	56.52
909.102	60.57
909.534	83.67
909.965	165.22
910.397	414.52
910.828	1164.07
911.259	716.52
911.691	388.37
912.122	228.02
912.553	119.57
912.984	64.82
913.415	55.02
913.847	47.97
914.278	49.62
914.709	41.82
915.14	36.22
915.571	38.22
916.002	37.17
916.433	37.42
916.864	34.52
917.295	41.57
917.726	42.42
918.157	60.02
918.587	53.47
919.018	48.92
919.449	45.47
919.88	59.32
920.311	86.37
920.741	241.37
921.172	429.77
921.603	211.52
922.033	142.07
922.464	90.57
922.895	61.87
923.325	41.32
923.756	37.22
924.186	58.42
924.617	95.42
925.047	154.22
925.478	134.57
925.908	94.42
926.338	70.32
926.769	49.07
927.199	40.87
927.629	33.92
928.06	41.02
928.49	35.07
928.92	34.82
929.35	32.62
929.78	21.52
930.21	20.27
930.641	19.57
931.071	22.52
931.501	22.97
931.931	19.37
932.361	17.47
932.791	22.57
933.221	24.57
933.651	34.42
934.08	56.72
934.51	32.77
934.94	28.07
935.37	27.07
935.8	20.92
936.229	13.22
936.659	16.27
937.089	28.82
937.519	39.42
937.948	54.67
938.378	32.52
938.807	26.22
939.237	19.12
939.666	19.17
940.096	10.97
940.525	5.37
940.955	13.52
941.384	8.02
941.814	9.82
942.243	12.72
942.672	8.42
943.102	4.62
943.531	7.87
943.96	7.27
944.39	6.92
944.819	13.57
945.248	11.47
945.677	10.32
946.106	8.07
946.535	7.27
946.964	9.42
947.393	9.97
947.822	8.07
948.251	13.87
948.68	15.17
949.109	7.77
949.538	8.02
949.967	3.37
950.396	6.82
950.825	9.87
951.254	13.12
951.682	2.22
952.111	1.87
952.54	6.52
952.969	4.82
953.397	7.17
953.826	5.92
954.254	8.92
954.683	3.52
955.112	12.72
955.54	7.17
955.969	6.32
956.397	12.77
956.826	6.72
957.254	6.52
957.682	4.32
958.111	5.72
958.539	10.17
958.967	7.02
959.396	10.67
959.824	4.97
960.252	5.12
960.68	2.07
961.109	8.42
961.537	10.82
961.965	2.32
962.393	4.57
962.821	6.12
963.249	10.97
963.677	13.32
964.105	74.17
964.533	129.07
964.961	60.57
965.389	34.47
965.817	15.47
966.245	11.27
966.672	9.47
967.1	10.17
967.528	0.32
967.956	4.92
968.383	5.97
968.811	4.17
969.239	4.12
969.666	4.52
970.094	6.42
970.522	4.97
970.949	4.62
971.377	-2.43
971.804	5.27
972.232	1.12
972.659	3.17
973.087	5.77
973.514	3.37
973.941	1.37
974.369	-2.03
974.796	5.02
975.223	2.27
975.651	5.22
976.078	4.37
976.505	8.02
976.932	27.27
977.359	31.97
977.786	22.22
978.214	14.37
978.641	4.02
979.068	5.27
979.495	3.02
979.922	7.32
980.349	3.62
980.776	6.52
981.202	4.37
981.629	6.17
982.056	6.87
982.483	-0.58
982.91	10.87
983.337	3.02
983.763	3.72
984.19	7.37
984.617	0.02
985.043	3.27
985.47	6.07
985.897	5.47
986.323	9.37
986.75	2.17
987.176	5.67
987.603	4.12
988.029	7.32
988.456	8.22
988.882	2.42
989.308	-1.53
989.735	0.47
990.161	1.17
990.587	-1.18
991.014	5.27
991.44	5.17
991.866	3.67
992.292	0.47
992.719	-0.93
993.145	6.37
993.571	1.92
993.997	8.82
994.423	2.77
994.849	-0.03
995.275	1.57
995.701	-1.08
996.127	-2.68
996.553	3.32
996.979	2.17
997.405	3.02
997.83	1.67
998.256	2.07
998.682	2.72
999.108	2.12
999.534	-2.83
999.959	3.72
1000.385	5.57
1000.811	1.47
1001.236	-5.33
1001.662	2.02
1002.087	5.12
1002.513	2.72
1002.938	-1.03
1003.364	1.82
1003.789	2.22
1004.215	0.97
1004.64	4.77
1005.066	5.87
1005.491	7.92
1005.916	5.77
1006.342	4.17
1006.767	4.77
1007.192	5.77
1007.617	3.77
1008.042	1.22
1008.468	-1.73
1008.893	2.67
1009.318	5.42
1009.743	8.22
1010.168	17.57
1010.593	21.07
1011.018	8.32
1011.443	6.27
1011.868	4.57
1012.293	7.42
1012.718	-0.38
1013.143	-1.73
1013.567	6.87
1013.992	4.22
1014.417	-1.48
1014.842	3.87
1015.267	4.02
1015.691	3.57
1016.116	2.62
1016.541	3.57
1016.965	-0.33
1017.39	0.87
1017.814	-0.63
1018.239	-4.23
1018.663	-3.83
1019.088	-1.83
1019.512	3.42
1019.937	-4.03
1020.361	-1.98
1020.785	2.32
1021.21	-3.38
1021.634	0.82
1022.058	1.52
1022.483	-4.58
1022.907	-2.78
1023.331	-0.38
1023.755	1.02
1024.179	0.57
1024.604	-2.23
1025.028	-0.43
1025.452	2.97
1025.876	3.57
1026.3	1.07
1026.724	1.62
1027.148	1.72
1027.572	3.07
1027.996	2.82
1028.42	-0.68
1028.843	-0.03
1029.267	-0.23
1029.691	-0.08
1030.115	-3.08
1030.539	-2.53
1030.962	-5.13
1031.386	0.57
1031.81	-1.78
1032.233	0.57
1032.657	-3.93
1033.08	0.82
1033.504	-1.43
1033.927	-2.48
1034.351	-2.13
1034.774	-0.13
1035.198	-1.33
1035.621	-2.68
1036.045	-3.53
1036.468	2.12
1036.891	-1.68
1037.315	3.87
1037.738	2.32
1038.161	2.97
1038.584	-0.18
1039.008	1.67
1039.431	-1.38
1039.854	-5.38
1040.277	4.57
1040.7	3.02
1041.123	0.27
1041.546	0.32
1041.969	1.07
1042.392	-0.38
1042.815	-8.83
1043.238	-1.93
1043.661	-1.68
1044.084	-2.73
1044.507	-0.73
1044.93	-0.88
1045.352	-2.53
1045.775	1.62
1046.198	4.42
1046.621	2.37
1047.043	-0.58
1047.466	0.57
1047.889	-1.98
1048.311	6.32
1048.734	-4.08
1049.156	-2.83
1049.579	-0.58
1050.001	-3.53
1050.424	-0.53
1050.846	-2.13
1051.269	-3.53
1051.691	-0.48
1052.113	-1.03
1052.536	-2.03
1052.958	-6.68
1053.38	-5.18
1053.802	-0.98
1054.225	0.82
1054.647	-0.63
1055.069	-5.28
1055.491	-0.33
1055.913	-2.93
1056.335	-9.43
1056.757	-9.18
1057.179	-5.53
1057.601	-1.98
1058.023	-4.73
1058.445	-6.78
1058.867	2.37
1059.289	-0.38
1059.711	-2.23
1060.133	-1.58
1060.555	-3.58
1060.976	-1.63
1061.398	0.32
1061.82	-0.13
1062.241	-1.23
1062.663	-2.78
1063.085	-3.83
1063.506	-10.23
1063.928	-7.68
1064.35	-2.38
1064.771	0.02
1065.193	-2.18
1065.614	-2.78
1066.035	2.92
1066.457	3.62
1066.878	2.67
1067.3	-1.23
1067.721	2.57
1068.142	1.82
1068.564	2.57
1068.985	-0.38
1069.406	-8.53
1069.827	-4.08
1070.248	-5.93
1070.67	-4.18
1071.091	-8.58
1071.512	-5.03
1071.933	-3.28
1072.354	-6.28
1072.775	-3.48
1073.196	-3.48
1073.617	-5.48
1074.038	-3.13
1074.459	-5.88
1074.88	-4.63
1075.3	-0.08
1075.721	0.67
1076.142	-1.08
1076.563	-7.28
1076.983	1.72
1077.404	-7.68
1077.825	-4.08
1078.246	-1.48
1078.666	-8.43
1079.087	-5.53
1079.507	-3.13
1079.928	2.97
1080.348	-3.18
1080.769	-0.68
1081.189	-3.53
1081.61	-6.28
1082.03	2.77
1082.451	0.77
1082.871	-5.53
1083.291	-5.13
1083.711	2.22
1084.132	-5.48
1084.552	-4.93
1084.972	-8.33
1085.392	-10.13
1085.813	-1.03
1086.233	-6.08
1086.653	-1.88
1087.073	-4.18
1087.493	-2.98
1087.913	-4.08
1088.333	-0.48
1088.753	1.52
1089.173	0.37
1089.593	1.07
1090.013	-2.28
1090.433	-9.43
1090.852	-2.43
1091.272	-5.98
1091.692	-0.93
1092.112	0.87
1092.531	-4.63
1092.951	0.72
1093.371	-2.43
1093.79	-2.93
1094.21	-2.93
1094.63	0.47
1095.049	-3.13
1095.469	-8.78
1095.888	0.92
1096.308	-4.43
1096.727	-4.88
1097.146	-5.88
1097.566	2.22
1097.985	-3.08
1098.405	1.52
1098.824	3.87
1099.243	-6.23
1099.662	-1.03
1100.082	-5.28
1100.501	-3.38
1100.92	3.42
1101.339	0.87
1101.758	4.42
