Data from MSPlasma+Separation6_Subt14_10-15-16-413.txt Node
Date: Fri Jul 21 10:15:16 EDT 2017
User: Ender
Spectrometer: HR+D1039
Trigger mode: 0
Integration Time (sec): 6.430000E-3
Scans to average: 20
Electric dark correction enabled: true
Nonlinearity correction enabled: false
Boxcar width: 0
XAxis mode: Wavelengths
Number of Pixels in Spectrum: 2048
>>>>>Begin Spectral Data<<<<<
187.836	3.67
188.309	3.67
188.782	3.67
189.255	-2.93
189.728	2.17
190.201	0.52
190.674	1.52
191.147	-3.98
191.619	-1.48
192.092	1.72
192.565	-0.93
193.038	2.27
193.511	3.37
193.984	0.77
194.456	-2.18
194.929	-3.48
195.402	-1.83
195.874	0.77
196.347	1.62
196.82	1.17
197.292	0.07
197.765	1.02
198.237	-5.03
198.71	-1.48
199.182	-1.83
199.655	5.42
200.127	2.02
200.6	3.67
201.072	4.22
201.544	-1.03
202.017	1.72
202.489	-0.68
202.961	1.62
203.433	1.12
203.906	1.32
204.378	4.82
204.85	7.82
205.322	2.87
205.794	8.07
206.266	4.27
206.739	4.67
207.211	1.12
207.683	-1.68
208.155	4.77
208.627	0.57
209.099	3.67
209.57	3.82
210.042	0.97
210.514	7.72
210.986	14.02
211.458	21.32
211.93	14.57
212.402	5.57
212.873	2.92
213.345	-1.33
213.817	6.87
214.288	-0.08
214.76	3.57
215.232	2.97
215.703	2.97
216.175	9.87
216.646	7.32
217.118	6.17
217.589	3.22
218.061	5.22
218.532	-0.53
219.004	6.12
219.475	14.37
219.946	24.37
220.418	39.92
220.889	27.47
221.36	12.22
221.832	12.27
222.303	7.52
222.774	4.57
223.245	1.82
223.717	2.72
224.188	5.87
224.659	9.87
225.13	5.62
225.601	7.37
226.072	9.12
226.543	12.32
227.014	10.67
227.485	12.37
227.956	12.47
228.427	19.12
228.898	13.87
229.369	13.92
229.839	13.87
230.31	15.02
230.781	13.22
231.252	19.47
231.722	27.67
232.193	40.32
232.664	47.97
233.135	60.67
233.605	66.87
234.076	47.57
234.546	44.37
235.017	53.22
235.487	46.02
235.958	43.47
236.428	66.22
236.899	109.42
237.369	120.17
237.84	88.47
238.31	110.72
238.78	111.57
239.251	112.42
239.721	111.57
240.191	89.12
240.662	55.47
241.132	44.02
241.602	52.82
242.072	76.12
242.542	87.67
243.013	60.57
243.483	58.72
243.953	40.62
244.423	44.27
244.893	54.72
245.363	62.12
245.833	59.47
246.303	64.87
246.773	83.57
247.243	80.67
247.712	93.62
248.182	116.32
248.652	115.52
249.122	171.72
249.592	322.57
250.061	489.57
250.531	777.72
251.001	588.17
251.471	493.37
251.94	376.72
252.41	205.22
252.879	146.97
253.349	110.52
253.818	91.22
254.288	75.47
254.757	82.17
255.227	110.52
255.696	90.17
256.166	76.42
256.635	84.52
257.105	102.57
257.574	127.27
258.043	138.17
258.513	245.12
258.982	307.07
259.451	214.77
259.92	211.72
260.389	200.37
260.859	146.02
261.328	168.42
261.797	248.67
262.266	221.52
262.735	105.67
263.204	72.92
263.673	64.17
264.142	55.22
264.611	56.42
265.08	65.97
265.549	67.67
266.018	63.07
266.487	56.87
266.955	55.97
267.424	63.52
267.893	66.42
268.362	68.17
268.83	63.92
269.299	75.67
269.768	79.32
270.236	94.12
270.705	100.22
271.174	97.87
271.642	106.47
272.111	124.87
272.579	199.87
273.048	300.47
273.516	382.32
273.985	386.92
274.453	293.77
274.922	178.52
275.39	121.62
275.858	112.07
276.327	92.47
276.795	97.92
277.263	106.07
277.731	134.17
278.2	262.87
278.668	343.12
279.136	262.57
279.604	169.97
280.072	109.92
280.54	94.07
281.008	101.62
281.477	98.47
281.945	99.17
282.413	104.07
282.881	102.37
283.348	104.62
283.816	115.12
284.284	121.67
284.752	114.42
285.22	114.62
285.688	130.67
286.156	213.17
286.623	551.02
287.091	1084.57
287.559	561.37
288.026	221.22
288.494	142.17
288.962	117.77
289.429	107.82
289.897	109.67
290.364	102.72
290.832	108.27
291.3	111.12
291.767	112.97
292.234	113.72
292.702	115.67
293.169	121.82
293.637	138.72
294.104	131.02
294.571	125.32
295.039	126.42
295.506	124.22
295.973	129.57
296.44	122.87
296.908	134.52
297.375	152.02
297.842	147.32
298.309	127.17
298.776	133.12
299.243	138.87
299.71	127.02
300.177	133.42
300.644	146.37
301.111	157.77
301.578	146.82
302.045	134.87
302.512	137.27
302.979	141.42
303.446	149.62
303.913	149.02
304.379	160.07
304.846	177.62
305.313	192.17
305.78	222.82
306.246	273.92
306.713	286.17
307.18	251.62
307.646	280.12
308.113	247.62
308.579	194.12
309.046	189.22
309.512	194.42
309.979	181.82
310.445	175.27
310.912	178.52
311.378	170.42
311.845	176.87
312.311	166.82
312.777	168.47
313.244	178.02
313.71	185.87
314.176	201.02
314.642	232.22
315.109	268.67
315.575	250.12
316.041	234.17
316.507	214.32
316.973	242.17
317.439	228.87
317.905	256.17
318.371	254.67
318.837	242.37
319.303	256.67
319.769	237.67
320.235	260.37
320.701	293.72
321.167	317.57
321.633	381.02
322.099	519.07
322.564	688.27
323.03	540.67
323.496	381.97
323.962	362.62
324.427	343.97
324.893	301.62
325.359	286.62
325.824	253.57
326.29	265.22
326.755	267.47
327.221	268.12
327.686	279.67
328.152	257.72
328.617	245.72
329.083	250.17
329.548	263.22
330.014	270.27
330.479	296.82
330.944	338.32
331.41	386.32
331.875	373.12
332.34	378.87
332.805	437.67
333.271	559.22
333.736	723.47
334.201	660.42
334.666	494.07
335.131	566.27
335.596	443.12
336.061	466.32
336.526	474.37
336.991	418.72
337.456	454.32
337.921	363.62
338.386	300.27
338.851	273.62
339.316	260.02
339.781	249.32
340.246	258.07
340.711	256.77
341.175	259.47
341.64	274.07
342.105	274.37
342.569	290.47
343.034	299.12
343.499	317.67
343.963	301.32
344.428	300.42
344.893	304.22
345.357	312.47
345.822	306.27
346.286	311.37
346.751	332.87
347.215	331.27
347.679	329.77
348.144	356.47
348.608	345.12
349.073	358.67
349.537	404.02
350.001	390.77
350.465	369.77
350.93	355.87
351.394	359.52
351.858	353.27
352.322	370.97
352.786	370.92
353.25	368.32
353.715	372.87
354.179	389.32
354.643	416.22
355.107	421.82
355.571	437.27
356.035	451.47
356.498	435.42
356.962	464.47
357.426	458.72
357.89	411.12
358.354	393.52
358.818	387.52
359.281	401.57
359.745	416.37
360.209	418.52
360.673	417.57
361.136	422.67
361.6	415.27
362.064	442.07
362.527	450.82
362.991	445.72
363.454	449.57
363.918	454.37
364.381	442.22
364.845	439.02
365.308	435.62
365.772	436.47
366.235	439.87
366.698	459.77
367.162	548.62
367.625	612.12
368.088	494.67
368.552	466.87
369.015	466.27
369.478	492.87
369.941	501.62
370.404	511.17
370.867	539.02
371.331	546.57
371.794	550.77
372.257	608.02
372.72	646.47
373.183	616.22
373.646	627.52
374.109	625.77
374.572	722.47
375.035	835.87
375.497	642.62
375.96	529.02
376.423	506.72
376.886	506.22
377.349	515.92
377.811	522.12
378.274	530.02
378.737	537.22
379.199	554.77
379.662	563.47
380.125	597.37
380.587	652.57
381.05	692.77
381.512	691.82
381.975	676.37
382.437	664.32
382.9	664.42
383.362	671.27
383.825	715.27
384.287	888.62
384.75	985.17
385.212	866.07
385.674	726.07
386.136	668.37
386.599	655.92
387.061	682.22
387.523	708.97
387.985	712.02
388.447	733.67
388.91	815.67
389.372	976.32
389.834	925.12
390.296	773.17
390.758	784.22
391.22	805.22
391.682	985.17
392.144	1504.37
392.606	1410.52
393.068	844.37
393.529	775.82
393.991	761.67
394.453	742.37
394.915	780.87
395.377	943.57
395.838	1143.57
396.3	820.37
396.762	655.47
397.224	625.27
397.685	616.07
398.147	616.67
398.608	629.42
399.07	630.42
399.531	624.57
399.993	631.82
400.454	639.82
400.916	641.07
401.377	664.32
401.839	668.17
402.3	673.92
402.762	699.97
403.223	765.97
403.684	780.77
404.145	724.92
404.607	697.02
405.068	698.12
405.529	716.47
405.99	727.97
406.451	737.77
406.913	719.77
407.374	733.57
407.835	726.97
408.296	755.62
408.757	762.77
409.218	778.57
409.679	794.62
410.14	794.72
410.601	831.52
411.062	862.27
411.522	996.02
411.983	1093.47
412.444	940.92
412.905	838.27
413.366	839.47
413.826	868.47
414.287	969.62
414.748	1163.87
415.208	1185.12
415.669	988.57
416.13	903.07
416.59	886.17
417.051	917.72
417.511	958.07
417.972	1020.17
418.432	1102.57
418.893	1232.52
419.353	1164.97
419.814	896.22
420.274	805.12
420.734	807.07
421.195	854.82
421.655	885.07
422.115	858.72
422.576	826.02
423.036	839.52
423.496	862.22
423.956	909.52
424.416	974.87
424.876	1093.22
425.336	1095.17
425.797	1084.72
426.257	1081.02
426.717	1012.07
427.177	944.12
427.637	969.27
428.097	1011.87
428.556	1065.47
429.016	1161.52
429.476	1144.22
429.936	1107.02
430.396	1073.32
430.856	1086.02
431.315	1119.17
431.775	1193.47
432.235	1264.87
432.694	1287.42
433.154	1207.52
433.614	1180.87
434.073	1138.22
434.533	1038.22
434.993	1007.47
435.452	1013.32
435.912	992.57
436.371	995.52
436.83	997.37
437.29	1004.02
437.749	961.12
438.209	939.02
438.668	952.62
439.127	964.67
439.587	942.77
440.046	909.57
440.505	928.42
440.964	927.37
441.424	954.17
441.883	973.92
442.342	929.87
442.801	889.07
443.26	905.87
443.719	902.52
444.178	900.67
444.637	913.02
445.096	911.97
445.555	943.47
446.014	929.17
446.473	906.07
446.932	905.57
447.391	918.12
447.849	935.02
448.308	929.57
448.767	937.97
449.226	958.87
449.685	975.77
450.143	1009.27
450.602	1015.82
451.061	971.87
451.519	981.47
451.978	1009.72
452.436	1030.17
452.895	994.52
453.353	959.12
453.812	975.57
454.27	964.72
454.729	938.67
455.187	943.62
455.646	960.17
456.104	962.62
456.562	959.17
457.021	951.27
457.479	910.67
457.937	937.02
458.395	966.17
458.854	953.27
459.312	937.07
459.77	956.57
460.228	958.12
460.686	974.37
461.144	977.02
461.602	964.77
462.06	970.17
462.518	988.07
462.976	985.02
463.434	997.07
463.892	1004.17
464.35	1030.02
464.808	1046.32
465.266	1054.22
465.724	1064.42
466.181	1071.32
466.639	1064.82
467.097	1111.72
467.555	1149.02
468.012	1140.22
468.47	1144.57
468.928	1186.02
469.385	1208.97
469.843	1231.52
470.3	1219.22
470.758	1268.42
471.215	1277.82
471.673	1299.92
472.13	1336.52
472.588	1365.07
473.045	1358.32
473.503	1381.97
473.96	1447.97
474.417	1463.27
474.875	1527.72
475.332	1578.12
475.789	1598.17
476.246	1647.67
476.704	1720.22
477.161	1755.62
477.618	1803.17
478.075	1899.12
478.532	2044.47
478.989	2193.57
479.446	2416.52
479.903	2530.32
480.36	2768.67
480.817	2933.82
481.274	3131.32
481.731	3421.62
482.188	3679.57
482.645	3977.47
483.102	4196.12
483.558	4502.07
484.015	4713.82
484.472	4720.97
484.929	4581.37
485.385	4407.17
485.842	4306.77
486.299	4096.67
486.755	3715.02
487.212	3349.22
487.668	3036.62
488.125	2821.42
488.582	2603.52
489.038	2504.87
489.494	2440.72
489.951	2364.17
490.407	2310.47
490.864	2281.22
491.32	2231.17
491.776	2199.12
492.233	2198.82
492.689	2181.42
493.145	2149.32
493.602	2131.72
494.058	2171.02
494.514	2211.87
494.97	2206.27
495.426	2232.27
495.882	2239.12
496.338	2242.12
496.794	2313.22
497.251	2339.92
497.707	2341.32
498.163	2354.82
498.618	2349.47
499.074	2359.07
499.53	2409.92
499.986	2449.17
500.442	2466.82
500.898	2467.77
501.354	2514.87
501.809	2527.42
502.265	2549.87
502.721	2690.82
503.177	2739.12
503.632	2619.37
504.088	2636.22
504.543	2888.87
504.999	2706.87
505.455	2411.57
505.91	2308.97
506.366	2274.87
506.821	2280.82
507.277	2250.82
507.732	2252.12
508.187	2240.37
508.643	2279.12
509.098	2286.32
509.553	2312.37
510.009	2326.17
510.464	2370.82
510.919	2398.52
511.375	2415.07
511.83	2452.17
512.285	2507.37
512.74	2562.27
513.195	2590.37
513.65	2624.67
514.105	2674.47
514.56	2680.17
515.015	2741.72
515.47	2778.22
515.925	2746.32
516.38	2739.77
516.835	2725.87
517.29	2737.22
517.745	2735.92
518.2	2694.52
518.655	2619.07
519.109	2575.32
519.564	2554.92
520.019	2539.22
520.474	2512.07
520.928	2498.17
521.383	2485.42
521.838	2475.42
522.292	2454.47
522.747	2410.77
523.201	2418.82
523.656	2377.02
524.11	2380.32
524.565	2366.97
525.019	2381.12
525.474	2391.72
525.928	2383.72
526.382	2348.92
526.837	2337.32
527.291	2337.22
527.745	2330.97
528.2	2327.92
528.654	2307.47
529.108	2317.07
529.562	2320.77
530.016	2315.82
530.47	2329.22
530.925	2318.17
531.379	2330.57
531.833	2357.72
532.287	2340.92
532.741	2320.07
533.195	2333.17
533.649	2329.27
534.103	2335.42
534.556	2317.32
535.01	2333.67
535.464	2325.52
535.918	2340.82
536.372	2357.52
536.826	2340.82
537.279	2334.12
537.733	2329.57
538.187	2344.37
538.64	2339.47
539.094	2352.37
539.548	2382.97
540.001	2381.92
540.455	2391.97
540.908	2409.97
541.362	2434.87
541.815	2455.77
542.269	2484.47
542.722	2483.37
543.175	2511.67
543.629	2537.02
544.082	2552.17
544.536	2581.57
544.989	2584.67
545.442	2589.32
545.895	2602.02
546.349	2594.72
546.802	2609.72
547.255	2585.37
547.708	2616.27
548.161	2636.17
548.614	2640.37
549.067	2654.57
549.52	2632.72
549.973	2608.92
550.426	2585.32
550.879	2582.92
551.332	2571.02
551.785	2589.32
552.238	2609.97
552.691	2616.67
553.144	2648.37
553.596	2683.32
554.049	2723.87
554.502	2769.82
554.955	2833.72
555.407	2875.72
555.86	2834.67
556.313	2798.07
556.765	2776.57
557.218	2739.17
557.67	2742.22
558.123	2711.02
558.576	2687.82
559.028	2690.77
559.48	2715.12
559.933	2707.32
560.385	2621.42
560.838	2522.52
561.29	2462.97
561.742	2457.27
562.195	2391.82
562.647	2389.12
563.099	2386.57
563.551	2371.17
564.004	2392.02
564.456	2372.82
564.908	2319.32
565.36	2283.62
565.812	2231.67
566.264	2209.87
566.716	2177.27
567.168	2151.67
567.62	2165.52
568.072	2142.27
568.524	2110.52
568.976	2109.52
569.428	2078.32
569.88	2097.32
570.332	2094.52
570.784	2076.22
571.235	2072.92
571.687	2094.42
572.139	2100.17
572.59	2110.82
573.042	2121.72
573.494	2125.02
573.945	2083.47
574.397	2042.22
574.849	2042.82
575.3	2054.87
575.752	2015.12
576.203	2005.22
576.655	2027.37
577.106	1991.27
577.557	1983.52
578.009	1968.07
578.46	1976.97
578.912	1951.47
579.363	1958.72
579.814	1963.37
580.265	1955.87
580.717	1959.32
581.168	1972.57
581.619	1974.92
582.07	1992.77
582.521	1993.67
582.972	1979.07
583.423	1999.47
583.875	2044.87
584.326	2138.22
584.777	2314.67
585.227	2517.52
585.678	2688.07
586.129	2718.57
586.58	2788.22
587.031	2828.02
587.482	2985.47
587.933	3493.42
588.384	3218.37
588.834	2668.62
589.285	2297.02
589.736	2248.07
590.186	2258.42
590.637	2225.92
591.088	2184.07
591.538	2147.52
591.989	2135.77
592.439	2113.67
592.89	2096.87
593.34	2101.92
593.791	2104.42
594.241	2115.62
594.692	2153.27
595.142	2121.97
595.593	2088.92
596.043	2076.37
596.493	2124.22
596.943	2173.67
597.394	2146.92
597.844	2121.62
598.294	2152.12
598.744	2213.47
599.195	2323.22
599.645	2466.87
600.095	2581.72
600.545	2717.22
600.995	2829.97
601.445	2927.57
601.895	3072.52
602.345	3183.02
602.795	3129.37
603.245	2987.72
603.695	2803.92
604.145	2653.02
604.594	2527.67
605.044	2399.67
605.494	2253.62
605.944	2127.82
606.393	2092.32
606.843	2060.52
607.293	2053.57
607.743	2054.12
608.192	2070.42
608.642	2077.82
609.091	2077.27
609.541	2073.62
609.99	2063.22
610.44	2018.77
610.889	1997.97
611.339	1967.22
611.788	1962.32
612.238	1985.72
612.687	2000.97
613.136	2027.47
613.586	2058.47
614.035	2060.02
614.484	2080.17
614.933	2084.62
615.383	2052.77
615.832	1988.07
616.281	1948.92
616.73	1888.72
617.179	1840.77
617.628	1785.57
618.077	1760.47
618.526	1730.17
618.975	1724.42
619.424	1700.62
619.873	1714.77
620.322	1690.92
620.771	1678.32
621.22	1661.27
621.669	1635.82
622.118	1637.22
622.567	1607.77
623.015	1584.07
623.464	1561.87
623.913	1552.72
624.361	1553.87
624.81	1554.92
625.259	1541.67
625.707	1527.22
626.156	1534.32
626.604	1551.27
627.053	1551.17
627.501	1553.32
627.95	1571.42
628.398	1591.57
628.847	1560.07
629.295	1562.42
629.744	1580.72
630.192	1614.22
630.64	1733.37
631.089	1893.07
631.537	1970.62
631.985	1967.67
632.433	2051.02
632.881	2052.42
633.33	2443.62
633.778	2664.77
634.226	1900.02
634.674	1763.37
635.122	1741.67
635.57	1785.32
636.018	2066.17
636.466	1694.67
636.914	1505.52
637.362	1515.77
637.81	1531.77
638.258	1575.22
638.705	1585.02
639.153	1632.77
639.601	1657.07
640.049	1679.47
640.497	1725.92
640.944	1763.82
641.392	1684.52
641.84	1594.22
642.287	1521.42
642.735	1497.57
643.182	1478.12
643.63	1475.72
644.078	1481.02
644.525	1506.07
644.973	1537.77
645.42	1549.92
645.867	1590.72
646.315	1605.07
646.762	1664.57
647.21	1698.17
647.657	1792.12
648.104	1858.87
648.551	1904.32
648.999	2045.17
649.446	2241.77
649.893	2517.77
650.34	2925.22
650.787	3630.62
651.234	4680.37
651.682	6469.02
652.129	9201.22
652.576	13100.97
653.023	15537.07
653.47	15540.27
653.917	15540.32
654.363	15540.22
654.81	15537.22
655.257	15537.87
655.704	15533.87
656.151	10082.72
656.598	6595.87
657.044	4701.27
657.491	3684.97
657.938	2990.72
658.385	2559.12
658.831	2264.02
659.278	2034.17
659.724	1868.87
660.171	1751.47
660.618	1618.62
661.064	1526.17
661.511	1480.62
661.957	1434.82
662.404	1411.32
662.85	1388.87
663.296	1373.87
663.743	1352.07
664.189	1339.02
664.635	1323.22
665.082	1307.72
665.528	1294.47
665.974	1259.87
666.42	1245.52
666.867	1267.12
667.313	1270.97
667.759	1317.47
668.205	1322.47
668.651	1335.12
669.097	1293.57
669.543	1403.52
669.989	1323.92
670.435	1185.62
670.881	1178.52
671.327	1230.07
671.773	1305.32
672.219	1403.62
672.665	1489.67
673.11	1532.67
673.556	1566.82
674.002	1611.07
674.448	1623.02
674.893	1380.62
675.339	1200.37
675.785	1113.57
676.23	1054.07
676.676	1016.67
677.122	993.92
677.567	966.72
678.013	935.12
678.458	927.17
678.904	922.62
679.349	910.62
679.794	912.47
680.24	912.02
680.685	910.92
681.131	908.52
681.576	916.57
682.021	925.92
682.466	924.87
682.912	932.62
683.357	981.22
683.802	1055.42
684.247	1156.27
684.692	1228.72
685.137	1281.77
685.583	1300.67
686.028	1377.87
686.473	1309.32
686.918	1121.42
687.363	1032.52
687.807	975.52
688.252	939.47
688.697	905.92
689.142	875.82
689.587	877.27
690.032	895.62
690.477	931.02
690.921	977.32
691.366	1029.72
691.811	1072.82
692.255	1155.17
692.7	1410.32
693.145	2034.07
693.589	3101.62
694.034	3685.77
694.478	3912.87
694.923	3573.47
695.367	5154.77
695.812	3094.62
696.256	1308.32
696.701	959.47
697.145	885.07
697.59	868.92
698.034	844.32
698.478	857.72
698.922	858.42
699.367	872.72
699.811	915.67
700.255	996.27
700.699	1085.87
701.143	1171.52
701.588	1237.22
702.032	1296.42
702.476	1329.32
702.92	1414.02
703.364	1850.72
703.808	2847.07
704.252	3543.97
704.696	3728.27
705.14	3530.57
705.584	4877.37
706.027	2677.22
706.471	1339.27
706.915	1008.77
707.359	898.52
707.803	843.47
708.246	803.12
708.69	812.47
709.134	800.97
709.577	796.12
710.021	808.37
710.465	800.72
710.908	794.02
711.352	831.17
711.795	914.87
712.239	988.17
712.682	1012.32
713.126	1008.22
713.569	1126.17
714.012	927.27
714.456	816.32
714.899	761.77
715.342	712.42
715.786	682.12
716.229	673.52
716.672	657.42
717.115	656.17
717.558	668.32
718.002	681.67
718.445	712.52
718.888	748.37
719.331	757.72
719.774	771.32
720.217	757.42
720.66	713.52
721.103	683.32
721.546	644.17
721.989	622.37
722.432	626.02
722.874	623.02
723.317	634.32
723.76	687.82
724.203	842.57
724.645	1126.02
725.088	1320.07
725.531	1286.47
725.974	1409.07
726.416	1254.32
726.859	774.32
727.301	636.97
727.744	610.07
728.187	620.32
728.629	629.97
729.071	662.62
729.514	689.42
729.956	713.72
730.399	725.87
730.841	713.02
731.283	699.72
731.726	679.47
732.168	690.67
732.61	731.67
733.053	793.87
733.495	874.12
733.937	969.67
734.379	1147.12
734.821	1465.62
735.263	2339.92
735.705	4226.72
736.148	6142.22
736.59	6111.82
737.032	6665.17
737.474	5489.02
737.916	2082.62
738.357	1098.12
738.799	848.12
739.241	788.92
739.683	786.22
740.125	798.67
740.567	801.67
741.008	847.27
741.45	874.42
741.892	913.32
742.334	899.87
742.775	901.57
743.217	855.52
743.658	736.07
744.1	751.22
744.542	827.77
744.983	862.32
745.425	908.52
745.866	894.52
746.307	788.27
746.749	867.27
747.19	1258.12
747.632	2485.32
748.073	4615.17
748.514	6307.87
748.956	8377.32
749.397	9797.57
749.838	6719.87
750.279	6445.57
750.72	3297.37
751.162	1389.52
751.603	796.67
752.044	642.07
752.485	565.02
752.926	535.02
753.367	513.67
753.808	499.12
754.249	490.87
754.69	485.47
755.131	480.92
755.572	480.82
756.013	482.32
756.453	480.22
756.894	495.92
757.335	496.12
757.776	503.92
758.216	518.97
758.657	547.72
759.098	611.82
759.538	737.57
759.979	1061.22
760.42	2181.27
760.86	5586.97
761.301	11410.42
761.741	13256.42
762.182	15053.52
762.622	9877.22
763.063	3523.12
763.503	1546.02
763.943	1155.87
764.384	1214.92
764.824	1149.52
765.264	1138.42
765.705	820.42
766.145	604.22
766.585	528.12
767.025	566.07
767.465	729.87
767.906	870.32
768.346	913.57
768.786	950.37
769.226	1012.32
769.666	1780.77
770.106	3878.22
770.546	5414.62
770.986	6146.67
771.426	4602.92
771.866	1907.82
772.306	873.72
772.745	549.67
773.185	473.92
773.625	468.77
774.065	550.27
774.505	872.57
774.944	1727.37
775.384	2568.62
775.824	2948.32
776.263	2400.27
776.703	1177.52
777.142	605.92
777.582	425.02
778.021	386.57
778.461	367.72
778.9	354.57
779.34	335.82
779.779	322.47
780.219	311.47
780.658	305.12
781.097	306.22
781.537	291.22
781.976	285.52
782.415	289.62
782.855	294.47
783.294	288.42
783.733	283.52
784.172	289.22
784.611	288.02
785.05	292.32
785.489	303.37
785.928	302.87
786.367	317.92
786.806	337.77
787.245	358.77
787.684	374.47
788.123	369.62
788.562	355.02
789.001	337.42
789.44	328.57
789.879	325.47
790.317	332.47
790.756	348.32
791.195	398.92
791.634	543.67
792.072	997.22
792.511	2469.17
792.95	4473.92
793.388	5401.72
793.827	3462.27
794.265	1582.32
794.704	759.12
795.142	468.22
795.581	388.82
796.019	348.77
796.458	346.22
796.896	358.77
797.334	412.57
797.773	554.37
798.211	1077.47
798.649	2236.77
799.087	3771.47
799.526	5278.22
799.964	5429.42
800.402	3707.22
800.84	1664.97
801.278	815.22
801.716	493.62
802.154	401.37
802.592	379.57
803.03	381.57
803.468	389.12
803.906	388.32
804.344	384.42
804.782	375.77
805.22	376.02
805.658	388.77
806.096	415.17
806.533	456.22
806.971	596.67
807.409	868.87
807.847	1752.12
808.284	4493.72
808.722	7743.27
809.16	10908.32
809.597	14550.02
810.035	15542.22
810.472	11678.82
810.91	4974.37
811.347	2214.07
811.785	1042.47
812.222	658.02
812.66	501.57
813.097	425.32
813.535	374.72
813.972	341.02
814.409	311.42
814.846	301.12
815.284	284.62
815.721	285.52
816.158	311.67
816.595	391.27
817.032	474.47
817.47	446.67
817.907	352.17
818.344	308.32
818.781	293.37
819.218	350.12
819.655	497.02
820.092	626.07
820.529	581.57
820.966	475.77
821.403	349.47
821.839	307.32
822.276	328.12
822.713	378.27
823.15	364.97
823.587	395.97
824.023	721.52
824.46	1836.67
824.897	3189.67
825.333	2443.37
825.77	1116.57
826.206	587.42
826.643	344.77
827.08	265.12
827.516	226.62
827.953	214.92
828.389	201.77
828.825	196.52
829.262	184.52
829.698	175.62
830.135	168.92
830.571	169.67
831.007	171.27
831.443	176.82
831.88	179.72
832.316	186.17
832.752	179.12
833.188	184.02
833.624	185.42
834.06	183.02
834.497	188.32
834.933	189.62
835.369	208.47
835.805	213.02
836.241	223.97
836.677	249.07
837.112	289.12
837.548	353.82
837.984	529.62
838.42	1150.47
838.856	3235.97
839.292	6344.97
839.727	4619.17
840.163	3141.47
840.599	4815.52
841.034	7283.17
841.47	3610.37
841.906	1752.97
842.341	984.62
842.777	835.47
843.212	956.42
843.648	567.57
844.083	362.47
844.519	260.52
844.954	204.02
845.39	181.02
845.825	173.82
846.261	162.57
846.696	152.92
847.131	148.37
847.566	151.22
848.002	153.72
848.437	167.67
848.872	170.27
849.307	217.42
849.742	404.77
850.177	1049.42
850.613	2228.17
851.048	1569.87
851.483	718.67
851.918	409.67
852.353	237.37
852.788	186.72
853.223	161.67
853.657	140.07
854.092	133.62
854.527	128.47
854.962	133.27
855.397	140.97
855.832	122.12
856.266	112.12
856.701	114.07
857.136	115.07
857.57	138.72
858.005	161.22
858.44	140.27
858.874	137.77
859.309	139.32
859.743	137.92
860.178	128.42
860.612	146.92
861.047	181.27
861.481	230.47
861.915	168.22
862.35	135.12
862.784	113.22
863.218	107.07
863.653	116.47
864.087	142.62
864.521	182.82
864.955	304.52
865.39	516.32
865.824	371.02
866.258	428.07
866.692	605.92
867.126	440.32
867.56	244.47
867.994	163.57
868.428	143.87
868.862	174.57
869.296	159.62
869.73	180.97
870.164	164.62
870.598	140.17
871.031	114.17
871.465	104.47
871.899	90.47
872.333	77.87
872.766	83.32
873.2	85.07
873.634	80.57
874.067	83.52
874.501	86.42
874.935	89.52
875.368	86.32
875.802	80.37
876.235	79.07
876.669	74.02
877.102	69.42
877.535	65.37
877.969	70.92
878.402	76.02
878.836	72.77
879.269	68.07
879.702	68.17
880.135	73.32
880.569	78.57
881.002	69.02
881.435	61.87
881.868	69.47
882.301	64.62
882.734	55.77
883.167	66.57
883.601	59.32
884.034	60.02
884.467	56.47
884.899	56.77
885.332	53.72
885.765	53.92
886.198	56.87
886.631	51.27
887.064	57.17
887.497	53.42
887.929	52.62
888.362	55.77
888.795	51.17
889.228	58.82
889.66	54.82
890.093	50.27
890.526	51.97
890.958	52.32
891.391	55.37
891.823	50.02
892.256	54.67
892.688	51.67
893.121	48.47
893.553	52.97
893.985	49.57
894.418	46.42
894.85	50.72
895.282	51.17
895.715	48.47
896.147	41.77
896.579	39.67
897.011	48.67
897.444	48.57
897.876	41.22
898.308	45.02
898.74	45.52
899.172	52.37
899.604	55.37
900.036	49.57
900.468	44.17
900.9	50.32
901.332	60.92
901.764	61.97
902.196	60.92
902.628	62.12
903.06	80.07
903.491	83.97
903.923	74.07
904.355	73.07
904.787	77.92
905.218	66.42
905.65	64.02
906.082	60.72
906.513	57.57
906.945	58.27
907.376	56.92
907.808	56.27
908.239	68.47
908.671	69.72
909.102	81.72
909.534	108.52
909.965	203.77
910.397	517.67
910.828	1496.97
911.259	896.97
911.691	482.07
912.122	280.77
912.553	144.72
912.984	78.47
913.415	75.42
913.847	60.02
914.278	61.17
914.709	53.27
915.14	47.27
915.571	57.82
916.002	50.12
916.433	46.02
916.864	45.42
917.295	45.87
917.726	63.27
918.157	70.97
918.587	70.27
919.018	68.52
919.449	62.27
919.88	73.02
920.311	110.02
920.741	313.82
921.172	548.97
921.603	271.47
922.033	172.42
922.464	109.77
922.895	72.87
923.325	55.42
923.756	52.32
924.186	66.97
924.617	116.27
925.047	171.42
925.478	159.17
925.908	107.72
926.338	83.22
926.769	61.07
927.199	48.12
927.629	49.12
928.06	46.32
928.49	44.17
928.92	38.62
929.35	40.07
929.78	31.67
930.21	31.57
930.641	25.87
931.071	28.32
931.501	23.62
931.931	24.47
932.361	27.92
932.791	34.47
933.221	29.42
933.651	45.97
934.08	71.67
934.51	48.37
934.94	40.67
935.37	27.92
935.8	22.87
936.229	22.62
936.659	23.32
937.089	34.42
937.519	51.72
937.948	70.22
938.378	43.57
938.807	31.22
939.237	22.42
939.666	23.52
940.096	17.02
940.525	10.02
940.955	21.72
941.384	10.02
941.814	14.47
942.243	15.22
942.672	11.62
943.102	10.07
943.531	12.17
943.96	10.82
944.39	16.67
944.819	21.22
945.248	11.52
945.677	14.57
946.106	12.87
946.535	12.42
946.964	13.57
947.393	10.62
947.822	11.47
948.251	15.87
948.68	17.57
949.109	19.42
949.538	9.92
949.967	12.37
950.396	12.02
950.825	15.22
951.254	12.67
951.682	8.22
952.111	9.77
952.54	11.62
952.969	7.92
953.397	6.62
953.826	9.87
954.254	12.27
954.683	9.32
955.112	16.07
955.54	10.67
955.969	7.62
956.397	10.32
956.826	9.42
957.254	9.62
957.682	12.92
958.111	13.47
958.539	11.67
958.967	14.87
959.396	12.42
959.824	11.62
960.252	13.17
960.68	8.67
961.109	15.87
961.537	12.02
961.965	3.62
962.393	3.07
962.821	9.72
963.249	15.17
963.677	16.77
964.105	93.22
964.533	158.07
964.961	77.12
965.389	45.57
965.817	24.32
966.245	15.37
966.672	9.62
967.1	10.77
967.528	4.72
967.956	8.22
968.383	10.37
968.811	7.02
969.239	7.72
969.666	8.07
970.094	10.17
970.522	5.27
970.949	7.57
971.377	2.97
971.804	2.12
972.232	6.37
972.659	9.52
973.087	6.87
973.514	2.22
973.941	1.02
974.369	1.12
974.796	6.12
975.223	5.97
975.651	10.92
976.078	9.17
976.505	19.07
976.932	40.52
977.359	47.82
977.786	26.32
978.214	24.37
978.641	9.62
979.068	9.22
979.495	7.97
979.922	9.12
980.349	9.37
980.776	10.47
981.202	8.22
981.629	10.12
982.056	7.22
982.483	0.67
982.91	7.52
983.337	3.07
983.763	7.82
984.19	10.27
984.617	7.87
985.043	8.42
985.47	10.32
985.897	9.57
986.323	7.07
986.75	0.92
987.176	5.42
987.603	6.42
988.029	5.37
988.456	9.97
988.882	4.72
989.308	0.77
989.735	3.77
990.161	5.77
990.587	4.62
991.014	7.37
991.44	4.67
991.866	6.07
992.292	8.57
992.719	7.27
993.145	6.72
993.571	2.97
993.997	4.72
994.423	5.27
994.849	2.77
995.275	7.42
995.701	8.12
996.127	0.37
996.553	6.07
996.979	2.22
997.405	5.37
997.83	3.32
998.256	4.02
998.682	2.37
999.108	4.27
999.534	-3.33
999.959	1.12
1000.385	10.82
1000.811	2.17
1001.236	1.37
1001.662	5.17
1002.087	11.17
1002.513	8.32
1002.938	-0.98
1003.364	5.32
1003.789	7.97
1004.215	-5.63
1004.64	2.82
1005.066	6.12
1005.491	7.12
1005.916	1.22
1006.342	3.52
1006.767	4.72
1007.192	8.77
1007.617	4.92
1008.042	1.42
1008.468	7.72
1008.893	6.62
1009.318	7.92
1009.743	16.57
1010.168	25.47
1010.593	22.97
1011.018	10.92
1011.443	7.72
1011.868	9.02
1012.293	5.22
1012.718	2.17
1013.143	0.42
1013.567	12.87
1013.992	8.52
1014.417	2.97
1014.842	-1.18
1015.267	-0.18
1015.691	5.02
1016.116	3.32
1016.541	5.17
1016.965	1.82
1017.39	4.12
1017.814	-0.08
1018.239	0.72
1018.663	-4.28
1019.088	-6.13
1019.512	7.07
1019.937	0.07
1020.361	3.62
1020.785	0.67
1021.21	0.42
1021.634	2.37
1022.058	2.57
1022.483	-1.98
1022.907	-1.13
1023.331	-0.73
1023.755	-1.18
1024.179	-1.28
1024.604	-2.28
1025.028	1.57
1025.452	1.47
1025.876	3.22
1026.3	0.17
1026.724	0.02
1027.148	3.17
1027.572	-0.83
1027.996	4.67
1028.42	-0.88
1028.843	2.27
1029.267	-0.78
1029.691	8.72
1030.115	1.42
1030.539	0.37
1030.962	-2.13
1031.386	0.67
1031.81	1.17
1032.233	-0.73
1032.657	-1.43
1033.08	0.62
1033.504	-0.58
1033.927	-2.73
1034.351	3.87
1034.774	-2.78
1035.198	-1.73
1035.621	2.27
1036.045	-3.38
1036.468	5.17
1036.891	0.57
1037.315	6.42
1037.738	0.32
1038.161	0.37
1038.584	-2.78
1039.008	0.97
1039.431	-1.63
1039.854	-5.78
1040.277	3.42
1040.7	2.92
1041.123	4.02
1041.546	-0.83
1041.969	1.72
1042.392	0.52
1042.815	-5.33
1043.238	0.07
1043.661	2.87
1044.084	-1.23
1044.507	1.22
1044.93	-0.13
1045.352	6.02
1045.775	1.07
1046.198	3.27
1046.621	1.87
1047.043	-0.58
1047.466	4.62
1047.889	2.52
1048.311	3.52
1048.734	-1.13
1049.156	0.32
1049.579	3.77
1050.001	2.07
1050.424	-0.13
1050.846	-0.78
1051.269	-4.28
1051.691	1.97
1052.113	2.22
1052.536	0.77
1052.958	-5.88
1053.38	0.32
1053.802	0.77
1054.225	0.22
1054.647	2.57
1055.069	-0.83
1055.491	0.67
1055.913	-1.38
1056.335	-6.38
1056.757	2.97
1057.179	-0.63
1057.601	-0.68
1058.023	0.72
1058.445	-0.78
1058.867	0.52
1059.289	-0.58
1059.711	-3.93
1060.133	2.97
1060.555	-2.28
1060.976	3.62
1061.398	-2.88
1061.82	0.62
1062.241	-2.08
1062.663	-2.08
1063.085	-6.78
1063.506	-9.43
1063.928	-1.98
1064.35	-3.08
1064.771	-2.53
1065.193	-1.03
1065.614	-0.23
1066.035	7.77
1066.457	4.67
1066.878	4.07
1067.3	3.12
1067.721	3.42
1068.142	6.67
1068.564	6.72
1068.985	-0.98
1069.406	-5.98
1069.827	1.82
1070.248	-5.03
1070.67	-4.08
1071.091	1.27
1071.512	3.32
1071.933	1.12
1072.354	-11.38
1072.775	0.77
1073.196	-2.38
1073.617	-4.43
1074.038	-4.18
1074.459	-3.88
1074.88	-0.83
1075.3	-0.03
1075.721	2.27
1076.142	-4.43
1076.563	-6.78
1076.983	1.17
1077.404	-6.08
1077.825	-0.68
1078.246	-1.98
1078.666	-1.68
1079.087	-5.03
1079.507	-7.23
1079.928	-1.28
1080.348	-0.23
1080.769	-2.78
1081.189	-0.83
1081.61	-3.98
1082.03	0.22
1082.451	-0.43
1082.871	-1.68
1083.291	-0.83
1083.711	-2.68
1084.132	-3.13
1084.552	-6.53
1084.972	-10.58
1085.392	-3.53
1085.813	1.97
1086.233	-1.28
1086.653	-1.23
1087.073	-2.43
1087.493	-7.88
1087.913	-5.03
1088.333	1.62
1088.753	1.47
1089.173	2.07
1089.593	-1.83
1090.013	-0.93
1090.433	-5.28
1090.852	1.22
1091.272	-7.98
1091.692	0.72
1092.112	-4.98
1092.531	-3.28
1092.951	-0.93
1093.371	-4.18
1093.79	-4.08
1094.21	-0.33
1094.63	-2.23
1095.049	0.67
1095.469	-6.53
1095.888	-1.98
1096.308	0.32
1096.727	-3.78
1097.146	-3.88
1097.566	-3.28
1097.985	-1.23
1098.405	-3.73
1098.824	2.32
1099.243	-1.78
1099.662	-3.08
1100.082	-1.13
1100.501	3.22
1100.92	5.72
1101.339	-1.18
1101.758	3.57
