Data from MSPlasma+Separation6_Subt14_10-15-43-289.txt Node
Date: Fri Jul 21 10:15:43 EDT 2017
User: Ender
Spectrometer: HR+D1039
Trigger mode: 0
Integration Time (sec): 2.510000E-3
Scans to average: 20
Electric dark correction enabled: true
Nonlinearity correction enabled: false
Boxcar width: 0
XAxis mode: Wavelengths
Number of Pixels in Spectrum: 2048
>>>>>Begin Spectral Data<<<<<
187.836	-0.59
188.309	-0.59
188.782	-0.59
189.255	1.06
189.728	4.41
190.201	-0.29
190.674	-1.54
191.147	-2.04
191.619	4.61
192.092	-1.59
192.565	-0.69
193.038	3.41
193.511	-1.24
193.984	2.36
194.456	-1.94
194.929	-1.24
195.402	-6.29
195.874	1.56
196.347	2.36
196.82	3.36
197.292	-1.49
197.765	-0.64
198.237	0.06
198.71	-5.34
199.182	-1.79
199.655	1.01
200.127	0.46
200.6	-0.59
201.072	1.51
201.544	-0.59
202.017	2.16
202.489	4.11
202.961	-4.04
203.433	-3.69
203.906	0.36
204.378	3.86
204.85	-2.49
205.322	-1.79
205.794	4.01
206.266	-3.34
206.739	0.76
207.211	-1.69
207.683	-1.79
208.155	-0.69
208.627	-3.84
209.099	0.86
209.57	4.01
210.042	3.96
210.514	-1.49
210.986	2.76
211.458	4.31
211.93	2.46
212.402	3.06
212.873	-1.69
213.345	-3.79
213.817	-2.04
214.288	-3.44
214.76	-1.69
215.232	-0.59
215.703	-3.24
216.175	-0.29
216.646	0.46
217.118	-3.19
217.589	-6.69
218.061	2.61
218.532	2.56
219.004	-2.14
219.475	3.51
219.946	7.41
220.418	11.26
220.889	5.71
221.36	3.06
221.832	5.66
222.303	2.31
222.774	-0.64
223.245	-1.04
223.717	-1.89
224.188	2.51
224.659	0.71
225.13	-1.14
225.601	1.46
226.072	1.16
226.543	2.96
227.014	-2.49
227.485	2.96
227.956	1.76
228.427	5.71
228.898	3.51
229.369	1.11
229.839	6.56
230.31	6.76
230.781	1.16
231.252	5.31
231.722	5.91
232.193	12.51
232.664	12.26
233.135	17.81
233.605	18.86
234.076	17.01
234.546	13.16
235.017	19.11
235.487	16.56
235.958	14.91
236.428	22.16
236.899	33.71
237.369	41.06
237.84	30.06
238.31	34.81
238.78	34.71
239.251	35.71
239.721	33.96
240.191	22.81
240.662	13.96
241.132	12.91
241.602	17.31
242.072	22.36
242.542	26.26
243.013	20.51
243.483	16.56
243.953	11.01
244.423	11.06
244.893	16.96
245.363	20.91
245.833	16.16
246.303	18.51
246.773	27.61
247.243	31.21
247.712	33.16
248.182	37.11
248.652	35.61
249.122	53.96
249.592	110.01
250.061	163.01
250.531	262.01
251.001	201.76
251.471	168.51
251.94	128.81
252.41	68.16
252.879	45.36
253.349	37.76
253.818	29.16
254.288	26.56
254.757	26.31
255.227	35.01
255.696	28.01
256.166	26.66
256.635	30.61
257.105	35.86
257.574	43.76
258.043	45.26
258.513	86.86
258.982	108.46
259.451	79.81
259.92	76.06
260.389	70.76
260.859	48.31
261.328	56.61
261.797	87.11
262.266	75.76
262.735	35.36
263.204	21.31
263.673	23.16
264.142	17.31
264.611	19.86
265.08	19.91
265.549	20.76
266.018	20.91
266.487	18.91
266.955	14.71
267.424	25.91
267.893	25.31
268.362	24.21
268.83	22.86
269.299	19.36
269.768	31.16
270.236	31.76
270.705	36.41
271.174	32.51
271.642	34.76
272.111	41.36
272.579	71.56
273.048	113.91
273.516	145.31
273.985	149.01
274.453	113.71
274.922	64.46
275.39	38.46
275.858	42.31
276.327	31.31
276.795	30.91
277.263	42.41
277.731	48.36
278.2	96.61
278.668	128.01
279.136	106.91
279.604	59.56
280.072	38.91
280.54	33.11
281.008	37.81
281.477	33.36
281.945	40.51
282.413	34.31
282.881	37.26
283.348	38.56
283.816	37.76
284.284	41.66
284.752	39.11
285.22	43.41
285.688	46.61
286.156	73.56
286.623	206.76
287.091	396.16
287.559	208.91
288.026	81.66
288.494	51.16
288.962	44.01
289.429	33.46
289.897	36.86
290.364	36.31
290.832	37.01
291.3	38.16
291.767	41.76
292.234	40.61
292.702	45.66
293.169	42.86
293.637	46.86
294.104	49.21
294.571	43.31
295.039	48.31
295.506	42.31
295.973	46.61
296.44	39.76
296.908	46.76
297.375	54.46
297.842	55.36
298.309	46.46
298.776	44.76
299.243	47.56
299.71	48.41
300.177	47.06
300.644	50.16
301.111	55.61
301.578	54.41
302.045	48.86
302.512	47.86
302.979	52.41
303.446	53.66
303.913	52.91
304.379	64.21
304.846	60.96
305.313	69.86
305.78	88.61
306.246	96.81
306.713	110.61
307.18	95.56
307.646	104.91
308.113	87.66
308.579	74.26
309.046	74.76
309.512	69.71
309.979	66.21
310.445	60.31
310.912	63.66
311.378	64.46
311.845	63.96
312.311	57.16
312.777	62.01
313.244	69.96
313.71	66.41
314.176	80.61
314.642	88.81
315.109	104.06
315.575	94.21
316.041	88.41
316.507	80.71
316.973	95.96
317.439	87.66
317.905	96.36
318.371	94.21
318.837	87.46
319.303	96.16
319.769	84.86
320.235	100.61
320.701	109.91
321.167	115.61
321.633	142.31
322.099	198.81
322.564	267.76
323.03	207.46
323.496	140.61
323.962	136.46
324.427	132.41
324.893	109.21
325.359	114.36
325.824	96.36
326.29	99.71
326.755	100.21
327.221	96.96
327.686	112.66
328.152	96.21
328.617	94.01
329.083	94.36
329.548	98.01
330.014	102.41
330.479	112.71
330.944	131.21
331.41	153.36
331.875	145.16
332.34	149.61
332.805	167.96
333.271	212.31
333.736	279.56
334.201	250.96
334.666	193.11
335.131	217.71
335.596	172.41
336.061	179.06
336.526	185.46
336.991	155.46
337.456	175.46
337.921	140.76
338.386	111.01
338.851	100.31
339.316	96.01
339.781	93.16
340.246	96.91
340.711	98.36
341.175	96.91
341.64	101.71
342.105	104.01
342.569	107.41
343.034	111.26
343.499	118.81
343.963	119.16
344.428	116.26
344.893	115.11
345.357	117.61
345.822	120.46
346.286	120.26
346.751	121.61
347.215	119.51
347.679	131.86
348.144	142.86
348.608	132.56
349.073	139.36
349.537	156.36
350.001	152.61
350.465	140.11
350.93	136.76
351.394	143.16
351.858	136.11
352.322	142.56
352.786	142.51
353.25	139.16
353.715	138.46
354.179	153.31
354.643	152.16
355.107	158.31
355.571	160.41
356.035	170.11
356.498	165.76
356.962	181.01
357.426	171.61
357.89	154.96
358.354	146.91
358.818	150.26
359.281	147.16
359.745	156.01
360.209	158.31
360.673	157.21
361.136	163.31
361.6	162.46
362.064	170.81
362.527	168.06
362.991	172.71
363.454	170.66
363.918	176.06
364.381	176.06
364.845	172.76
365.308	170.16
365.772	165.06
366.235	171.06
366.698	180.86
367.162	215.56
367.625	235.66
368.088	194.06
368.552	173.86
369.015	178.31
369.478	195.86
369.941	194.96
370.404	200.01
370.867	207.71
371.331	210.16
371.794	215.16
372.257	238.06
372.72	250.71
373.183	241.11
373.646	243.76
374.109	246.46
374.572	283.26
375.035	324.21
375.497	251.11
375.96	206.81
376.423	195.66
376.886	195.81
377.349	204.96
377.811	199.91
378.274	206.11
378.737	205.76
379.199	210.86
379.662	215.46
380.125	233.36
380.587	253.76
381.05	272.01
381.512	267.71
381.975	259.36
382.437	261.16
382.9	260.51
383.362	260.61
383.825	278.41
384.287	348.46
384.75	389.31
385.212	346.21
385.674	287.86
386.136	261.06
386.599	262.56
387.061	266.16
387.523	279.06
387.985	285.01
388.447	293.41
388.91	326.56
389.372	392.36
389.834	368.16
390.296	304.51
390.758	310.06
391.22	326.96
391.682	395.36
392.144	595.41
392.606	558.06
393.068	340.31
393.529	310.76
393.991	292.81
394.453	290.81
394.915	304.46
395.377	367.06
395.838	453.66
396.3	322.71
396.762	255.56
397.224	241.81
397.685	236.31
398.147	245.31
398.608	246.36
399.07	250.01
399.531	242.86
399.993	253.71
400.454	254.31
400.916	252.61
401.377	254.41
401.839	256.81
402.3	261.31
402.762	276.06
403.223	300.11
403.684	304.06
404.145	281.56
404.607	271.86
405.068	273.26
405.529	278.36
405.99	288.76
406.451	285.56
406.913	280.21
407.374	284.46
407.835	287.21
408.296	305.01
408.757	305.26
409.218	310.86
409.679	314.41
410.14	313.61
410.601	327.81
411.062	345.36
411.522	400.91
411.983	427.91
412.444	374.56
412.905	328.56
413.366	333.61
413.826	334.11
414.287	375.41
414.748	442.26
415.208	447.71
415.669	381.26
416.13	350.31
416.59	341.61
417.051	351.81
417.511	367.91
417.972	391.26
418.432	422.96
418.893	461.21
419.353	443.71
419.814	343.01
420.274	310.96
420.734	309.71
421.195	326.56
421.655	341.36
422.115	334.21
422.576	323.56
423.036	327.16
423.496	338.36
423.956	353.61
424.416	381.81
424.876	426.51
425.336	418.91
425.797	416.96
426.257	423.16
426.717	399.86
427.177	381.71
427.637	387.51
428.097	406.51
428.556	428.01
429.016	462.86
429.476	459.11
429.936	449.61
430.396	436.66
430.856	441.31
431.315	452.01
431.775	488.31
432.235	517.01
432.694	521.56
433.154	488.41
433.614	475.51
434.073	461.46
434.533	419.86
434.993	399.76
435.452	404.41
435.912	395.91
436.371	394.61
436.83	392.06
437.29	395.01
437.749	374.86
438.209	375.51
438.668	379.51
439.127	375.36
439.587	370.91
440.046	354.31
440.505	366.51
440.964	364.06
441.424	371.51
441.883	379.36
442.342	356.16
442.801	340.46
443.26	350.81
443.719	350.46
444.178	343.96
444.637	349.26
445.096	350.41
445.555	359.26
446.014	365.36
446.473	346.66
446.932	350.51
447.391	349.91
447.849	360.91
448.308	360.66
448.767	360.71
449.226	373.86
449.685	376.91
450.143	390.51
450.602	385.31
451.061	376.11
451.519	376.31
451.978	388.76
452.436	397.76
452.895	382.76
453.353	373.26
453.812	378.71
454.27	366.61
454.729	362.46
455.187	365.26
455.646	368.36
456.104	371.91
456.562	365.86
457.021	363.11
457.479	348.06
457.937	357.86
458.395	369.51
458.854	361.36
459.312	358.91
459.77	363.46
460.228	375.36
460.686	371.16
461.144	376.31
461.602	367.16
462.06	365.66
462.518	382.01
462.976	381.06
463.434	385.16
463.892	385.16
464.35	398.26
464.808	403.31
465.266	403.56
465.724	412.96
466.181	411.61
466.639	405.11
467.097	426.31
467.555	442.26
468.012	436.21
468.47	436.76
468.928	452.26
469.385	467.56
469.843	470.11
470.3	469.86
470.758	488.21
471.215	493.81
471.673	502.36
472.13	514.21
472.588	529.56
473.045	532.41
473.503	531.06
473.96	553.11
474.417	566.16
474.875	598.36
475.332	613.26
475.789	627.81
476.246	651.11
476.704	677.51
477.161	697.41
477.618	712.26
478.075	759.16
478.532	824.71
478.989	892.11
479.446	991.16
479.903	1043.31
480.36	1155.71
480.817	1237.96
481.274	1333.06
481.731	1449.76
482.188	1573.91
482.645	1704.36
483.102	1804.31
483.558	1917.46
484.015	2009.96
484.472	2014.21
484.929	1943.71
485.385	1857.81
485.842	1819.76
486.299	1717.56
486.755	1547.86
487.212	1389.66
487.668	1243.01
488.125	1144.61
488.582	1041.26
489.038	998.61
489.494	967.76
489.951	932.51
490.407	905.51
490.864	889.51
491.32	863.86
491.776	851.51
492.233	858.06
492.689	834.91
493.145	824.66
493.602	815.01
494.058	834.11
494.514	853.61
494.97	849.16
495.426	860.36
495.882	855.31
496.338	865.71
496.794	890.76
497.251	894.06
497.707	891.16
498.163	897.06
498.618	896.01
499.074	902.56
499.53	921.51
499.986	935.11
500.442	950.01
500.898	943.76
501.354	967.61
501.809	968.26
502.265	979.46
502.721	1030.46
503.177	1053.76
503.632	1005.81
504.088	1005.71
504.543	1092.76
504.999	1030.21
505.455	916.66
505.91	872.06
506.366	867.31
506.821	864.66
507.277	852.41
507.732	852.36
508.187	856.41
508.643	866.91
509.098	861.71
509.553	876.11
510.009	889.46
510.464	900.76
510.919	905.81
511.375	915.91
511.83	928.76
512.285	950.16
512.74	974.61
513.195	985.76
513.65	998.41
514.105	1008.81
514.56	1006.01
515.015	1032.36
515.47	1035.51
515.925	1044.36
516.38	1020.91
516.835	1029.31
517.29	1028.11
517.745	1032.41
518.2	1012.01
518.655	992.21
519.109	972.71
519.564	953.21
520.019	961.61
520.474	949.36
520.928	935.86
521.383	945.21
521.838	939.66
522.292	924.31
522.747	910.96
523.201	917.01
523.656	903.96
524.11	902.61
524.565	901.61
525.019	900.06
525.474	908.81
525.928	906.26
526.382	893.26
526.837	882.26
527.291	888.31
527.745	879.21
528.2	888.31
528.654	870.16
529.108	877.81
529.562	876.76
530.016	880.11
530.47	884.96
530.925	886.21
531.379	878.66
531.833	898.36
532.287	888.01
532.741	885.56
533.195	877.81
533.649	883.86
534.103	892.81
534.556	877.21
535.01	887.86
535.464	882.66
535.918	884.46
536.372	894.46
536.826	889.86
537.279	876.61
537.733	870.11
538.187	882.71
538.64	877.96
539.094	889.01
539.548	898.26
540.001	899.01
540.455	903.91
540.908	915.21
541.362	918.41
541.815	925.86
542.269	952.61
542.722	942.66
543.175	956.21
543.629	959.86
544.082	965.36
544.536	971.66
544.989	978.61
545.442	981.26
545.895	975.56
546.349	979.46
546.802	981.41
547.255	984.31
547.708	985.56
548.161	1003.61
548.614	990.96
549.067	996.56
549.52	994.56
549.973	976.21
550.426	981.56
550.879	970.41
551.332	963.51
551.785	974.96
552.238	987.01
552.691	981.31
553.144	995.66
553.596	1013.81
554.049	1032.51
554.502	1042.91
554.955	1060.56
555.407	1080.31
555.86	1068.11
556.313	1050.91
556.765	1043.41
557.218	1039.61
557.67	1026.81
558.123	1018.06
558.576	1006.71
559.028	1007.16
559.48	1023.01
559.933	1018.06
560.385	992.11
560.838	953.56
561.29	926.71
561.742	924.91
562.195	908.86
562.647	902.41
563.099	903.16
563.551	897.76
564.004	911.36
564.456	891.81
564.908	881.46
565.36	861.96
565.812	845.51
566.264	846.56
566.716	824.01
567.168	814.86
567.62	825.66
568.072	814.96
568.524	800.96
568.976	797.96
569.428	800.16
569.88	795.16
570.332	792.96
570.784	797.86
571.235	787.16
571.687	804.96
572.139	795.46
572.59	805.66
573.042	807.66
573.494	811.01
573.945	796.21
574.397	778.21
574.849	773.86
575.3	785.46
575.752	768.41
576.203	758.86
576.655	761.96
577.106	754.61
577.557	764.91
578.009	743.81
578.46	755.51
578.912	750.16
579.363	748.16
579.814	748.66
580.265	749.46
580.717	753.66
581.168	749.86
581.619	752.26
582.07	765.56
582.521	760.41
582.972	754.51
583.423	754.96
583.875	774.56
584.326	816.76
584.777	893.41
585.227	966.91
585.678	1031.51
586.129	1044.31
586.58	1065.06
587.031	1065.71
587.482	1128.21
587.933	1303.96
588.384	1207.66
588.834	1012.51
589.285	877.76
589.736	855.91
590.186	853.76
590.637	846.66
591.088	820.86
591.538	812.06
591.989	816.11
592.439	805.81
592.89	793.81
593.34	804.31
593.791	806.96
594.241	808.81
594.692	815.36
595.142	809.86
595.593	802.36
596.043	802.21
596.493	807.61
596.943	823.26
597.394	818.91
597.844	807.91
598.294	820.96
598.744	845.71
599.195	898.06
599.645	938.86
600.095	979.86
600.545	1028.66
600.995	1074.01
601.445	1110.96
601.895	1157.31
602.345	1182.61
602.795	1172.11
603.245	1117.91
603.695	1048.81
604.145	1000.41
604.594	958.46
605.044	907.06
605.494	850.31
605.944	807.86
606.393	792.51
606.843	792.51
607.293	789.21
607.743	773.76
608.192	798.51
608.642	794.21
609.091	790.91
609.541	790.06
609.99	784.11
610.44	768.76
610.889	762.46
611.339	755.11
611.788	751.31
612.238	757.71
612.687	767.36
613.136	778.16
613.586	795.26
614.035	787.91
614.484	803.26
614.933	801.91
615.383	785.36
615.832	760.91
616.281	746.11
616.73	723.66
617.179	704.81
617.628	686.26
618.077	681.36
618.526	674.71
618.975	670.06
619.424	648.26
619.873	655.61
620.322	654.21
620.771	647.31
621.22	647.51
621.669	632.96
622.118	624.81
622.567	620.16
623.015	608.01
623.464	611.76
623.913	597.51
624.361	603.01
624.81	600.26
625.259	597.41
625.707	587.91
626.156	600.36
626.604	603.86
627.053	605.36
627.501	596.81
627.95	610.26
628.398	606.81
628.847	603.91
629.295	606.96
629.744	614.11
630.192	630.81
630.64	676.16
631.089	745.41
631.537	781.46
631.985	772.36
632.433	814.06
632.881	807.01
633.33	950.71
633.778	1042.81
634.226	752.56
634.674	687.36
635.122	679.96
635.57	694.21
636.018	801.16
636.466	674.61
636.914	594.31
637.362	582.66
637.81	592.96
638.258	610.16
638.705	612.26
639.153	635.61
639.601	637.46
640.049	648.86
640.497	664.76
640.944	685.11
641.392	654.01
641.84	624.66
642.287	605.01
642.735	591.01
643.182	582.16
643.63	585.91
644.078	586.91
644.525	595.66
644.973	615.06
645.42	625.96
645.867	638.01
646.315	657.16
646.762	675.51
647.21	695.11
647.657	731.86
648.104	777.21
648.551	798.26
648.999	874.56
649.446	972.26
649.893	1102.46
650.34	1299.71
650.787	1615.56
651.234	2112.11
651.682	2963.86
652.129	4304.41
652.576	6203.76
653.023	8294.01
653.47	9637.26
653.917	10387.21
654.363	10736.51
654.81	11348.06
655.257	11377.31
655.704	7754.11
656.151	4550.76
656.598	2932.91
657.044	2088.51
657.491	1630.41
657.938	1309.76
658.385	1094.56
658.831	968.71
659.278	860.41
659.724	780.21
660.171	733.91
660.618	670.96
661.064	628.31
661.511	611.56
661.957	585.26
662.404	571.36
662.85	560.46
663.296	559.01
663.743	540.61
664.189	536.61
664.635	532.06
665.082	521.91
665.528	509.21
665.974	497.71
666.42	498.36
666.867	503.96
667.313	501.66
667.759	520.76
668.205	514.66
668.651	526.06
669.097	506.71
669.543	550.01
669.989	527.61
670.435	463.86
670.881	461.86
671.327	484.41
671.773	513.11
672.219	548.31
672.665	583.56
673.11	599.06
673.556	607.26
674.002	614.16
674.448	612.36
674.893	530.41
675.339	471.21
675.785	433.41
676.23	411.61
676.676	393.01
677.122	390.71
677.567	374.01
678.013	365.41
678.458	359.76
678.904	365.51
679.349	351.31
679.794	353.41
680.24	357.26
680.685	343.66
681.131	351.01
681.576	352.81
682.021	353.11
682.466	362.36
682.912	365.46
683.357	384.41
683.802	417.51
684.247	450.01
684.692	475.96
685.137	501.06
685.583	494.36
686.028	522.01
686.473	499.81
686.918	438.61
687.363	400.11
687.807	382.01
688.252	359.46
688.697	352.26
689.142	343.41
689.587	342.11
690.032	345.81
690.477	366.61
690.921	377.71
691.366	396.96
691.811	408.76
692.255	449.16
692.7	544.61
693.145	793.81
693.589	1178.01
694.034	1390.01
694.478	1454.11
694.923	1320.91
695.367	1806.91
695.812	1153.91
696.256	501.26
696.701	375.56
697.145	349.06
697.59	328.91
698.034	325.01
698.478	324.26
698.922	331.41
699.367	336.16
699.811	356.86
700.255	387.46
700.699	420.66
701.143	455.56
701.588	474.76
702.032	494.81
702.476	508.16
702.92	548.81
703.364	718.71
703.808	1085.96
704.252	1323.71
704.696	1381.21
705.14	1287.01
705.584	1714.71
706.027	1008.86
706.471	514.51
706.915	385.11
707.359	344.61
707.803	326.96
708.246	314.46
708.69	314.86
709.134	311.96
709.577	314.26
710.021	312.36
710.465	319.36
710.908	308.66
711.352	325.16
711.795	359.31
712.239	375.66
712.682	399.01
713.126	388.01
713.569	424.61
714.012	355.11
714.456	314.86
714.899	295.26
715.342	275.51
715.786	264.06
716.229	255.51
716.672	248.56
717.115	258.86
717.558	257.51
718.002	263.66
718.445	272.71
718.888	285.91
719.331	297.01
719.774	302.56
720.217	291.91
720.66	272.96
721.103	264.11
721.546	247.71
721.989	242.31
722.432	242.66
722.874	240.01
723.317	245.86
723.76	270.11
724.203	336.46
724.645	433.71
725.088	501.76
725.531	479.56
725.974	518.66
726.416	475.66
726.859	301.96
727.301	246.71
727.744	235.81
728.187	236.61
728.629	239.76
729.071	258.66
729.514	263.91
729.956	271.11
730.399	277.21
730.841	279.91
731.283	270.61
731.726	262.61
732.168	262.96
732.61	283.16
733.053	299.96
733.495	336.66
733.937	371.11
734.379	440.56
734.821	565.31
735.263	903.56
735.705	1565.46
736.148	2239.16
736.59	2196.71
737.032	2341.76
737.474	1944.76
737.916	806.16
738.357	424.76
738.799	326.16
739.241	296.71
739.683	302.61
740.125	302.91
740.567	300.56
741.008	326.76
741.45	335.01
741.892	353.31
742.334	350.26
742.775	346.11
743.217	327.41
743.658	283.26
744.1	293.86
744.542	319.76
744.983	332.01
745.425	345.26
745.866	339.41
746.307	304.36
746.749	332.46
747.19	490.76
747.632	950.11
748.073	1696.56
748.514	2295.36
748.956	3028.76
749.397	3498.61
749.838	2437.86
750.279	2258.61
750.72	1231.31
751.162	532.81
751.603	307.61
752.044	253.31
752.485	219.91
752.926	208.86
753.367	201.11
753.808	191.61
754.249	193.01
754.69	187.51
755.131	187.46
755.572	185.16
756.013	188.81
756.453	185.06
756.894	192.91
757.335	192.06
757.776	191.11
758.216	199.31
758.657	210.31
759.098	237.46
759.538	281.11
759.979	416.01
760.42	834.71
760.86	2066.86
761.301	4195.41
761.741	4805.31
762.182	5392.91
762.622	3502.56
763.063	1367.01
763.503	602.91
763.943	451.81
764.384	481.46
764.824	443.71
765.264	443.16
765.705	324.31
766.145	238.31
766.585	209.71
767.025	221.51
767.465	286.56
767.906	347.16
768.346	360.81
768.786	370.76
769.226	395.01
769.666	689.26
770.106	1436.06
770.546	1951.81
770.986	2145.61
771.426	1641.46
771.866	727.71
772.306	687.46
772.745	572.16
773.185	538.56
773.625	542.91
774.065	571.46
774.505	701.96
774.944	1019.31
775.384	1319.16
775.824	1417.51
776.263	1237.46
776.703	810.16
777.142	595.31
777.582	526.51
778.021	509.96
778.461	505.36
778.9	506.36
779.34	487.61
779.779	481.11
780.219	480.36
780.658	477.71
781.097	481.26
781.537	474.21
781.976	476.66
782.415	472.66
782.855	478.11
783.294	479.06
783.733	468.96
784.172	478.86
784.611	468.21
785.05	476.61
785.489	475.61
785.928	477.16
786.367	485.21
786.806	491.86
787.245	498.86
787.684	502.36
788.123	498.91
788.562	495.21
789.001	497.81
789.44	484.46
789.879	490.91
790.317	489.26
790.756	494.96
791.195	510.96
791.634	566.51
792.072	733.51
792.511	1257.76
792.95	1903.61
793.388	2177.26
793.827	1569.71
794.265	934.81
794.704	644.96
795.142	538.91
795.581	506.71
796.019	494.96
796.458	494.81
796.896	500.01
797.334	522.26
797.773	572.56
798.211	759.01
798.649	1164.16
799.087	1670.06
799.526	2171.41
799.964	2195.51
800.402	1634.41
800.84	966.96
801.278	663.86
801.716	549.81
802.154	512.61
802.592	503.31
803.03	506.16
803.468	504.26
803.906	508.71
804.344	502.16
804.782	498.96
805.22	501.76
805.658	509.76
806.096	522.36
806.533	535.31
806.971	584.11
807.409	682.71
807.847	1008.56
808.284	1914.31
808.722	3001.76
809.16	4081.81
809.597	5462.16
810.035	6488.56
810.472	4295.46
810.91	2125.26
811.347	1170.16
811.785	749.66
812.222	603.21
812.66	555.61
813.097	520.41
813.535	508.16
813.972	493.21
814.409	483.71
814.846	481.36
815.284	465.81
815.721	473.76
816.158	477.41
816.595	510.51
817.032	538.21
817.47	530.41
817.907	490.41
818.344	475.51
818.781	474.06
819.218	495.36
819.655	543.46
820.092	589.41
820.529	574.86
820.966	534.91
821.403	495.96
821.839	481.06
822.276	488.91
822.713	506.31
823.15	494.31
823.587	511.91
824.023	626.31
824.46	1022.86
824.897	1456.21
825.333	1205.26
825.77	770.41
826.206	578.91
826.643	492.46
827.08	464.91
827.516	453.51
827.953	442.36
828.389	441.81
828.825	441.06
829.262	433.16
829.698	427.51
830.135	427.81
830.571	421.61
831.007	431.91
831.443	429.31
831.88	429.16
832.316	431.66
832.752	431.16
833.188	431.41
833.624	435.21
834.06	431.76
834.497	429.46
834.933	435.56
835.369	446.36
835.805	452.76
836.241	452.41
836.677	462.96
837.112	470.91
837.548	497.91
837.984	561.26
838.42	786.41
838.856	1489.31
839.292	2460.66
839.727	1936.91
840.163	1483.91
840.599	2017.01
841.034	2783.61
841.47	1627.41
841.906	1006.06
842.341	725.81
842.777	670.51
843.212	710.56
843.648	575.81
844.083	496.41
844.519	459.06
844.954	443.46
845.39	426.01
845.825	430.41
846.261	428.76
846.696	423.26
847.131	419.21
847.566	425.21
848.002	419.51
848.437	428.86
848.872	427.46
849.307	448.56
849.742	510.71
850.177	748.96
850.613	1134.51
851.048	910.36
851.483	625.31
851.918	506.96
852.353	450.21
852.788	429.96
853.223	431.66
853.657	411.91
854.092	414.81
854.527	412.46
854.962	412.56
855.397	421.01
855.832	410.66
856.266	406.11
856.701	403.26
857.136	406.96
857.57	411.91
858.005	421.71
858.44	414.81
858.874	412.81
859.309	416.91
859.743	415.01
860.178	414.21
860.612	420.36
861.047	433.86
861.481	450.11
861.915	419.31
862.35	416.61
862.784	404.56
863.218	402.46
863.653	410.36
864.087	413.66
864.521	431.26
864.955	473.41
865.39	547.16
865.824	496.81
866.258	516.46
866.692	583.91
867.126	523.21
867.56	453.36
867.994	428.41
868.428	417.81
868.862	425.91
869.296	422.56
869.73	436.06
870.164	420.96
870.598	419.36
871.031	409.16
871.465	403.21
871.899	398.51
872.333	392.76
872.766	399.41
873.2	401.91
873.634	396.71
874.067	400.41
874.501	401.01
874.935	394.61
875.368	397.71
875.802	398.31
876.235	392.81
876.669	393.11
877.102	386.61
877.535	394.61
877.969	387.86
878.402	390.56
878.836	392.51
879.269	386.06
879.702	390.61
880.135	390.46
880.569	395.21
881.002	384.56
881.435	392.66
881.868	391.86
882.301	387.41
882.734	389.71
883.167	391.61
883.601	390.46
884.034	383.46
884.467	380.06
884.899	387.66
885.332	381.71
885.765	390.16
886.198	383.51
886.631	386.81
887.064	385.96
887.497	385.31
887.929	388.11
888.362	389.36
888.795	384.81
889.228	390.76
889.66	391.86
890.093	382.51
890.526	384.26
890.958	388.36
891.391	389.21
891.823	382.01
892.256	383.71
892.688	389.41
893.121	383.51
893.553	390.46
893.985	380.21
894.418	382.51
894.85	390.36
895.282	386.31
895.715	380.96
896.147	376.96
896.579	380.71
897.011	387.66
897.444	386.61
897.876	372.36
898.308	382.71
898.74	384.61
899.172	388.21
899.604	381.41
900.036	382.96
900.468	377.76
900.9	384.31
901.332	390.26
901.764	388.31
902.196	387.16
902.628	384.61
903.06	394.11
903.491	391.91
903.923	392.06
904.355	394.11
904.787	394.46
905.218	388.21
905.65	390.46
906.082	385.51
906.513	381.16
906.945	385.76
907.376	387.41
907.808	387.31
908.239	389.01
908.671	390.71
909.102	396.46
909.534	403.46
909.965	441.21
910.397	546.41
910.828	873.66
911.259	678.26
911.691	536.96
912.122	471.56
912.553	423.86
912.984	392.61
913.415	387.41
913.847	389.61
914.278	387.36
914.709	385.36
915.14	380.06
915.571	384.06
916.002	384.56
916.433	384.96
916.864	383.06
917.295	384.56
917.726	391.41
918.157	389.11
918.587	388.41
919.018	389.26
919.449	384.91
919.88	390.61
920.311	401.31
920.741	474.41
921.172	550.86
921.603	459.21
922.033	422.01
922.464	407.16
922.895	394.91
923.325	387.16
923.756	382.36
924.186	388.21
924.617	411.51
925.047	429.91
925.478	424.06
925.908	407.21
926.338	394.31
926.769	387.81
927.199	389.36
927.629	381.86
928.06	382.96
928.49	383.11
928.92	382.61
929.35	380.16
929.78	377.16
930.21	379.31
930.641	372.86
931.071	376.01
931.501	377.96
931.931	374.91
932.361	376.46
932.791	377.66
933.221	378.21
933.651	381.51
934.08	390.46
934.51	379.71
934.94	378.61
935.37	376.36
935.8	377.11
936.229	374.21
936.659	372.51
937.089	378.31
937.519	385.31
937.948	393.06
938.378	385.01
938.807	375.56
939.237	370.91
939.666	374.16
940.096	370.26
940.525	366.71
940.955	373.76
941.384	370.01
941.814	373.11
942.243	371.71
942.672	363.96
943.102	367.36
943.531	366.71
943.96	370.41
944.39	368.36
944.819	369.36
945.248	368.91
945.677	372.31
946.106	369.01
946.535	371.06
946.964	370.71
947.393	369.06
947.822	370.96
948.251	374.76
948.68	374.61
949.109	376.21
949.538	364.56
949.967	372.31
950.396	366.81
950.825	370.41
951.254	369.56
951.682	367.31
952.111	368.86
952.54	368.06
952.969	365.96
953.397	368.41
953.826	365.21
954.254	373.36
954.683	373.06
955.112	372.41
955.54	371.26
955.969	368.06
956.397	371.16
956.826	367.51
957.254	367.86
957.682	371.46
958.111	371.41
958.539	369.41
958.967	370.46
959.396	373.26
959.824	369.51
960.252	375.11
960.68	366.81
961.109	372.81
961.537	374.71
961.965	369.51
962.393	365.71
962.821	368.96
963.249	369.81
963.677	374.16
964.105	397.31
964.533	420.21
964.961	393.96
965.389	381.86
965.817	372.31
966.245	369.76
966.672	372.06
967.1	368.71
967.528	363.41
967.956	367.56
968.383	373.96
968.811	365.86
969.239	364.06
969.666	369.21
970.094	373.76
970.522	362.51
970.949	368.71
971.377	361.96
971.804	365.56
972.232	368.36
972.659	364.81
973.087	370.71
973.514	363.86
973.941	368.86
974.369	364.56
974.796	368.01
975.223	366.21
975.651	371.56
976.078	366.46
976.505	373.06
976.932	382.96
977.359	381.26
977.786	378.31
978.214	376.26
978.641	367.01
979.068	367.51
979.495	366.96
979.922	370.16
980.349	367.81
980.776	367.41
981.202	366.06
981.629	371.61
982.056	368.56
982.483	359.86
982.91	370.11
983.337	360.66
983.763	368.66
984.19	369.16
984.617	367.01
985.043	369.11
985.47	370.56
985.897	367.11
986.323	372.16
986.75	366.46
987.176	366.81
987.603	368.21
988.029	370.16
988.456	371.41
988.882	364.76
989.308	363.11
989.735	364.81
990.161	370.01
990.587	364.51
991.014	368.76
991.44	369.81
991.866	368.56
992.292	371.41
992.719	368.26
993.145	373.11
993.571	374.61
993.997	373.11
994.423	372.01
994.849	363.56
995.275	365.01
995.701	365.41
996.127	365.31
996.553	368.91
996.979	364.86
997.405	369.66
997.83	364.66
998.256	369.01
998.682	369.01
999.108	367.61
999.534	360.36
999.959	367.46
1000.385	368.21
1000.811	360.16
1001.236	365.16
1001.662	363.61
1002.087	371.86
1002.513	370.26
1002.938	364.21
1003.364	364.06
1003.789	371.66
1004.215	364.16
1004.64	363.31
1005.066	366.41
1005.491	368.41
1005.916	366.51
1006.342	370.11
1006.767	366.56
1007.192	370.76
1007.617	367.56
1008.042	367.46
1008.468	364.76
1008.893	368.41
1009.318	367.71
1009.743	369.11
1010.168	374.61
1010.593	374.61
1011.018	371.06
1011.443	370.86
1011.868	372.96
1012.293	368.16
1012.718	367.06
1013.143	363.56
1013.567	371.51
1013.992	365.81
1014.417	370.26
1014.842	366.96
1015.267	365.36
1015.691	371.26
1016.116	365.96
1016.541	370.51
1016.965	368.81
1017.39	367.66
1017.814	364.11
1018.239	363.26
1018.663	360.36
1019.088	360.46
1019.512	371.06
1019.937	366.76
1020.361	369.41
1020.785	365.81
1021.21	364.41
1021.634	366.71
1022.058	367.46
1022.483	359.96
1022.907	364.86
1023.331	365.96
1023.755	369.41
1024.179	367.86
1024.604	365.26
1025.028	367.61
1025.452	370.11
1025.876	370.26
1026.3	366.41
1026.724	364.46
1027.148	369.26
1027.572	366.66
1027.996	368.81
1028.42	368.06
1028.843	366.91
1029.267	363.96
1029.691	370.41
1030.115	366.36
1030.539	365.41
1030.962	369.06
1031.386	365.36
1031.81	366.06
1032.233	363.71
1032.657	360.96
1033.08	369.01
1033.504	363.41
1033.927	367.16
1034.351	363.06
1034.774	368.71
1035.198	361.11
1035.621	366.71
1036.045	361.01
1036.468	371.01
1036.891	364.96
1037.315	368.76
1037.738	366.86
1038.161	367.26
1038.584	365.76
1039.008	366.76
1039.431	364.26
1039.854	362.71
1040.277	373.86
1040.7	364.11
1041.123	368.06
1041.546	363.71
1041.969	369.66
1042.392	367.96
1042.815	363.31
1043.238	364.36
1043.661	368.16
1044.084	367.66
1044.507	360.16
1044.93	365.61
1045.352	366.36
1045.775	363.36
1046.198	368.91
1046.621	372.41
1047.043	367.31
1047.466	368.96
1047.889	369.06
1048.311	372.26
1048.734	366.56
1049.156	366.06
1049.579	364.26
1050.001	361.11
1050.424	363.56
1050.846	363.61
1051.269	360.11
1051.691	365.46
1052.113	366.16
1052.536	365.41
1052.958	358.06
1053.38	365.51
1053.802	369.41
1054.225	366.96
1054.647	367.96
1055.069	367.61
1055.491	366.56
1055.913	368.56
1056.335	362.41
1056.757	362.11
1057.179	366.41
1057.601	366.86
1058.023	366.21
1058.445	360.76
1058.867	368.11
1059.289	368.11
1059.711	365.46
1060.133	365.81
1060.555	365.16
1060.976	366.26
1061.398	361.91
1061.82	367.26
1062.241	363.91
1062.663	366.76
1063.085	360.66
1063.506	362.26
1063.928	364.61
1064.35	369.36
1064.771	366.41
1065.193	363.71
1065.614	367.91
1066.035	368.21
1066.457	365.71
1066.878	363.96
1067.3	366.66
1067.721	369.41
1068.142	371.81
1068.564	368.76
1068.985	363.36
1069.406	358.36
1069.827	363.16
1070.248	362.86
1070.67	363.96
1071.091	359.56
1071.512	364.26
1071.933	363.66
1072.354	358.56
1072.775	364.81
1073.196	367.06
1073.617	368.46
1074.038	368.31
1074.459	366.21
1074.88	367.01
1075.3	368.01
1075.721	370.01
1076.142	365.31
1076.563	366.01
1076.983	367.91
1077.404	362.51
1077.825	365.71
1078.246	364.96
1078.666	363.26
1079.087	362.21
1079.507	363.96
1079.928	363.01
1080.348	366.81
1080.769	367.86
1081.189	366.06
1081.61	359.01
1082.03	369.71
1082.451	368.26
1082.871	361.96
1083.291	362.16
1083.711	363.11
1084.132	365.06
1084.552	360.11
1084.972	362.46
1085.392	363.16
1085.813	366.01
1086.233	365.86
1086.653	369.66
1087.073	365.01
1087.493	365.61
1087.913	365.56
1088.333	367.51
1088.753	367.16
1089.173	368.46
1089.593	369.31
1090.013	366.11
1090.433	360.21
1090.852	368.16
1091.272	361.51
1091.692	367.86
1092.112	365.16
1092.531	362.56
1092.951	368.21
1093.371	360.91
1093.79	364.16
1094.21	359.41
1094.63	366.91
1095.049	365.01
1095.469	357.11
1095.888	367.01
1096.308	367.61
1096.727	362.76
1097.146	358.21
1097.566	370.16
1097.985	368.16
1098.405	367.16
1098.824	369.61
1099.243	362.16
1099.662	365.21
1100.082	364.96
1100.501	368.91
1100.92	372.11
1101.339	369.96
1101.758	368.46
