Data from MSPlasma+Separation6_Subt14_10-14-51-528.txt Node
Date: Fri Jul 21 10:14:51 EDT 2017
User: Ender
Spectrometer: HR+D1039
Trigger mode: 0
Integration Time (sec): 6.430000E-3
Scans to average: 20
Electric dark correction enabled: true
Nonlinearity correction enabled: false
Boxcar width: 0
XAxis mode: Wavelengths
Number of Pixels in Spectrum: 2048
>>>>>Begin Spectral Data<<<<<
187.836	1.19
188.309	1.19
188.782	1.19
189.255	1.14
189.728	2.49
190.201	-0.31
190.674	-2.61
191.147	-4.31
191.619	-0.16
192.092	-0.21
192.565	-0.56
193.038	4.04
193.511	1.99
193.984	-1.86
194.456	-2.06
194.929	-1.06
195.402	-0.76
195.874	2.99
196.347	1.49
196.82	2.74
197.292	-1.21
197.765	-1.06
198.237	-1.56
198.71	-3.26
199.182	1.34
199.655	1.74
200.127	4.39
200.6	0.59
201.072	5.59
201.544	-2.01
202.017	0.59
202.489	4.54
202.961	4.39
203.433	4.34
203.906	0.94
204.378	3.99
204.85	0.29
205.322	6.04
205.794	4.94
206.266	2.64
206.739	6.74
207.211	3.84
207.683	3.14
208.155	3.34
208.627	5.09
209.099	4.14
209.57	3.39
210.042	-0.66
210.514	8.44
210.986	13.34
211.458	21.94
211.93	13.89
212.402	3.44
212.873	1.14
213.345	-6.76
213.817	3.54
214.288	1.94
214.76	6.79
215.232	0.04
215.703	3.64
216.175	5.54
216.646	7.74
217.118	3.19
217.589	0.54
218.061	6.34
218.532	4.34
219.004	8.44
219.475	13.69
219.946	26.59
220.418	38.09
220.889	25.14
221.36	15.64
221.832	10.54
222.303	6.79
222.774	8.39
223.245	6.59
223.717	3.44
224.188	5.44
224.659	6.84
225.13	1.24
225.601	7.14
226.072	9.94
226.543	13.34
227.014	12.09
227.485	6.54
227.956	9.64
228.427	16.89
228.898	12.54
229.369	13.29
229.839	14.59
230.31	15.79
230.781	11.99
231.252	18.24
231.722	26.79
232.193	35.84
232.664	40.29
233.135	59.74
233.605	61.34
234.076	53.69
234.546	43.34
235.017	48.59
235.487	46.09
235.958	45.39
236.428	67.09
236.899	114.24
237.369	122.44
237.84	89.49
238.31	111.09
238.78	106.69
239.251	111.49
239.721	118.04
240.191	86.54
240.662	53.04
241.132	42.19
241.602	53.19
242.072	73.09
242.542	83.99
243.013	60.69
243.483	55.89
243.953	41.49
244.423	42.39
244.893	48.49
245.363	60.44
245.833	55.59
246.303	64.59
246.773	83.54
247.243	79.39
247.712	90.19
248.182	111.84
248.652	116.09
249.122	169.44
249.592	307.19
250.061	467.44
250.531	744.99
251.001	577.79
251.471	476.14
251.94	361.04
252.41	201.44
252.879	138.49
253.349	108.69
253.818	91.34
254.288	76.14
254.757	76.84
255.227	104.19
255.696	83.44
256.166	77.94
256.635	83.14
257.105	101.09
257.574	131.29
258.043	136.39
258.513	239.09
258.982	295.79
259.451	205.89
259.92	208.39
260.389	190.64
260.859	142.04
261.328	159.34
261.797	243.59
262.266	208.24
262.735	103.74
263.204	60.44
263.673	56.84
264.142	49.69
264.611	56.94
265.08	56.09
265.549	59.39
266.018	61.44
266.487	52.84
266.955	53.59
267.424	57.69
267.893	64.54
268.362	65.09
268.83	61.09
269.299	62.59
269.768	69.59
270.236	85.19
270.705	93.14
271.174	93.29
271.642	96.89
272.111	117.94
272.579	182.79
273.048	286.69
273.516	365.59
273.985	367.69
274.453	280.59
274.922	166.79
275.39	109.39
275.858	106.39
276.327	84.89
276.795	90.44
277.263	99.99
277.731	131.74
278.2	263.94
278.668	351.19
279.136	265.14
279.604	168.14
280.072	104.54
280.54	88.04
281.008	89.74
281.477	88.79
281.945	96.89
282.413	94.79
282.881	96.04
283.348	97.69
283.816	103.19
284.284	106.84
284.752	105.29
285.22	108.14
285.688	113.44
286.156	185.24
286.623	491.64
287.091	971.89
287.559	508.99
288.026	198.29
288.494	125.34
288.962	106.14
289.429	105.94
289.897	97.24
290.364	93.39
290.832	92.39
291.3	95.94
291.767	102.39
292.234	103.14
292.702	100.94
293.169	116.49
293.637	114.44
294.104	116.19
294.571	108.19
295.039	108.84
295.506	109.69
295.973	113.84
296.44	113.69
296.908	124.34
297.375	139.04
297.842	129.79
298.309	113.84
298.776	116.54
299.243	118.79
299.71	113.59
300.177	115.89
300.644	132.59
301.111	142.64
301.578	132.39
302.045	123.04
302.512	118.49
302.979	125.69
303.446	133.49
303.913	137.84
304.379	142.49
304.846	157.79
305.313	171.94
305.78	198.14
306.246	242.54
306.713	258.14
307.18	224.09
307.646	255.29
308.113	219.09
308.579	170.14
309.046	171.39
309.512	175.69
309.979	159.74
310.445	151.14
310.912	158.74
311.378	158.44
311.845	157.54
312.311	151.59
312.777	151.89
313.244	159.59
313.71	161.34
314.176	184.79
314.642	206.74
315.109	243.04
315.575	228.54
316.041	201.89
316.507	195.59
316.973	222.24
317.439	213.14
317.905	226.24
318.371	227.69
318.837	211.44
319.303	225.04
319.769	207.64
320.235	228.74
320.701	265.19
321.167	280.44
321.633	337.69
322.099	462.94
322.564	614.84
323.03	485.89
323.496	348.39
323.962	328.39
324.427	307.64
324.893	267.14
325.359	262.19
325.824	227.39
326.29	239.84
326.755	240.34
327.221	236.49
327.686	255.69
328.152	229.79
328.617	220.49
329.083	226.74
329.548	235.49
330.014	247.94
330.479	265.19
330.944	303.04
331.41	350.74
331.875	336.34
332.34	340.49
332.805	391.04
333.271	502.34
333.736	663.69
334.201	598.04
334.666	449.44
335.131	508.74
335.596	402.69
336.061	426.24
336.526	428.34
336.991	373.54
337.456	407.64
337.921	327.69
338.386	263.74
338.851	249.54
339.316	231.39
339.781	225.54
340.246	229.19
340.711	230.69
341.175	235.39
341.64	244.09
342.105	241.79
342.569	257.84
343.034	276.19
343.499	284.94
343.963	267.64
344.428	265.34
344.893	272.59
345.357	280.59
345.822	281.44
346.286	284.84
346.751	293.04
347.215	288.74
347.679	296.39
348.144	320.39
348.608	313.24
349.073	331.99
349.537	359.79
350.001	351.74
350.465	333.94
350.93	324.29
351.394	323.04
351.858	318.29
352.322	334.69
352.786	333.19
353.25	330.14
353.715	334.64
354.179	355.54
354.643	371.79
355.107	381.04
355.571	400.54
356.035	403.69
356.498	391.79
356.962	420.44
357.426	412.19
357.89	373.54
358.354	352.24
358.818	350.24
359.281	359.64
359.745	383.44
360.209	369.69
360.673	372.84
361.136	381.84
361.6	380.09
362.064	395.09
362.527	409.54
362.991	407.74
363.454	402.79
363.918	411.69
364.381	398.54
364.845	395.74
365.308	393.34
365.772	391.64
366.235	393.14
366.698	416.89
367.162	496.34
367.625	549.84
368.088	453.24
368.552	415.79
369.015	427.19
369.478	449.49
369.941	453.29
370.404	461.19
370.867	487.59
371.331	501.29
371.794	505.04
372.257	561.79
372.72	590.69
373.183	565.14
373.646	571.09
374.109	572.29
374.572	658.39
375.035	768.44
375.497	593.19
375.96	480.84
376.423	459.79
376.886	462.09
377.349	467.14
377.811	471.14
378.274	481.39
378.737	490.49
379.199	497.49
379.662	519.84
380.125	543.54
380.587	599.44
381.05	632.64
381.512	636.59
381.975	617.24
382.437	609.84
382.9	612.04
383.362	613.09
383.825	653.74
384.287	808.34
384.75	907.69
385.212	794.59
385.674	665.24
386.136	603.59
386.599	601.69
387.061	625.44
387.523	649.79
387.985	657.19
388.447	675.64
388.91	759.09
389.372	906.64
389.834	855.64
390.296	721.99
390.758	730.39
391.22	762.04
391.682	932.94
392.144	1447.74
392.606	1346.49
393.068	793.59
393.529	719.79
393.991	697.64
394.453	686.24
394.915	720.24
395.377	884.09
395.838	1086.44
396.3	770.84
396.762	599.99
397.224	569.09
397.685	560.44
398.147	563.59
398.608	573.54
399.07	577.14
399.531	569.09
399.993	585.49
400.454	589.29
400.916	585.94
401.377	600.84
401.839	607.14
402.3	604.59
402.762	635.54
403.223	698.84
403.684	706.74
404.145	650.99
404.607	637.04
405.068	639.74
405.529	656.44
405.99	668.19
406.451	670.99
406.913	656.49
407.374	664.74
407.835	667.29
408.296	692.29
408.757	703.49
409.218	716.59
409.679	731.04
410.14	735.64
410.601	764.24
411.062	794.09
411.522	915.24
411.983	1007.59
412.444	864.24
412.905	760.74
413.366	767.84
413.826	783.74
414.287	874.54
414.748	1053.19
415.208	1077.94
415.669	893.19
416.13	815.39
416.59	798.94
417.051	822.74
417.511	866.14
417.972	932.04
418.432	1002.79
418.893	1114.39
419.353	1060.89
419.814	814.39
420.274	737.09
420.734	727.89
421.195	777.89
421.655	807.54
422.115	779.19
422.576	759.69
423.036	764.74
423.496	784.59
423.956	817.29
424.416	883.14
424.876	993.59
425.336	989.69
425.797	982.89
426.257	991.79
426.717	926.49
427.177	866.34
427.637	891.49
428.097	939.24
428.556	977.54
429.016	1061.49
429.476	1045.44
429.936	1012.39
430.396	986.89
430.856	1001.29
431.315	1031.04
431.775	1105.64
432.235	1158.84
432.694	1195.49
433.154	1110.79
433.614	1086.94
434.073	1044.04
434.533	947.24
434.993	924.79
435.452	928.99
435.912	914.14
436.371	910.99
436.83	900.54
437.29	911.94
437.749	872.74
438.209	860.14
438.668	872.49
439.127	876.84
439.587	861.89
440.046	830.04
440.505	839.54
440.964	839.89
441.424	865.69
441.883	883.74
442.342	842.44
442.801	810.74
443.26	839.34
443.719	821.19
444.178	819.54
444.637	824.39
445.096	826.29
445.555	841.34
446.014	842.89
446.473	817.09
446.932	817.89
447.391	836.44
447.849	851.94
448.308	840.99
448.767	850.54
449.226	877.99
449.685	887.54
450.143	925.89
450.602	924.89
451.061	882.69
451.519	888.94
451.978	910.29
452.436	936.44
452.895	894.44
453.353	878.09
453.812	887.94
454.27	881.04
454.729	847.24
455.187	857.84
455.646	858.34
456.104	866.49
456.562	874.04
457.021	862.24
457.479	825.64
457.937	858.44
458.395	871.44
458.854	855.89
459.312	844.89
459.77	862.04
460.228	872.39
460.686	889.14
461.144	886.54
461.602	875.94
462.06	877.34
462.518	898.04
462.976	896.34
463.434	909.04
463.892	916.74
464.35	933.09
464.808	949.19
465.266	952.19
465.724	966.19
466.181	966.14
466.639	963.24
467.097	997.39
467.555	1043.04
468.012	1033.14
468.47	1043.94
468.928	1085.14
469.385	1096.54
469.843	1110.99
470.3	1111.94
470.758	1145.59
471.215	1154.29
471.673	1180.69
472.13	1217.89
472.588	1235.39
473.045	1243.39
473.503	1265.19
473.96	1315.54
474.417	1335.09
474.875	1392.74
475.332	1445.79
475.789	1461.09
476.246	1511.19
476.704	1565.79
477.161	1614.34
477.618	1650.44
478.075	1744.64
478.532	1882.74
478.989	2024.04
479.446	2218.44
479.903	2356.79
480.36	2576.14
480.817	2737.34
481.274	2938.89
481.731	3227.09
482.188	3459.09
482.645	3734.59
483.102	3944.04
483.558	4234.54
484.015	4440.09
484.472	4443.04
484.929	4311.84
485.385	4119.89
485.842	4035.24
486.299	3832.89
486.755	3486.94
487.212	3119.59
487.668	2816.94
488.125	2603.99
488.582	2409.49
489.038	2311.04
489.494	2238.99
489.951	2166.89
490.407	2123.29
490.864	2083.94
491.32	2034.44
491.776	2006.14
492.233	2011.29
492.689	1985.64
493.145	1955.29
493.602	1937.84
494.058	1975.84
494.514	2012.39
494.97	2003.89
495.426	2027.69
495.882	2033.94
496.338	2039.64
496.794	2112.74
497.251	2130.39
497.707	2131.34
498.163	2133.44
498.618	2141.14
499.074	2153.49
499.53	2188.29
499.986	2231.29
500.442	2249.69
500.898	2251.89
501.354	2278.64
501.809	2310.69
502.265	2344.89
502.721	2446.89
503.177	2508.34
503.632	2389.19
504.088	2420.74
504.543	2624.79
504.999	2468.89
505.455	2192.89
505.91	2093.29
506.366	2071.09
506.821	2050.99
507.277	2042.39
507.732	2049.79
508.187	2057.89
508.643	2065.89
509.098	2073.29
509.553	2087.29
510.009	2110.04
510.464	2153.49
510.919	2169.49
511.375	2207.29
511.83	2221.64
512.285	2279.29
512.74	2312.54
513.195	2347.54
513.65	2392.94
514.105	2437.04
514.56	2432.49
515.015	2493.79
515.47	2506.04
515.925	2506.59
516.38	2490.54
516.835	2474.44
517.29	2483.04
517.745	2493.99
518.2	2448.99
518.655	2373.99
519.109	2329.19
519.564	2319.14
520.019	2320.79
520.474	2282.94
520.928	2262.44
521.383	2260.44
521.838	2253.39
522.292	2215.14
522.747	2186.54
523.201	2192.44
523.656	2162.34
524.11	2160.49
524.565	2163.04
525.019	2158.59
525.474	2173.89
525.928	2158.74
526.382	2137.39
526.837	2130.54
527.291	2128.54
527.745	2102.64
528.2	2114.54
528.654	2095.04
529.108	2107.54
529.562	2103.59
530.016	2105.54
530.47	2121.29
530.925	2110.44
531.379	2122.64
531.833	2148.84
532.287	2124.54
532.741	2114.14
533.195	2115.04
533.649	2117.49
534.103	2113.99
534.556	2093.39
535.01	2121.14
535.464	2122.54
535.918	2122.99
536.372	2136.34
536.826	2128.99
537.279	2111.14
537.733	2116.69
538.187	2124.04
538.64	2128.49
539.094	2145.59
539.548	2175.99
540.001	2150.04
540.455	2175.74
540.908	2179.94
541.362	2205.69
541.815	2217.89
542.269	2264.69
542.722	2261.54
543.175	2273.84
543.629	2297.44
544.082	2318.94
544.536	2345.74
544.989	2340.59
545.442	2356.24
545.895	2342.04
546.349	2354.34
546.802	2358.44
547.255	2360.94
547.708	2377.04
548.161	2395.94
548.614	2407.99
549.067	2412.99
549.52	2385.49
549.973	2361.19
550.426	2349.34
550.879	2331.59
551.332	2325.29
551.785	2344.49
552.238	2364.94
552.691	2373.49
553.144	2412.99
553.596	2431.59
554.049	2478.74
554.502	2525.94
554.955	2577.49
555.407	2602.84
555.86	2585.74
556.313	2554.69
556.765	2523.04
557.218	2495.74
557.67	2492.49
558.123	2461.14
558.576	2442.04
559.028	2442.64
559.48	2465.44
559.933	2450.69
560.385	2380.64
560.838	2295.19
561.29	2237.49
561.742	2218.64
562.195	2179.04
562.647	2155.49
563.099	2160.09
563.551	2148.99
564.004	2169.14
564.456	2156.99
564.908	2112.29
565.36	2062.29
565.812	2033.39
566.264	2011.04
566.716	1985.69
567.168	1951.24
567.62	1973.54
568.072	1947.89
568.524	1923.09
568.976	1913.74
569.428	1893.59
569.88	1903.19
570.332	1897.99
570.784	1897.94
571.235	1879.54
571.687	1908.14
572.139	1901.04
572.59	1915.54
573.042	1929.34
573.494	1930.24
573.945	1905.84
574.397	1854.54
574.849	1861.44
575.3	1863.79
575.752	1842.84
576.203	1824.99
576.655	1833.69
577.106	1800.39
577.557	1799.69
578.009	1789.84
578.46	1802.14
578.912	1781.59
579.363	1798.14
579.814	1780.29
580.265	1783.49
580.717	1786.44
581.168	1778.89
581.619	1796.44
582.07	1806.74
582.521	1809.99
582.972	1805.49
583.423	1821.29
583.875	1863.99
584.326	1956.74
584.777	2163.34
585.227	2358.24
585.678	2523.84
586.129	2579.04
586.58	2631.39
587.031	2654.29
587.482	2836.64
587.933	3327.94
588.384	3049.94
588.834	2502.74
589.285	2093.79
589.736	2051.64
590.186	2043.04
590.637	2029.34
591.088	1977.74
591.538	1952.09
591.989	1935.49
592.439	1924.54
592.89	1915.44
593.34	1912.19
593.791	1926.94
594.241	1930.59
594.692	1960.49
595.142	1938.34
595.593	1896.19
596.043	1893.94
596.493	1931.59
596.943	1983.79
597.394	1948.49
597.844	1929.79
598.294	1958.74
598.744	2017.59
599.195	2125.14
599.645	2240.49
600.095	2353.64
600.545	2453.69
600.995	2568.59
601.445	2653.44
601.895	2802.09
602.345	2879.14
602.795	2838.64
603.245	2711.69
603.695	2547.29
604.145	2406.24
604.594	2289.09
605.044	2181.54
605.494	2045.79
605.944	1934.39
606.393	1906.69
606.843	1871.54
607.293	1866.14
607.743	1866.64
608.192	1882.54
608.642	1887.69
609.091	1889.89
609.541	1885.54
609.99	1876.19
610.44	1843.09
610.889	1817.04
611.339	1806.29
611.788	1785.44
612.238	1808.84
612.687	1821.04
613.136	1849.64
613.586	1882.24
614.035	1871.74
614.484	1900.04
614.933	1903.19
615.383	1861.44
615.832	1807.74
616.281	1766.84
616.73	1722.94
617.179	1675.39
617.628	1639.64
618.077	1612.34
618.526	1595.69
618.975	1578.09
619.424	1544.54
619.873	1561.79
620.322	1548.49
620.771	1544.39
621.22	1521.39
621.669	1487.59
622.118	1475.19
622.567	1470.94
623.015	1432.29
623.464	1428.04
623.913	1410.14
624.361	1422.24
624.81	1414.79
625.259	1405.39
625.707	1390.64
626.156	1398.39
626.604	1416.94
627.053	1418.59
627.501	1422.49
627.95	1432.69
628.398	1440.64
628.847	1425.54
629.295	1425.54
629.744	1451.44
630.192	1485.34
630.64	1583.74
631.089	1735.14
631.537	1822.39
631.985	1819.24
632.433	1885.94
632.881	1900.14
633.33	2255.89
633.778	2462.64
634.226	1739.64
634.674	1611.59
635.122	1615.59
635.57	1632.59
636.018	1892.69
636.466	1556.14
636.914	1381.74
637.362	1381.69
637.81	1396.04
638.258	1445.84
638.705	1452.89
639.153	1496.64
639.601	1504.19
640.049	1522.99
640.497	1571.64
640.944	1613.29
641.392	1531.54
641.84	1450.64
642.287	1397.39
642.735	1381.04
643.182	1355.09
643.63	1365.39
644.078	1370.79
644.525	1387.99
644.973	1423.29
645.42	1443.09
645.867	1465.59
646.315	1493.34
646.762	1541.54
647.21	1588.34
647.657	1664.44
648.104	1733.44
648.551	1791.64
648.999	1930.19
649.446	2126.39
649.893	2383.69
650.34	2805.04
650.787	3479.24
651.234	4520.59
651.682	6262.79
652.129	8938.24
652.576	12772.69
653.023	15535.14
653.47	15538.34
653.917	15538.39
654.363	15538.29
654.81	15535.29
655.257	15535.94
655.704	15530.84
656.151	9797.94
656.598	6384.24
657.044	4531.39
657.491	3523.94
657.938	2856.84
658.385	2417.59
658.831	2133.94
659.278	1917.84
659.724	1752.34
660.171	1626.54
660.618	1499.79
661.064	1430.39
661.511	1375.94
661.957	1329.84
662.404	1299.19
662.85	1286.04
663.296	1268.79
663.743	1233.84
664.189	1232.19
664.635	1221.79
665.082	1202.24
665.528	1186.54
665.974	1161.39
666.42	1157.79
666.867	1167.84
667.313	1171.64
667.759	1218.39
668.205	1220.99
668.651	1229.14
669.097	1192.79
669.543	1300.04
669.989	1230.69
670.435	1085.09
670.881	1076.09
671.327	1116.74
671.773	1191.74
672.219	1283.64
672.665	1366.04
673.11	1414.24
673.556	1426.54
674.002	1455.39
674.448	1475.94
674.893	1252.79
675.339	1094.04
675.785	1009.79
676.23	961.99
676.676	924.94
677.122	908.54
677.567	881.99
678.013	854.39
678.458	853.29
678.904	845.69
679.349	829.34
679.794	833.84
680.24	831.44
680.685	825.94
681.131	830.04
681.576	829.29
682.021	837.24
682.466	833.84
682.912	848.29
683.357	891.69
683.802	959.29
684.247	1055.24
684.692	1115.34
685.137	1166.54
685.583	1182.49
686.028	1247.94
686.473	1185.59
686.918	1022.29
687.363	934.09
687.807	895.34
688.252	849.99
688.697	823.54
689.142	783.49
689.587	796.04
690.032	813.54
690.477	848.89
690.921	886.09
691.366	932.64
691.811	968.34
692.255	1050.19
692.7	1285.74
693.145	1852.24
693.589	2814.94
694.034	3337.94
694.478	3539.19
694.923	3240.39
695.367	4606.34
695.812	2806.54
696.256	1184.99
696.701	871.69
697.145	808.39
697.59	789.04
698.034	771.39
698.478	774.24
698.922	782.49
699.367	795.64
699.811	832.29
700.255	907.69
700.699	982.34
701.143	1070.64
701.588	1120.39
702.032	1172.54
702.476	1204.64
702.92	1279.74
703.364	1673.19
703.808	2573.24
704.252	3210.64
704.696	3377.44
705.14	3182.19
705.584	4378.89
706.027	2418.59
706.471	1219.49
706.915	913.19
707.359	809.79
707.803	757.64
708.246	733.94
708.69	729.99
709.134	722.84
709.577	723.09
710.021	731.74
710.465	730.94
710.908	720.59
711.352	754.49
711.795	836.29
712.239	900.19
712.682	920.64
713.126	907.14
713.569	1018.14
714.012	845.79
714.456	741.99
714.899	697.64
715.342	656.19
715.786	627.69
716.229	606.24
716.672	597.64
717.115	592.14
717.558	603.64
718.002	627.49
718.445	652.14
718.888	676.79
719.331	690.69
719.774	706.34
720.217	689.49
720.66	654.49
721.103	615.24
721.546	586.39
721.989	566.39
722.432	568.64
722.874	564.19
723.317	574.09
723.76	623.79
724.203	760.89
724.645	1019.19
725.088	1191.44
725.531	1165.19
725.974	1281.99
726.416	1147.69
726.859	712.64
727.301	586.94
727.744	564.69
728.187	557.54
728.629	567.49
729.071	598.69
729.514	619.44
729.956	643.09
730.399	658.89
730.841	658.39
731.283	638.59
731.726	625.09
732.168	631.54
732.61	662.44
733.053	716.99
733.495	792.89
733.937	882.24
734.379	1046.34
734.821	1325.84
735.263	2121.34
735.705	3804.29
736.148	5562.44
736.59	5538.89
737.032	6011.99
737.474	4953.69
737.916	1896.84
738.357	1004.74
738.799	776.74
739.241	713.84
739.683	720.89
740.125	726.84
740.567	730.54
741.008	767.29
741.45	799.04
741.892	826.84
742.334	830.84
742.775	823.19
743.217	787.09
743.658	672.64
744.1	685.69
744.542	765.74
744.983	794.14
745.425	831.59
745.866	820.64
746.307	729.04
746.749	785.24
747.19	1151.69
747.632	2233.04
748.073	4153.09
748.514	5710.09
748.956	7542.24
749.397	8847.49
749.838	6099.99
750.279	5831.24
750.72	2994.59
751.162	1260.89
751.603	727.24
752.044	586.74
752.485	519.64
752.926	486.14
753.367	471.49
753.808	451.99
754.249	452.39
754.69	445.19
755.131	437.64
755.572	440.79
756.013	439.84
756.453	443.99
756.894	447.74
757.335	450.74
757.776	451.19
758.216	472.09
758.657	499.69
759.098	554.44
759.538	668.24
759.979	962.44
760.42	1960.49
760.86	5031.14
761.301	10348.89
761.741	12085.19
762.182	13834.99
762.622	8970.54
763.063	3242.09
763.503	1426.74
763.943	1085.84
764.384	1170.29
764.824	1101.79
765.264	1091.04
765.705	775.49
766.145	554.94
766.585	499.14
767.025	522.89
767.465	683.99
767.906	827.19
768.346	862.04
768.786	896.04
769.226	926.54
769.666	1598.44
770.106	3487.64
770.546	4900.89
770.986	5534.79
771.426	4170.19
771.866	1740.04
772.306	795.49
772.745	506.84
773.185	436.29
773.625	432.64
774.065	499.94
774.505	811.14
774.944	1596.84
775.384	2392.54
775.824	2717.19
776.263	2213.44
776.703	1100.14
777.142	568.44
777.582	392.79
778.021	357.84
778.461	332.34
778.9	318.19
779.34	303.34
779.779	290.79
780.219	284.89
780.658	275.59
781.097	272.89
781.537	267.84
781.976	261.09
782.415	262.49
782.855	266.24
783.294	267.09
783.733	251.99
784.172	267.04
784.611	257.99
785.05	268.04
785.489	271.44
785.928	280.84
786.367	291.99
786.806	300.64
787.245	326.89
787.684	335.89
788.123	334.64
788.562	317.74
789.001	304.44
789.44	288.49
789.879	293.19
790.317	300.34
790.756	317.49
791.195	363.89
791.634	499.44
792.072	899.29
792.511	2219.84
792.95	4074.89
793.388	4889.04
793.827	3173.49
794.265	1447.89
794.704	692.44
795.142	424.39
795.581	353.49
796.019	317.14
796.458	319.49
796.896	324.94
797.334	375.69
797.773	504.44
798.211	968.74
798.649	2020.14
799.087	3386.84
799.526	4769.24
799.964	4891.19
800.402	3360.14
800.84	1517.94
801.278	745.84
801.716	453.49
802.154	371.44
802.592	351.39
803.03	343.59
803.468	355.69
803.906	363.74
804.344	349.84
804.782	339.59
805.22	342.34
805.658	350.39
806.096	375.29
806.533	422.09
806.971	537.94
807.409	784.34
807.847	1577.24
808.284	4036.34
808.722	7055.69
809.16	9885.19
809.597	13350.29
810.035	15538.79
810.472	10718.29
810.91	4543.94
811.347	2028.09
811.785	955.59
812.222	602.19
812.66	457.34
813.097	393.14
813.535	346.69
813.972	304.79
814.409	286.29
814.846	274.14
815.284	257.29
815.721	259.79
816.158	282.34
816.595	368.34
817.032	454.54
817.47	416.24
817.907	329.99
818.344	288.69
818.781	275.34
819.218	320.89
819.655	452.84
820.092	586.64
820.529	545.54
820.966	448.44
821.403	329.74
821.839	287.69
822.276	303.89
822.713	352.64
823.15	338.54
823.587	364.64
824.023	659.84
824.46	1653.79
824.897	2881.04
825.333	2216.74
825.77	1020.29
826.206	530.54
826.643	314.29
827.08	236.54
827.516	205.04
827.953	195.34
828.389	182.39
828.825	177.09
829.262	167.74
829.698	163.29
830.135	154.54
830.571	156.14
831.007	158.04
831.443	164.19
831.88	163.64
832.316	167.14
832.752	166.44
833.188	167.19
833.624	168.49
834.06	170.29
834.497	169.24
834.933	173.74
835.369	186.64
835.805	198.14
836.241	205.29
836.677	226.94
837.112	261.84
837.548	322.84
837.984	487.14
838.42	1036.84
838.856	2895.64
839.292	5724.44
839.727	4211.29
840.163	2848.74
840.599	4349.74
841.034	6614.34
841.47	3279.39
841.906	1604.24
842.341	904.44
842.777	772.74
843.212	874.54
843.648	524.69
844.083	332.59
844.519	233.19
844.954	187.64
845.39	164.64
845.825	156.29
846.261	150.34
846.696	146.34
847.131	139.69
847.566	136.34
848.002	139.29
848.437	157.44
848.872	154.39
849.307	203.59
849.742	360.39
850.177	953.74
850.613	2023.59
851.048	1434.49
851.483	652.79
851.918	372.49
852.353	219.04
852.788	167.44
853.223	145.49
853.657	126.29
854.092	119.84
854.527	114.64
854.962	120.14
855.397	129.99
855.832	111.59
856.266	102.84
856.701	100.89
857.136	106.64
857.57	125.94
858.005	147.54
858.44	127.59
858.874	123.14
859.309	130.29
859.743	125.39
860.178	122.29
860.612	128.19
861.047	169.29
861.481	215.44
861.915	157.94
862.35	121.14
862.784	96.19
863.218	96.29
863.653	104.29
864.087	129.69
864.521	166.99
864.955	280.19
865.39	467.39
865.824	338.49
866.258	398.74
866.692	572.39
867.126	411.89
867.56	230.44
867.994	153.49
868.428	135.34
868.862	158.34
869.296	144.19
869.73	176.69
870.164	151.99
870.598	139.04
871.031	103.39
871.465	90.69
871.899	79.74
872.333	67.94
872.766	71.14
873.2	75.74
873.634	73.64
874.067	80.94
874.501	81.84
874.935	82.39
875.368	79.49
875.802	72.69
876.235	66.89
876.669	69.24
877.102	60.54
877.535	66.39
877.969	61.49
878.402	63.99
878.836	57.89
879.269	57.34
879.702	57.94
880.135	62.94
880.569	70.39
881.002	59.89
881.435	57.64
881.868	57.89
882.301	56.09
882.734	55.04
883.167	57.74
883.601	59.19
884.034	51.24
884.467	48.99
884.899	52.39
885.332	49.29
885.765	52.49
886.198	47.59
886.631	49.64
887.064	51.19
887.497	46.89
887.929	49.19
888.362	48.94
888.795	49.64
889.228	48.39
889.66	50.54
890.093	46.84
890.526	49.14
890.958	46.49
891.391	47.14
891.823	46.74
892.256	44.69
892.688	47.44
893.121	42.64
893.553	52.79
893.985	41.64
894.418	39.84
894.85	48.39
895.282	43.54
895.715	41.29
896.147	40.79
896.579	35.14
897.011	44.24
897.444	42.49
897.876	38.79
898.308	46.44
898.74	41.04
899.172	45.84
899.604	45.44
900.036	42.09
900.468	39.39
900.9	44.99
901.332	53.99
901.764	53.24
902.196	51.04
902.628	52.39
903.06	76.04
903.491	82.14
903.923	68.99
904.355	70.44
904.787	71.99
905.218	59.04
905.65	54.64
906.082	52.24
906.513	50.89
906.945	54.84
907.376	53.84
907.808	58.64
908.239	64.34
908.671	66.44
909.102	71.44
909.534	102.94
909.965	183.79
910.397	464.39
910.828	1356.84
911.259	819.09
911.691	444.39
912.122	260.94
912.553	126.49
912.984	81.34
913.415	64.09
913.847	59.34
914.278	56.79
914.709	46.64
915.14	45.14
915.571	47.09
916.002	43.64
916.433	40.34
916.864	44.54
917.295	45.79
917.726	53.99
918.157	66.29
918.587	65.34
919.018	58.84
919.449	55.84
919.88	70.09
920.311	99.94
920.741	285.89
921.172	499.34
921.603	248.64
922.033	157.99
922.464	102.29
922.895	67.54
923.325	46.89
923.756	47.74
924.186	69.39
924.617	106.79
925.047	160.29
925.478	150.24
925.908	99.64
926.338	72.99
926.769	55.59
927.199	42.94
927.629	42.34
928.06	45.84
928.49	40.44
928.92	39.59
929.35	33.54
929.78	28.49
930.21	22.99
930.641	21.99
931.071	24.14
931.501	23.39
931.931	19.14
932.361	25.34
932.791	27.64
933.221	30.29
933.651	38.14
934.08	65.39
934.51	43.64
934.94	34.29
935.37	28.74
935.8	24.59
936.229	16.14
936.659	16.24
937.089	34.49
937.519	51.74
937.948	65.99
938.378	37.94
938.807	27.64
939.237	20.64
939.666	17.79
940.096	14.74
940.525	13.39
940.955	16.79
941.384	13.79
941.814	9.84
942.243	10.19
942.672	9.19
943.102	10.29
943.531	11.24
943.96	12.09
944.39	13.34
944.819	11.89
945.248	11.04
945.677	12.64
946.106	9.59
946.535	11.79
946.964	16.94
947.393	8.59
947.822	10.69
948.251	17.44
948.68	13.84
949.109	12.04
949.538	14.44
949.967	5.24
950.396	9.79
950.825	10.84
951.254	10.54
951.682	7.29
952.111	5.64
952.54	4.74
952.969	8.99
953.397	4.04
953.826	4.44
954.254	10.29
954.683	9.24
955.112	12.44
955.54	7.14
955.969	11.44
956.397	13.49
956.826	3.09
957.254	8.39
957.682	9.04
958.111	8.99
958.539	10.74
958.967	7.54
959.396	12.64
959.824	6.09
960.252	7.89
960.68	6.49
961.109	10.69
961.537	15.39
961.965	6.74
962.393	10.49
962.821	10.79
963.249	13.14
963.677	20.54
964.105	85.44
964.533	148.84
964.961	65.54
965.389	40.44
965.817	21.14
966.245	14.89
966.672	12.84
967.1	12.49
967.528	4.34
967.956	0.94
968.383	10.19
968.811	4.64
969.239	8.99
969.666	7.39
970.094	6.64
970.522	6.19
970.949	4.29
971.377	1.89
971.804	3.09
972.232	4.99
972.659	3.69
973.087	6.29
973.514	0.69
973.941	4.04
974.369	4.84
974.796	1.74
975.223	2.69
975.651	6.59
976.078	5.79
976.505	14.29
976.932	35.39
977.359	41.04
977.786	25.04
978.214	20.09
978.641	5.64
979.068	8.69
979.495	4.29
979.922	7.39
980.349	7.44
980.776	6.14
981.202	8.19
981.629	10.44
982.056	3.29
982.483	0.29
982.91	12.84
983.337	2.34
983.763	8.74
984.19	5.04
984.617	4.04
985.043	7.34
985.47	7.14
985.897	7.49
986.323	8.84
986.75	1.49
987.176	2.04
987.603	3.94
988.029	7.79
988.456	11.54
988.882	4.49
989.308	2.29
989.735	4.84
990.161	6.24
990.587	6.24
991.014	5.19
991.44	3.89
991.866	4.84
992.292	-2.31
992.719	-0.41
993.145	6.19
993.571	5.29
993.997	6.44
994.423	9.24
994.849	-2.46
995.275	1.94
995.701	8.14
996.127	-2.11
996.553	0.44
996.979	4.19
997.405	4.84
997.83	-0.16
998.256	5.79
998.682	5.44
999.108	6.34
999.534	-4.61
999.959	1.29
1000.385	4.19
1000.811	-1.06
1001.236	-2.16
1001.662	4.89
1002.087	8.29
1002.513	5.09
1002.938	2.49
1003.364	2.84
1003.789	7.49
1004.215	2.29
1004.64	0.79
1005.066	7.54
1005.491	3.44
1005.916	1.54
1006.342	0.44
1006.767	5.49
1007.192	6.59
1007.617	3.94
1008.042	3.44
1008.468	4.49
1008.893	8.04
1009.318	8.69
1009.743	12.54
1010.168	26.14
1010.593	22.14
1011.018	12.19
1011.443	8.79
1011.868	9.99
1012.293	7.19
1012.718	5.04
1013.143	0.84
1013.567	3.29
1013.992	9.34
1014.417	6.49
1014.842	4.54
1015.267	-0.26
1015.691	1.89
1016.116	0.24
1016.541	4.89
1016.965	4.99
1017.39	3.64
1017.814	-1.21
1018.239	1.64
1018.663	2.09
1019.088	2.74
1019.512	7.34
1019.937	-2.61
1020.361	0.99
1020.785	-0.81
1021.21	-0.91
1021.634	-0.56
1022.058	7.14
1022.483	-5.06
1022.907	-1.26
1023.331	0.84
1023.755	-2.76
1024.179	1.39
1024.604	1.84
1025.028	1.69
1025.452	0.29
1025.876	4.14
1026.3	1.24
1026.724	0.04
1027.148	5.19
1027.572	-0.81
1027.996	1.54
1028.42	2.89
1028.843	0.49
1029.267	-0.26
1029.691	2.04
1030.115	1.99
1030.539	-1.56
1030.962	2.74
1031.386	-4.81
1031.81	-0.91
1032.233	-0.21
1032.657	-2.36
1033.08	2.64
1033.504	2.39
1033.927	0.44
1034.351	-1.01
1034.774	-1.06
1035.198	-1.51
1035.621	0.49
1036.045	-3.21
1036.468	3.84
1036.891	-3.26
1037.315	6.99
1037.738	-0.86
1038.161	2.09
1038.584	1.24
1039.008	-0.36
1039.431	-3.46
1039.854	-3.96
1040.277	6.74
1040.7	-0.26
1041.123	-1.66
1041.546	-0.41
1041.969	3.14
1042.392	5.04
1042.815	-8.16
1043.238	-2.76
1043.661	-3.46
1044.084	-0.21
1044.507	-0.11
1044.93	0.34
1045.352	-1.61
1045.775	4.49
1046.198	3.59
1046.621	4.24
1047.043	-0.51
1047.466	3.39
1047.889	-1.06
1048.311	4.39
1048.734	0.54
1049.156	-1.61
1049.579	-4.51
1050.001	0.59
1050.424	-1.01
1050.846	-1.16
1051.269	-7.86
1051.691	-1.56
1052.113	3.24
1052.536	2.74
1052.958	-4.71
1053.38	-0.81
1053.802	2.19
1054.225	0.19
1054.647	1.94
1055.069	-1.36
1055.491	-2.21
1055.913	1.29
1056.335	-10.36
1056.757	-5.26
1057.179	-3.16
1057.601	0.19
1058.023	-0.51
1058.445	-2.91
1058.867	3.09
1059.289	1.84
1059.711	-2.71
1060.133	2.49
1060.555	-2.91
1060.976	-0.16
1061.398	0.89
1061.82	3.34
1062.241	2.64
1062.663	-2.11
1063.085	-6.01
1063.506	-8.06
1063.928	-1.66
1064.35	4.99
1064.771	-1.41
1065.193	-2.56
1065.614	0.19
1066.035	5.49
1066.457	5.29
1066.878	1.79
1067.3	5.09
1067.721	6.79
1068.142	3.49
1068.564	0.89
1068.985	2.64
1069.406	-4.91
1069.827	-3.36
1070.248	-5.96
1070.67	-8.31
1071.091	-3.66
1071.512	-4.76
1071.933	-4.61
1072.354	-5.96
1072.775	-2.11
1073.196	-4.36
1073.617	-5.71
1074.038	-0.91
1074.459	-6.01
1074.88	-2.56
1075.3	-0.71
1075.721	0.79
1076.142	-7.01
1076.563	-7.56
1076.983	-1.21
1077.404	-8.26
1077.825	1.84
1078.246	-4.91
1078.666	-3.06
1079.087	0.69
1079.507	-3.51
1079.928	-2.41
1080.348	-4.56
1080.769	3.59
1081.189	-3.11
1081.61	-5.06
1082.03	1.34
1082.451	4.19
1082.871	-5.36
1083.291	2.09
1083.711	0.34
1084.132	-2.46
1084.552	-4.96
1084.972	-3.11
1085.392	-0.31
1085.813	-0.31
1086.233	-0.71
1086.653	0.34
1087.073	-1.51
1087.493	-1.31
1087.913	-5.31
1088.333	-4.21
1088.753	1.04
1089.173	3.44
1089.593	-0.51
1090.013	-2.81
1090.433	-7.16
1090.852	3.44
1091.272	-4.96
1091.692	-0.11
1092.112	-4.46
1092.531	-3.16
1092.951	0.74
1093.371	-1.11
1093.79	-3.26
1094.21	-0.66
1094.63	1.84
1095.049	-2.61
1095.469	-11.56
1095.888	-2.51
1096.308	-1.06
1096.727	-0.96
1097.146	-5.91
1097.566	0.24
1097.985	-2.51
1098.405	-2.01
1098.824	1.09
1099.243	-1.96
1099.662	-6.91
1100.082	-5.86
1100.501	-0.21
1100.92	-1.76
1101.339	-1.36
1101.758	-1.16
