Data from MSPlasma+Separation6_Subt14_10-15-32-141.txt Node
Date: Fri Jul 21 10:15:32 EDT 2017
User: Ender
Spectrometer: HR+D1039
Trigger mode: 0
Integration Time (sec): 2.510000E-3
Scans to average: 20
Electric dark correction enabled: true
Nonlinearity correction enabled: false
Boxcar width: 0
XAxis mode: Wavelengths
Number of Pixels in Spectrum: 2048
>>>>>Begin Spectral Data<<<<<
187.836	1.49
188.309	1.49
188.782	1.49
189.255	-3.16
189.728	3.89
190.201	-1.11
190.674	2.04
191.147	-1.81
191.619	0.29
192.092	-1.51
192.565	-1.91
193.038	0.19
193.511	1.24
193.984	-0.16
194.456	0.49
194.929	1.44
195.402	-5.91
195.874	4.49
196.347	3.29
196.82	6.04
197.292	-2.81
197.765	-1.36
198.237	-0.71
198.71	-1.51
199.182	-0.11
199.655	2.84
200.127	4.14
200.6	-1.41
201.072	1.89
201.544	-2.46
202.017	2.64
202.489	5.64
202.961	-0.11
203.433	-5.61
203.906	-3.86
204.378	0.24
204.85	3.14
205.322	-2.66
205.794	2.69
206.266	-4.91
206.739	4.69
207.211	-1.66
207.683	2.39
208.155	-0.66
208.627	-2.56
209.099	2.99
209.57	2.74
210.042	1.24
210.514	0.69
210.986	8.79
211.458	6.89
211.93	2.99
212.402	0.04
212.873	-1.56
213.345	-1.96
213.817	0.64
214.288	-3.61
214.76	0.54
215.232	-2.01
215.703	-0.71
216.175	-0.46
216.646	-1.71
217.118	-0.86
217.589	-1.31
218.061	-0.01
218.532	-3.06
219.004	5.44
219.475	2.54
219.946	8.09
220.418	16.34
220.889	9.79
221.36	7.14
221.832	4.79
222.303	4.89
222.774	2.79
223.245	0.79
223.717	-0.81
224.188	3.99
224.659	2.99
225.13	0.29
225.601	3.09
226.072	1.39
226.543	4.09
227.014	0.39
227.485	2.89
227.956	0.64
228.427	6.34
228.898	3.24
229.369	2.94
229.839	2.79
230.31	6.79
230.781	4.74
231.252	10.19
231.722	9.49
232.193	13.49
232.664	13.84
233.135	17.99
233.605	25.59
234.076	18.69
234.546	15.69
235.017	22.69
235.487	18.19
235.958	15.19
236.428	32.39
236.899	41.59
237.369	47.39
237.84	37.34
238.31	51.49
238.78	41.14
239.251	44.79
239.721	43.04
240.191	29.79
240.662	22.14
241.132	21.59
241.602	21.99
242.072	28.39
242.542	33.39
243.013	24.69
243.483	21.49
243.953	14.64
244.423	16.39
244.893	19.89
245.363	22.24
245.833	21.24
246.303	22.44
246.773	31.39
247.243	28.99
247.712	36.84
248.182	48.24
248.652	48.19
249.122	72.84
249.592	135.89
250.061	203.39
250.531	319.79
251.001	246.49
251.471	207.14
251.94	154.44
252.41	87.29
252.879	61.94
253.349	48.64
253.818	35.04
254.288	30.54
254.757	31.49
255.227	43.74
255.696	32.84
256.166	31.99
256.635	31.79
257.105	40.39
257.574	52.34
258.043	51.29
258.513	100.49
258.982	129.94
259.451	93.64
259.92	89.14
260.389	79.99
260.859	55.99
261.328	69.14
261.797	103.94
262.266	94.49
262.735	40.44
263.204	19.44
263.673	25.29
264.142	15.24
264.611	21.09
265.08	20.09
265.549	17.94
266.018	24.99
266.487	23.59
266.955	19.34
267.424	24.89
267.893	26.29
268.362	25.54
268.83	23.64
269.299	24.59
269.768	28.39
270.236	35.59
270.705	41.59
271.174	39.19
271.642	39.74
272.111	43.89
272.579	87.79
273.048	129.99
273.516	163.24
273.985	160.79
274.453	124.14
274.922	71.99
275.39	44.24
275.858	45.44
276.327	32.09
276.795	38.09
277.263	40.49
277.731	54.74
278.2	108.74
278.668	142.49
279.136	117.34
279.604	69.94
280.072	44.19
280.54	38.94
281.008	41.04
281.477	38.59
281.945	40.24
282.413	36.19
282.881	39.49
283.348	40.49
283.816	41.99
284.284	43.49
284.752	42.49
285.22	47.54
285.688	48.14
286.156	85.64
286.623	232.14
287.091	464.84
287.559	245.19
288.026	95.89
288.494	57.84
288.962	48.24
289.429	45.09
289.897	36.44
290.364	37.29
290.832	40.89
291.3	40.64
291.767	45.64
292.234	44.84
292.702	44.94
293.169	50.49
293.637	52.74
294.104	49.69
294.571	48.09
295.039	49.24
295.506	45.74
295.973	49.34
296.44	41.34
296.908	52.29
297.375	59.79
297.842	59.04
298.309	47.44
298.776	50.54
299.243	54.59
299.71	54.09
300.177	46.54
300.644	54.64
301.111	61.59
301.578	59.54
302.045	49.99
302.512	46.49
302.979	54.94
303.446	56.54
303.913	54.34
304.379	62.34
304.846	74.14
305.313	83.99
305.78	96.19
306.246	115.59
306.713	120.84
307.18	107.54
307.646	114.89
308.113	95.34
308.579	79.24
309.046	73.89
309.512	80.14
309.979	69.79
310.445	63.39
310.912	64.34
311.378	63.24
311.845	67.04
312.311	61.34
312.777	65.59
313.244	70.19
313.71	72.99
314.176	81.49
314.642	91.54
315.109	104.79
315.575	96.24
316.041	91.89
316.507	83.64
316.973	104.24
317.439	93.29
317.905	106.54
318.371	97.34
318.837	99.64
319.303	100.09
319.769	91.09
320.235	104.34
320.701	125.29
321.167	126.64
321.633	154.94
322.099	216.19
322.564	292.19
323.03	225.19
323.496	159.74
323.962	147.79
324.427	144.99
324.893	120.84
325.359	117.54
325.824	100.64
326.29	110.19
326.755	108.84
327.221	103.09
327.686	116.74
328.152	103.94
328.617	100.29
329.083	102.79
329.548	109.74
330.014	111.74
330.479	116.64
330.944	137.99
331.41	158.79
331.875	154.89
332.34	151.94
332.805	180.09
333.271	231.54
333.736	307.09
334.201	279.19
334.666	208.14
335.131	231.29
335.596	189.69
336.061	196.44
336.526	198.84
336.991	170.64
337.456	183.99
337.921	144.09
338.386	121.29
338.851	107.89
339.316	103.69
339.781	99.04
340.246	101.39
340.711	98.79
341.175	104.44
341.64	100.64
342.105	105.69
342.569	115.49
343.034	115.44
343.499	127.59
343.963	123.09
344.428	118.29
344.893	123.44
345.357	126.34
345.822	121.69
346.286	121.34
346.751	127.79
347.215	123.64
347.679	128.49
348.144	145.09
348.608	144.94
349.073	146.59
349.537	158.44
350.001	160.19
350.465	150.74
350.93	138.74
351.394	143.89
351.858	143.04
352.322	145.79
352.786	146.94
353.25	148.24
353.715	147.39
354.179	157.79
354.643	160.24
355.107	164.14
355.571	176.59
356.035	180.24
356.498	177.14
356.962	182.49
357.426	180.49
357.89	165.14
358.354	152.54
358.818	159.29
359.281	164.14
359.745	169.64
360.209	159.89
360.673	164.54
361.136	170.99
361.6	163.74
362.064	175.44
362.527	178.19
362.991	178.84
363.454	183.79
363.918	185.19
364.381	183.14
364.845	172.94
365.308	174.94
365.772	168.34
366.235	172.89
366.698	184.64
367.162	223.64
367.625	250.69
368.088	199.49
368.552	182.54
369.015	188.64
369.478	197.59
369.941	200.74
370.404	207.34
370.867	220.54
371.331	220.99
371.794	221.99
372.257	246.94
372.72	258.64
373.183	248.39
373.646	258.19
374.109	257.04
374.572	295.69
375.035	353.79
375.497	264.99
375.96	215.29
376.423	203.44
376.886	202.34
377.349	204.49
377.811	209.99
378.274	218.59
378.737	212.19
379.199	219.49
379.662	220.99
380.125	244.94
380.587	265.14
381.05	284.19
381.512	281.24
381.975	274.44
382.437	272.09
382.9	268.59
383.362	271.24
383.825	291.39
384.287	373.69
384.75	411.69
385.212	368.79
385.674	298.84
386.136	273.84
386.599	265.74
387.061	270.29
387.523	290.39
387.985	294.14
388.447	307.44
388.91	343.04
389.372	418.74
389.834	390.64
390.296	316.69
390.758	322.59
391.22	328.79
391.682	416.19
392.144	638.39
392.606	599.44
393.068	356.04
393.529	318.19
393.991	307.64
394.453	304.99
394.915	322.34
395.377	390.04
395.838	477.64
396.3	335.39
396.762	255.14
397.224	244.59
397.685	240.64
398.147	248.44
398.608	243.54
399.07	255.49
399.531	247.79
399.993	253.69
400.454	252.54
400.916	251.59
401.377	260.94
401.839	268.29
402.3	261.44
402.762	281.44
403.223	310.44
403.684	308.29
404.145	283.44
404.607	280.74
405.068	284.44
405.529	287.84
405.99	291.99
406.451	294.99
406.913	292.59
407.374	294.39
407.835	292.79
408.296	302.99
408.757	306.44
409.218	321.69
409.679	322.64
410.14	326.79
410.601	330.19
411.062	355.14
411.522	410.79
411.983	458.99
412.444	385.19
412.905	334.29
413.366	336.24
413.826	341.19
414.287	385.29
414.748	453.24
415.208	462.34
415.669	386.89
416.13	354.29
416.59	351.44
417.051	357.14
417.511	369.24
417.972	400.19
418.432	432.44
418.893	477.14
419.353	454.34
419.814	351.74
420.274	313.99
420.734	315.04
421.195	333.14
421.655	353.54
422.115	337.79
422.576	327.79
423.036	329.64
423.496	338.49
423.956	362.39
424.416	390.59
424.876	434.89
425.336	432.44
425.797	428.09
426.257	429.39
426.717	408.84
427.177	383.59
427.637	391.74
428.097	414.79
428.556	430.14
429.016	471.29
429.476	470.99
429.936	459.04
430.396	448.54
430.856	459.89
431.315	464.39
431.775	503.59
432.235	526.79
432.694	533.49
433.154	506.74
433.614	479.09
434.073	466.24
434.533	421.84
434.993	408.74
435.452	410.14
435.912	402.99
436.371	408.99
436.83	401.29
437.29	410.29
437.749	388.34
438.209	376.34
438.668	387.89
439.127	382.74
439.587	379.04
440.046	360.79
440.505	367.94
440.964	364.29
441.424	378.94
441.883	385.74
442.342	362.84
442.801	342.34
443.26	362.54
443.719	356.99
444.178	349.99
444.637	357.29
445.096	355.74
445.555	368.79
446.014	368.94
446.473	347.19
446.932	344.09
447.391	359.84
447.849	372.74
448.308	360.29
448.767	374.14
449.226	378.19
449.685	389.39
450.143	398.99
450.602	394.69
451.061	379.44
451.519	386.69
451.978	398.34
452.436	411.84
452.895	392.34
453.353	379.84
453.812	378.84
454.27	374.84
454.729	367.19
455.187	365.44
455.646	376.64
456.104	371.89
456.562	373.64
457.021	376.69
457.479	350.79
457.937	365.29
458.395	373.79
458.854	368.19
459.312	364.74
459.77	366.49
460.228	375.49
460.686	381.24
461.144	379.69
461.602	369.84
462.06	375.19
462.518	389.14
462.976	387.74
463.434	386.39
463.892	398.04
464.35	403.59
464.808	402.99
465.266	409.74
465.724	419.59
466.181	416.09
466.639	408.09
467.097	428.39
467.555	447.14
468.012	444.29
468.47	442.09
468.928	459.34
469.385	470.74
469.843	474.04
470.3	473.59
470.758	494.29
471.215	503.39
471.673	507.79
472.13	527.89
472.588	531.74
473.045	533.29
473.503	548.14
473.96	563.54
474.417	579.74
474.875	598.29
475.332	618.84
475.789	637.84
476.246	654.44
476.704	679.19
477.161	699.94
477.618	724.29
478.075	768.49
478.532	835.24
478.989	905.04
479.446	1003.54
479.903	1065.29
480.36	1178.94
480.817	1261.19
481.274	1364.69
481.731	1491.34
482.188	1616.19
482.645	1742.24
483.102	1852.24
483.558	1979.84
484.015	2084.89
484.472	2083.79
484.929	2023.04
485.385	1933.64
485.842	1873.19
486.299	1778.39
486.755	1594.94
487.212	1424.04
487.668	1269.59
488.125	1167.14
488.582	1068.79
489.038	1017.69
489.494	988.09
489.951	953.14
490.407	918.59
490.864	907.69
491.32	888.69
491.776	872.79
492.233	869.29
492.689	860.59
493.145	839.74
493.602	831.39
494.058	849.44
494.514	870.89
494.97	866.54
495.426	871.94
495.882	875.09
496.338	877.79
496.794	916.29
497.251	914.44
497.707	911.84
498.163	915.54
498.618	916.14
499.074	931.84
499.53	946.24
499.986	959.89
500.442	970.14
500.898	973.84
501.354	987.44
501.809	990.74
502.265	1008.04
502.721	1063.39
503.177	1082.79
503.632	1031.74
504.088	1035.49
504.543	1135.59
504.999	1062.29
505.455	936.34
505.91	892.59
506.366	879.09
506.821	885.79
507.277	858.09
507.732	868.29
508.187	872.79
508.643	882.34
509.098	879.54
509.553	887.09
510.009	897.79
510.464	910.89
510.919	920.99
511.375	940.44
511.83	948.79
512.285	959.49
512.74	977.64
513.195	992.74
513.65	1016.49
514.105	1026.04
514.56	1025.89
515.015	1052.99
515.47	1057.44
515.925	1048.69
516.38	1049.14
516.835	1044.89
517.29	1049.74
517.745	1050.29
518.2	1031.49
518.655	1003.79
519.109	997.74
519.564	978.29
520.019	981.09
520.474	967.39
520.928	954.64
521.383	956.89
521.838	958.59
522.292	941.09
522.747	922.29
523.201	924.74
523.656	914.59
524.11	913.14
524.565	914.49
525.019	918.64
525.474	922.44
525.928	918.89
526.382	907.84
526.837	903.44
527.291	897.39
527.745	898.69
528.2	906.49
528.654	885.89
529.108	900.14
529.562	894.14
530.016	893.09
530.47	903.59
530.925	897.94
531.379	892.09
531.833	909.04
532.287	904.19
532.741	899.59
533.195	898.94
533.649	898.29
534.103	910.19
534.556	890.09
535.01	898.69
535.464	901.39
535.918	899.49
536.372	904.49
536.826	901.54
537.279	894.14
537.733	888.64
538.187	896.34
538.64	895.19
539.094	913.79
539.548	921.59
540.001	914.54
540.455	921.14
540.908	927.39
541.362	937.84
541.815	939.89
542.269	971.94
542.722	959.54
543.175	962.39
543.629	974.24
544.082	982.59
544.536	996.34
544.989	984.99
545.442	993.94
545.895	995.89
546.349	996.64
546.802	995.14
547.255	995.69
547.708	1010.49
548.161	1015.89
548.614	1020.64
549.067	1020.04
549.52	1008.99
549.973	1005.39
550.426	996.34
550.879	988.09
551.332	985.59
551.785	991.14
552.238	1001.04
552.691	1005.19
553.144	1015.14
553.596	1029.94
554.049	1051.34
554.502	1065.84
554.955	1077.54
555.407	1094.39
555.86	1084.49
556.313	1067.99
556.765	1061.99
557.218	1052.94
557.67	1055.49
558.123	1033.54
558.576	1031.04
559.028	1034.69
559.48	1039.59
559.933	1042.74
560.385	1001.34
560.838	970.39
561.29	951.69
561.742	946.79
562.195	922.79
562.647	919.19
563.099	914.14
563.551	908.39
564.004	919.99
564.456	916.34
564.908	895.49
565.36	877.94
565.812	858.59
566.264	861.39
566.716	844.24
567.168	827.79
567.62	833.99
568.072	824.34
568.524	817.99
568.976	814.14
569.428	804.39
569.88	812.24
570.332	815.79
570.784	801.74
571.235	799.49
571.687	811.64
572.139	809.09
572.59	822.49
573.042	815.19
573.494	827.24
573.945	809.54
574.397	790.64
574.849	790.49
575.3	801.24
575.752	776.19
576.203	775.19
576.655	782.79
577.106	769.89
577.557	762.54
578.009	763.44
578.46	767.14
578.912	761.94
579.363	768.84
579.814	759.34
580.265	762.94
580.717	759.84
581.168	754.69
581.619	760.94
582.07	769.99
582.521	769.34
582.972	764.69
583.423	776.89
583.875	788.59
584.326	831.84
584.777	907.09
585.227	988.04
585.678	1049.94
586.129	1078.34
586.58	1105.99
587.031	1107.39
587.482	1180.19
587.933	1368.14
588.384	1267.54
588.834	1053.24
589.285	884.79
589.736	869.89
590.186	875.69
590.637	860.49
591.088	837.14
591.538	828.24
591.989	826.24
592.439	818.54
592.89	816.74
593.34	814.64
593.791	821.34
594.241	830.39
594.692	839.49
595.142	824.49
595.593	817.54
596.043	818.29
596.493	827.94
596.943	846.99
597.394	843.44
597.844	823.64
598.294	837.74
598.744	860.89
599.195	898.79
599.645	948.89
600.095	998.49
600.545	1038.04
600.995	1091.79
601.445	1129.39
601.895	1176.94
602.345	1216.19
602.795	1198.89
603.245	1134.74
603.695	1066.99
604.145	1018.49
604.594	971.99
605.044	920.14
605.494	864.94
605.944	821.59
606.393	809.09
606.843	800.74
607.293	803.79
607.743	800.04
608.192	805.59
608.642	803.84
609.091	804.29
609.541	796.59
609.99	803.09
610.44	781.99
610.889	779.04
611.339	767.59
611.788	761.09
612.238	777.74
612.687	784.59
613.136	792.19
613.586	801.09
614.035	805.79
614.484	813.79
614.933	816.84
615.383	802.09
615.832	773.99
616.281	758.99
616.73	731.09
617.179	725.34
617.628	700.49
618.077	694.79
618.526	681.09
618.975	675.34
619.424	662.24
619.873	666.79
620.322	662.89
620.771	665.84
621.22	656.74
621.669	642.04
622.118	631.29
622.567	630.24
623.015	617.29
623.464	623.99
623.913	603.24
624.361	612.04
624.81	606.99
625.259	601.19
625.707	591.24
626.156	604.34
626.604	609.74
627.053	615.29
627.501	606.79
627.95	614.79
628.398	620.99
628.847	621.94
629.295	618.94
629.744	626.34
630.192	640.44
630.64	697.09
631.089	774.54
631.537	806.79
631.985	806.49
632.433	843.99
632.881	840.34
633.33	1012.59
633.778	1095.09
634.226	780.94
634.674	711.54
635.122	709.79
635.57	717.34
636.018	835.29
636.466	678.54
636.914	597.14
637.362	600.19
637.81	607.74
638.258	620.29
638.705	625.64
639.153	647.99
639.601	648.34
640.049	659.84
640.497	681.09
640.944	697.44
641.392	668.99
641.84	626.64
642.287	615.24
642.735	598.69
643.182	597.74
643.63	600.39
644.078	602.39
644.525	607.24
644.973	623.29
645.42	636.89
645.867	648.49
646.315	659.94
646.762	690.79
647.21	710.44
647.657	743.39
648.104	785.74
648.551	817.09
648.999	892.34
649.446	987.19
649.893	1126.19
650.34	1322.49
650.787	1642.64
651.234	2148.84
651.682	3020.44
652.129	4391.39
652.576	6350.74
653.023	8523.69
653.47	9939.59
653.917	10750.04
654.363	11216.19
654.81	11917.74
655.257	11994.94
655.704	8139.89
656.151	4757.74
656.598	3057.09
657.044	2165.54
657.491	1676.94
657.938	1347.64
658.385	1126.19
658.831	992.99
659.278	887.74
659.724	801.64
660.171	743.99
660.618	692.79
661.064	649.14
661.511	623.44
661.957	597.34
662.404	582.14
662.85	571.14
663.296	560.09
663.743	548.14
664.189	541.89
664.635	540.09
665.082	516.74
665.528	520.69
665.974	507.19
666.42	511.64
666.867	510.79
667.313	512.24
667.759	545.14
668.205	537.54
668.651	543.04
669.097	531.19
669.543	571.94
669.989	548.84
670.435	481.64
670.881	462.69
671.327	483.89
671.773	518.19
672.219	554.99
672.665	586.34
673.11	608.69
673.556	622.79
674.002	630.54
674.448	632.89
674.893	541.39
675.339	474.99
675.785	443.84
676.23	415.39
676.676	402.59
677.122	392.69
677.567	379.79
678.013	366.04
678.458	370.04
678.904	367.99
679.349	358.24
679.794	363.04
680.24	362.69
680.685	354.59
681.131	359.74
681.576	359.09
682.021	364.99
682.466	371.39
682.912	369.44
683.357	376.69
683.802	417.19
684.247	457.14
684.692	485.29
685.137	496.69
685.583	502.34
686.028	530.34
686.473	503.54
686.918	440.69
687.363	401.64
687.807	386.09
688.252	367.29
688.697	355.84
689.142	346.24
689.587	342.14
690.032	358.44
690.477	366.69
690.921	380.49
691.366	400.59
691.811	417.84
692.255	457.64
692.7	546.59
693.145	789.79
693.589	1181.54
694.034	1393.59
694.478	1470.09
694.923	1340.44
695.367	1874.74
695.812	1176.54
696.256	506.14
696.701	380.44
697.145	350.09
697.59	338.34
698.034	338.44
698.478	329.79
698.922	338.54
699.367	345.14
699.811	364.84
700.255	397.34
700.699	423.49
701.143	461.69
701.588	481.64
702.032	496.74
702.476	505.19
702.92	543.14
703.364	724.19
703.808	1089.64
704.252	1344.99
704.696	1394.89
705.14	1320.84
705.584	1765.74
706.027	1025.89
706.471	531.14
706.915	397.64
707.359	351.09
707.803	331.19
708.246	311.44
708.69	317.69
709.134	312.19
709.577	319.69
710.021	319.09
710.465	315.99
710.908	312.14
711.352	324.24
711.795	362.74
712.239	387.84
712.682	393.79
713.126	390.34
713.569	437.64
714.012	370.89
714.456	323.39
714.899	303.44
715.342	282.69
715.786	270.59
716.229	262.89
716.672	254.74
717.115	255.49
717.558	258.34
718.002	266.44
718.445	281.34
718.888	295.39
719.331	296.74
719.774	306.44
720.217	297.59
720.66	276.79
721.103	270.29
721.546	253.74
721.989	243.44
722.432	249.29
722.874	247.79
723.317	250.79
723.76	271.29
724.203	331.64
724.645	435.59
725.088	507.19
725.531	495.29
725.974	542.34
726.416	482.74
726.859	310.99
727.301	254.59
727.744	240.84
728.187	243.49
728.629	244.89
729.071	257.59
729.514	266.59
729.956	276.04
730.399	282.84
730.841	282.09
731.283	271.89
731.726	260.74
732.168	268.04
732.61	281.59
733.053	303.49
733.495	342.09
733.937	384.29
734.379	446.74
734.821	565.39
735.263	897.74
735.705	1565.29
736.148	2258.79
736.59	2227.09
737.032	2408.44
737.474	2002.14
737.916	817.59
738.357	429.44
738.799	333.99
739.241	307.34
739.683	311.79
740.125	308.84
740.567	314.54
741.008	327.74
741.45	341.39
741.892	351.54
742.334	352.64
742.775	346.49
743.217	327.84
743.658	287.29
744.1	289.09
744.542	320.84
744.983	333.59
745.425	347.09
745.866	345.54
746.307	308.59
746.749	340.09
747.19	493.84
747.632	950.14
748.073	1717.99
748.514	2311.99
748.956	3085.24
749.397	3559.34
749.838	2470.49
750.279	2332.24
750.72	1252.99
751.162	535.04
751.603	310.34
752.044	248.29
752.485	225.59
752.926	211.89
753.367	198.84
753.808	196.39
754.249	194.44
754.69	192.74
755.131	185.54
755.572	186.89
756.013	191.64
756.453	188.04
756.894	191.94
757.335	193.44
757.776	190.09
758.216	201.34
758.657	216.79
759.098	232.99
759.538	279.24
759.979	415.34
760.42	830.99
760.86	2065.89
761.301	4236.64
761.741	4889.89
762.182	5597.04
762.622	3633.19
763.063	1386.69
763.503	612.64
763.943	470.14
764.384	505.54
764.824	476.54
765.264	473.94
765.705	336.34
766.145	246.09
766.585	211.74
767.025	226.79
767.465	292.24
767.906	361.59
768.346	381.44
768.786	399.89
769.226	406.44
769.666	684.39
770.106	1451.64
770.546	1987.09
770.986	2227.24
771.426	1697.29
771.866	738.64
772.306	337.69
772.745	215.44
773.185	187.04
773.625	188.34
774.065	218.39
774.505	360.94
774.944	712.94
775.384	1049.49
775.824	1179.94
776.263	968.09
776.703	486.04
777.142	252.39
777.582	171.24
778.021	156.59
778.461	144.39
778.9	148.04
779.34	135.14
779.779	123.44
780.219	124.64
780.658	115.24
781.097	116.34
781.537	110.59
781.976	115.19
782.415	115.84
782.855	117.94
783.294	119.74
783.733	107.34
784.172	117.64
784.611	113.14
785.05	120.69
785.489	120.44
785.928	118.39
786.367	126.99
786.806	135.39
787.245	140.04
787.684	140.84
788.123	134.89
788.562	133.89
789.001	135.29
789.44	131.74
789.879	127.84
790.317	130.64
790.756	137.44
791.195	157.29
791.634	212.59
792.072	387.29
792.511	937.94
792.95	1647.94
793.388	1965.19
793.827	1301.39
794.265	614.34
794.704	300.84
795.142	185.39
795.581	155.29
796.019	136.74
796.458	136.74
796.896	138.14
797.334	163.69
797.773	216.74
798.211	416.64
798.649	851.99
799.087	1408.69
799.526	1938.84
799.964	1988.04
800.402	1382.94
800.84	642.99
801.278	315.29
801.716	192.99
802.154	156.24
802.592	150.94
803.03	154.04
803.468	156.24
803.906	147.89
804.344	146.24
804.782	143.09
805.22	147.64
805.658	151.29
806.096	160.44
806.533	175.29
806.971	230.34
807.409	337.24
807.847	668.99
808.284	1651.84
808.722	2841.29
809.16	3982.34
809.597	5441.24
810.035	6638.54
810.472	4285.64
810.91	1884.79
811.347	857.39
811.785	405.49
812.222	252.19
812.66	190.89
813.097	167.84
813.535	143.69
813.972	127.39
814.409	116.74
814.846	114.89
815.284	106.79
815.721	110.39
816.158	120.89
816.595	155.74
817.032	185.04
817.47	167.44
817.907	135.44
818.344	121.54
818.781	113.84
819.218	133.79
819.655	189.24
820.092	233.94
820.529	218.84
820.966	181.09
821.403	134.49
821.839	125.74
822.276	127.69
822.713	148.64
823.15	136.49
823.587	155.14
824.023	277.74
824.46	691.84
824.897	1169.09
825.333	910.44
825.77	430.24
826.206	228.94
826.643	137.74
827.08	100.89
827.516	87.24
827.953	82.69
828.389	79.04
828.825	78.49
829.262	74.14
829.698	72.34
830.135	66.24
830.571	66.04
831.007	71.74
831.443	63.89
831.88	72.59
832.316	68.54
832.752	68.89
833.188	70.14
833.624	71.94
834.06	71.59
834.497	69.74
834.933	72.49
835.369	81.29
835.805	87.09
836.241	85.09
836.677	94.99
837.112	105.54
837.548	137.29
837.984	212.74
838.42	440.89
838.856	1191.19
839.292	2263.69
839.727	1705.49
840.163	1186.84
840.599	1766.39
841.034	2635.59
841.47	1350.39
841.906	678.59
842.341	381.79
842.777	332.24
843.212	385.29
843.648	227.29
844.083	142.64
844.519	99.69
844.954	79.59
845.39	65.49
845.825	68.19
846.261	66.44
846.696	56.99
847.131	55.79
847.566	58.09
848.002	59.29
848.437	66.14
848.872	61.04
849.307	85.84
849.742	157.04
850.177	400.59
850.613	831.04
851.048	594.84
851.483	284.14
851.918	154.59
852.353	90.29
852.788	71.19
853.223	69.89
853.657	53.64
854.092	55.54
854.527	47.09
854.962	48.14
855.397	51.79
855.832	44.74
856.266	46.29
856.701	41.89
857.136	47.04
857.57	52.24
858.005	58.49
858.44	52.69
858.874	49.89
859.309	51.04
859.743	52.84
860.178	50.44
860.612	54.74
861.047	67.99
861.481	92.44
861.915	63.24
862.35	52.04
862.784	42.94
863.218	40.64
863.653	44.04
864.087	50.94
864.521	65.09
864.955	118.49
865.39	193.04
865.824	141.04
866.258	162.14
866.692	230.24
867.126	165.14
867.56	95.49
867.994	58.79
868.428	56.94
868.862	63.09
869.296	56.14
869.73	71.59
870.164	63.49
870.598	51.94
871.031	43.64
871.465	37.14
871.899	29.44
872.333	30.64
872.766	33.54
873.2	31.59
873.634	32.94
874.067	36.09
874.501	38.89
874.935	31.14
875.368	32.59
875.802	28.49
876.235	25.19
876.669	28.14
877.102	23.69
877.535	26.09
877.969	24.29
878.402	25.14
878.836	21.74
879.269	21.69
879.702	24.24
880.135	27.74
880.569	34.74
881.002	21.39
881.435	27.29
881.868	22.19
882.301	21.49
882.734	20.49
883.167	27.44
883.601	23.99
884.034	22.19
884.467	20.84
884.899	23.19
885.332	16.49
885.765	19.64
886.198	19.49
886.631	18.29
887.064	20.24
887.497	19.09
887.929	19.04
888.362	23.19
888.795	19.54
889.228	28.29
889.66	23.89
890.093	19.94
890.526	24.19
890.958	23.74
891.391	23.44
891.823	18.14
892.256	21.69
892.688	20.24
893.121	16.64
893.553	24.44
893.985	12.99
894.418	12.99
894.85	17.89
895.282	20.09
895.715	13.44
896.147	10.09
896.579	10.19
897.011	21.54
897.444	22.09
897.876	13.39
898.308	15.19
898.74	16.64
899.172	20.24
899.604	20.04
900.036	17.14
900.468	11.64
900.9	18.29
901.332	22.69
901.764	25.59
902.196	20.64
902.628	20.14
903.06	28.74
903.491	33.19
903.923	27.84
904.355	31.49
904.787	28.59
905.218	25.94
905.65	23.04
906.082	24.89
906.513	20.04
906.945	24.69
907.376	22.94
907.808	22.24
908.239	28.39
908.671	30.69
909.102	31.34
909.534	42.74
909.965	74.94
910.397	196.24
910.828	555.29
911.259	340.14
911.691	185.64
912.122	108.24
912.553	56.89
912.984	27.04
913.415	26.39
913.847	21.74
914.278	22.39
914.709	22.39
915.14	17.29
915.571	22.49
916.002	20.79
916.433	16.09
916.864	14.74
917.295	22.04
917.726	21.94
918.157	22.59
918.587	20.99
919.018	25.19
919.449	20.09
919.88	21.94
920.311	38.39
920.741	120.49
921.172	206.29
921.603	98.39
922.033	61.39
922.464	42.54
922.895	28.29
923.325	22.59
923.756	18.59
924.186	25.24
924.617	43.74
925.047	71.54
925.478	66.49
925.908	42.79
926.338	31.19
926.769	22.19
927.199	18.49
927.629	15.94
928.06	18.09
928.49	17.84
928.92	16.94
929.35	18.44
929.78	13.24
930.21	13.69
930.641	6.49
931.071	13.04
931.501	13.14
931.931	7.74
932.361	10.79
932.791	11.84
933.221	8.19
933.651	18.34
934.08	27.29
934.51	15.24
934.94	13.64
935.37	11.14
935.8	11.19
936.229	8.49
936.659	10.54
937.089	11.79
937.519	21.74
937.948	27.54
938.378	19.09
938.807	12.99
939.237	7.19
939.666	6.79
940.096	4.69
940.525	3.69
940.955	2.04
941.384	0.49
941.814	2.09
942.243	4.19
942.672	0.59
943.102	1.59
943.531	3.84
943.96	5.14
944.39	3.64
944.819	3.54
945.248	2.54
945.677	1.64
946.106	3.64
946.535	4.74
946.964	6.69
947.393	2.14
947.822	1.94
948.251	7.04
948.68	5.64
949.109	5.99
949.538	2.24
949.967	3.19
950.396	1.39
950.825	3.04
951.254	1.94
951.682	0.29
952.111	-0.86
952.54	1.14
952.969	3.89
953.397	-4.31
953.826	1.14
954.254	4.49
954.683	4.84
955.112	6.09
955.54	0.84
955.969	1.14
956.397	5.74
956.826	-0.56
957.254	2.19
957.682	3.24
958.111	2.64
958.539	4.89
958.967	1.34
959.396	7.34
959.824	4.79
960.252	-2.91
960.68	3.29
961.109	1.84
961.537	7.74
961.965	-0.61
962.393	0.59
962.821	-1.96
963.249	3.34
963.677	3.94
964.105	35.54
964.533	54.79
964.961	26.34
965.389	14.59
965.817	5.79
966.245	3.74
966.672	6.74
967.1	0.89
967.528	-5.26
967.956	0.49
968.383	3.34
968.811	1.84
969.239	5.14
969.666	3.54
970.094	-0.36
970.522	-0.06
970.949	3.89
971.377	-8.01
971.804	-5.36
972.232	0.39
972.659	-0.46
973.087	7.84
973.514	-3.01
973.941	-2.26
974.369	-1.71
974.796	-0.26
975.223	0.49
975.651	4.64
976.078	1.39
976.505	6.54
976.932	11.04
977.359	18.94
977.786	12.69
978.214	8.09
978.641	0.44
979.068	1.49
979.495	-1.11
979.922	2.54
980.349	4.34
980.776	4.94
981.202	-0.11
981.629	2.14
982.056	0.74
982.483	-4.41
982.91	8.19
983.337	-0.56
983.763	-0.56
984.19	2.69
984.617	2.69
985.043	2.44
985.47	2.69
985.897	1.99
986.323	4.14
986.75	0.54
987.176	-0.66
987.603	0.79
988.029	1.59
988.456	6.19
988.882	-0.26
989.308	-4.76
989.735	-0.71
990.161	-1.16
990.587	0.29
991.014	3.54
991.44	1.34
991.866	3.29
992.292	0.99
992.719	2.09
993.145	5.34
993.571	3.04
993.997	7.14
994.423	2.44
994.849	-0.36
995.275	-0.31
995.701	-0.41
996.127	-3.61
996.553	-0.81
996.979	-3.26
997.405	4.14
997.83	-1.46
998.256	3.19
998.682	0.74
999.108	4.14
999.534	-2.06
999.959	3.24
1000.385	1.04
1000.811	-2.21
1001.236	-4.66
1001.662	1.09
1002.087	2.14
1002.513	1.44
1002.938	-2.76
1003.364	1.69
1003.789	-0.41
1004.215	-2.21
1004.64	-1.46
1005.066	2.59
1005.491	1.69
1005.916	0.94
1006.342	6.64
1006.767	4.94
1007.192	1.69
1007.617	0.24
1008.042	-2.81
1008.468	-1.56
1008.893	1.74
1009.318	1.84
1009.743	5.24
1010.168	12.19
1010.593	6.89
1011.018	4.04
1011.443	-0.21
1011.868	4.39
1012.293	3.39
1012.718	-4.76
1013.143	-0.06
1013.567	1.64
1013.992	-1.71
1014.417	1.09
1014.842	-2.06
1015.267	-0.91
1015.691	3.49
1016.116	0.09
1016.541	0.54
1016.965	-1.06
1017.39	2.39
1017.814	-2.86
1018.239	-0.91
1018.663	-5.51
1019.088	-4.71
1019.512	5.44
1019.937	-3.51
1020.361	0.24
1020.785	-0.36
1021.21	-4.36
1021.634	-3.46
1022.058	3.54
1022.483	-1.56
1022.907	0.54
1023.331	-3.26
1023.755	-2.41
1024.179	0.54
1024.604	3.24
1025.028	-0.81
1025.452	1.74
1025.876	3.14
1026.3	-0.61
1026.724	-4.56
1027.148	2.79
1027.572	-1.01
1027.996	-2.66
1028.42	-1.86
1028.843	3.29
1029.267	-2.01
1029.691	5.64
1030.115	-1.11
1030.539	-1.46
1030.962	-1.51
1031.386	-2.81
1031.81	0.09
1032.233	1.49
1032.657	-5.31
1033.08	-3.66
1033.504	-1.11
1033.927	-2.56
1034.351	-6.61
1034.774	-0.31
1035.198	-4.11
1035.621	2.94
1036.045	1.29
1036.468	4.84
1036.891	-4.31
1037.315	1.74
1037.738	-1.86
1038.161	-0.46
1038.584	0.89
1039.008	-6.16
1039.431	-2.81
1039.854	-3.56
1040.277	4.09
1040.7	-0.16
1041.123	0.49
1041.546	-2.46
1041.969	1.24
1042.392	3.39
1042.815	-4.06
1043.238	-0.41
1043.661	0.29
1044.084	-4.06
1044.507	-2.21
1044.93	-2.11
1045.352	4.34
1045.775	4.14
1046.198	0.49
1046.621	2.19
1047.043	-7.16
1047.466	2.09
1047.889	-2.21
1048.311	5.14
1048.734	-2.41
1049.156	-0.21
1049.579	-0.76
1050.001	-3.56
1050.424	-0.46
1050.846	-5.21
1051.269	-6.51
1051.691	-0.76
1052.113	0.14
1052.536	-3.06
1052.958	-5.46
1053.38	0.49
1053.802	-2.96
1054.225	-1.31
1054.647	3.69
1055.069	-2.06
1055.491	1.44
1055.913	-0.76
1056.335	-8.71
1056.757	-5.81
1057.179	-0.81
1057.601	-3.86
1058.023	-2.36
1058.445	-6.26
1058.867	2.09
1059.289	-0.96
1059.711	-0.26
1060.133	-2.26
1060.555	-4.61
1060.976	-0.26
1061.398	-3.31
1061.82	-0.06
1062.241	-1.61
1062.663	2.04
1063.085	-0.71
1063.506	-7.31
1063.928	-0.61
1064.35	3.39
1064.771	-1.61
1065.193	-1.41
1065.614	-1.76
1066.035	6.74
1066.457	1.09
1066.878	2.34
1067.3	-3.06
1067.721	1.24
1068.142	1.84
1068.564	6.59
1068.985	-0.06
1069.406	-5.71
1069.827	-1.31
1070.248	-3.41
1070.67	-4.56
1071.091	-4.86
1071.512	0.04
1071.933	-1.91
1072.354	-5.46
1072.775	-5.51
1073.196	-2.21
1073.617	-2.91
1074.038	1.84
1074.459	-2.11
1074.88	-1.26
1075.3	-4.66
1075.721	0.04
1076.142	-4.36
1076.563	-7.71
1076.983	3.29
1077.404	-3.46
1077.825	-1.41
1078.246	-8.01
1078.666	-0.81
1079.087	-2.21
1079.507	-4.91
1079.928	-4.11
1080.348	-4.31
1080.769	2.39
1081.189	-0.76
1081.61	-9.61
1082.03	2.99
1082.451	0.54
1082.871	-5.01
1083.291	-3.76
1083.711	-3.81
1084.132	0.04
1084.552	-7.81
1084.972	-3.06
1085.392	-4.71
1085.813	2.79
1086.233	-4.36
1086.653	-4.66
1087.073	-4.21
1087.493	-3.76
1087.913	-5.16
1088.333	-1.96
1088.753	0.94
1089.173	-4.01
1089.593	-0.06
1090.013	-1.26
1090.433	-6.56
1090.852	3.54
1091.272	-2.56
1091.692	0.24
1092.112	-0.61
1092.531	-2.56
1092.951	-0.81
1093.371	-1.86
1093.79	-5.56
1094.21	-1.31
1094.63	1.29
1095.049	-4.06
1095.469	-9.01
1095.888	-0.56
1096.308	1.54
1096.727	3.04
1097.146	-5.86
1097.566	0.44
1097.985	-2.56
1098.405	-1.41
1098.824	2.69
1099.243	-0.96
1099.662	-5.26
1100.082	-3.51
1100.501	2.94
1100.92	3.59
1101.339	3.79
1101.758	9.99
