Data from MSPlasma+Separation6_Subt14_10-15-06-958.txt Node
Date: Fri Jul 21 10:15:06 EDT 2017
User: Ender
Spectrometer: HR+D1039
Trigger mode: 0
Integration Time (sec): 6.430000E-3
Scans to average: 20
Electric dark correction enabled: true
Nonlinearity correction enabled: false
Boxcar width: 0
XAxis mode: Wavelengths
Number of Pixels in Spectrum: 2048
>>>>>Begin Spectral Data<<<<<
187.836	-2.92
188.309	-2.92
188.782	-2.92
189.255	2.58
189.728	0.98
190.201	1.23
190.674	-0.07
191.147	2.43
191.619	-2.62
192.092	-3.07
192.565	-3.82
193.038	2.73
193.511	1.13
193.984	-2.42
194.456	0.43
194.929	2.78
195.402	-0.27
195.874	0.83
196.347	4.58
196.82	1.18
197.292	-2.42
197.765	-0.67
198.237	-2.37
198.71	-6.57
199.182	-1.37
199.655	2.48
200.127	1.28
200.6	-0.52
201.072	0.83
201.544	-3.12
202.017	6.23
202.489	2.28
202.961	2.23
203.433	-0.92
203.906	0.08
204.378	0.18
204.85	3.98
205.322	-1.42
205.794	3.58
206.266	0.63
206.739	-0.77
207.211	-1.32
207.683	-0.82
208.155	1.68
208.627	3.18
209.099	5.93
209.57	-0.07
210.042	4.63
210.514	2.53
210.986	14.63
211.458	18.53
211.93	14.38
212.402	0.88
212.873	-4.17
213.345	-3.77
213.817	1.48
214.288	-3.22
214.76	-1.07
215.232	1.63
215.703	2.48
216.175	1.98
216.646	0.53
217.118	1.93
217.589	0.83
218.061	3.93
218.532	3.53
219.004	10.38
219.475	17.13
219.946	25.83
220.418	35.68
220.889	25.38
221.36	12.78
221.832	9.43
222.303	7.83
222.774	3.98
223.245	6.98
223.717	5.23
224.188	8.18
224.659	3.63
225.13	1.63
225.601	2.48
226.072	5.13
226.543	3.68
227.014	4.33
227.485	7.93
227.956	8.68
228.427	11.08
228.898	11.18
229.369	8.33
229.839	10.13
230.31	11.98
230.781	11.38
231.252	18.43
231.722	21.43
232.193	28.53
232.664	34.83
233.135	54.18
233.605	56.88
234.076	43.08
234.546	39.13
235.017	47.83
235.487	48.53
235.958	39.53
236.428	60.28
236.899	99.73
237.369	112.78
237.84	82.63
238.31	96.63
238.78	103.83
239.251	98.53
239.721	102.48
240.191	78.03
240.662	47.83
241.132	38.73
241.602	45.78
242.072	67.18
242.542	83.63
243.013	56.48
243.483	52.98
243.953	36.98
244.423	36.78
244.893	46.18
245.363	56.18
245.833	53.08
246.303	61.28
246.773	75.63
247.243	78.13
247.712	87.08
248.182	101.33
248.652	107.28
249.122	159.68
249.592	296.98
250.061	454.88
250.531	722.13
251.001	544.48
251.471	455.73
251.94	341.38
252.41	185.43
252.879	126.88
253.349	98.38
253.818	80.53
254.288	72.73
254.757	70.43
255.227	96.68
255.696	78.23
256.166	70.58
256.635	77.33
257.105	95.43
257.574	119.78
258.043	122.63
258.513	221.58
258.982	283.78
259.451	196.63
259.92	194.68
260.389	185.73
260.859	133.28
261.328	153.63
261.797	226.28
262.266	196.43
262.735	94.53
263.204	56.98
263.673	54.33
264.142	43.88
264.611	51.13
265.08	59.68
265.549	59.18
266.018	49.13
266.487	50.88
266.955	49.88
267.424	59.23
267.893	64.18
268.362	56.83
268.83	56.48
269.299	57.98
269.768	68.03
270.236	83.63
270.705	91.08
271.174	84.08
271.642	95.88
272.111	113.03
272.579	177.23
273.048	274.63
273.516	344.28
273.985	357.13
274.453	268.68
274.922	160.78
275.39	105.73
275.858	94.58
276.327	79.78
276.795	85.88
277.263	92.98
277.731	124.08
278.2	241.68
278.668	316.23
279.136	243.53
279.604	159.53
280.072	97.88
280.54	83.23
281.008	90.18
281.477	90.38
281.945	89.63
282.413	89.63
282.881	93.58
283.348	91.83
283.816	96.63
284.284	105.38
284.752	106.53
285.22	106.08
285.688	114.73
286.156	189.78
286.623	499.13
287.091	982.13
287.559	509.83
288.026	194.33
288.494	129.58
288.962	106.43
289.429	95.33
289.897	97.78
290.364	88.38
290.832	93.38
291.3	96.53
291.767	95.13
292.234	101.33
292.702	108.13
293.169	115.18
293.637	119.38
294.104	114.03
294.571	107.43
295.039	108.18
295.506	105.03
295.973	115.23
296.44	103.13
296.908	118.13
297.375	139.78
297.842	133.58
298.309	115.48
298.776	116.63
299.243	120.13
299.71	116.58
300.177	117.33
300.644	130.78
301.111	138.73
301.578	131.28
302.045	120.23
302.512	119.68
302.979	123.63
303.446	127.38
303.913	130.83
304.379	137.73
304.846	158.58
305.313	173.63
305.78	204.53
306.246	250.63
306.713	263.83
307.18	230.33
307.646	251.58
308.113	216.13
308.579	173.43
309.046	175.28
309.512	171.83
309.979	161.48
310.445	153.03
310.912	162.43
311.378	156.88
311.845	149.93
312.311	149.58
312.777	147.28
313.244	162.38
313.71	167.78
314.176	181.63
314.642	207.78
315.109	243.48
315.575	223.78
316.041	205.48
316.507	189.63
316.973	209.98
317.439	209.23
317.905	230.48
318.371	228.48
318.837	213.38
319.303	230.78
319.769	209.28
320.235	231.18
320.701	267.28
321.167	284.63
321.633	343.88
322.099	470.93
322.564	633.33
323.03	493.53
323.496	345.28
323.962	325.98
324.427	301.38
324.893	268.98
325.359	257.78
325.824	223.83
326.29	239.88
326.755	243.33
327.221	240.73
327.686	254.58
328.152	227.93
328.617	222.98
329.083	221.43
329.548	236.83
330.014	243.38
330.479	264.53
330.944	309.53
331.41	350.18
331.875	335.13
332.34	352.33
332.805	403.43
333.271	509.88
333.736	674.08
334.201	605.93
334.666	452.38
335.131	512.08
335.596	407.83
336.061	428.93
336.526	428.23
336.991	377.43
337.456	411.93
337.921	329.13
338.386	268.63
338.851	246.48
339.316	225.18
339.781	225.83
340.246	225.08
340.711	226.03
341.175	231.58
341.64	241.68
342.105	239.83
342.569	260.13
343.034	272.48
343.499	282.53
343.963	277.58
344.428	269.28
344.893	272.53
345.357	281.88
345.822	272.68
346.286	276.03
346.751	289.73
347.215	288.48
347.679	291.23
348.144	322.83
348.608	316.88
349.073	326.88
349.537	357.93
350.001	356.53
350.465	329.53
350.93	321.63
351.394	317.33
351.858	318.23
352.322	335.23
352.786	336.53
353.25	328.43
353.715	333.28
354.179	353.18
354.643	370.08
355.107	371.33
355.571	393.13
356.035	404.58
356.498	389.38
356.962	413.88
357.426	414.73
357.89	366.73
358.354	353.68
358.818	345.73
359.281	356.93
359.745	372.68
360.209	371.63
360.673	374.18
361.136	374.33
361.6	373.88
362.064	402.78
362.527	411.78
362.991	407.28
363.454	403.28
363.918	412.33
364.381	402.28
364.845	394.43
365.308	386.98
365.772	388.73
366.235	395.48
366.698	419.63
367.162	499.73
367.625	556.18
368.088	452.18
368.552	414.48
369.015	418.33
369.478	449.68
369.941	453.38
370.404	461.48
370.867	494.08
371.331	496.33
371.794	504.68
372.257	558.33
372.72	592.63
373.183	567.73
373.646	570.28
374.109	568.98
374.572	652.63
375.035	767.28
375.497	582.48
375.96	475.88
376.423	462.83
376.886	457.83
377.349	466.03
377.811	475.63
378.274	477.98
378.737	485.83
379.199	504.38
379.662	508.08
380.125	543.28
380.587	594.43
381.05	629.68
381.512	631.23
381.975	610.08
382.437	601.58
382.9	599.18
383.362	604.73
383.825	651.08
384.287	806.88
384.75	892.08
385.212	796.33
385.674	658.73
386.136	605.43
386.599	602.98
387.061	625.83
387.523	647.13
387.985	654.23
388.447	680.23
388.91	753.13
389.372	897.38
389.834	850.63
390.296	711.58
390.758	721.48
391.22	740.43
391.682	905.43
392.144	1391.83
392.606	1303.73
393.068	775.88
393.529	712.98
393.991	692.28
394.453	677.38
394.915	711.38
395.377	861.88
395.838	1055.28
396.3	749.43
396.762	589.88
397.224	568.73
397.685	554.53
398.147	555.13
398.608	573.93
399.07	575.38
399.531	565.18
399.993	579.78
400.454	582.28
400.916	579.48
401.377	600.98
401.839	605.08
402.3	605.13
402.762	634.03
403.223	698.68
403.684	706.43
404.145	652.18
404.607	639.53
405.068	635.43
405.529	658.58
405.99	658.98
406.451	667.18
406.913	646.28
407.374	663.33
407.835	667.18
408.296	684.28
408.757	693.58
409.218	716.43
409.679	715.68
410.14	738.23
410.601	756.43
411.062	793.13
411.522	914.33
411.983	995.58
412.444	855.33
412.905	754.88
413.366	767.88
413.826	787.68
414.287	880.18
414.748	1046.48
415.208	1065.38
415.669	891.58
416.13	816.43
416.59	802.08
417.051	828.83
417.511	869.33
417.972	927.63
418.432	1003.48
418.893	1105.08
419.353	1046.28
419.814	810.33
420.274	725.33
420.734	728.63
421.195	775.68
421.655	803.53
422.115	774.68
422.576	760.03
423.036	759.43
423.496	783.48
423.956	822.28
424.416	875.73
424.876	993.68
425.336	992.73
425.797	973.28
426.257	978.78
426.717	929.43
427.177	860.33
427.637	881.58
428.097	928.68
428.556	972.88
429.016	1053.78
429.476	1052.28
429.936	1015.03
430.396	986.98
430.856	991.23
431.315	1025.98
431.775	1103.13
432.235	1167.33
432.694	1180.08
433.154	1106.93
433.614	1069.98
434.073	1040.73
434.533	949.23
434.993	914.68
435.452	918.63
435.912	904.73
436.371	908.33
436.83	906.33
437.29	911.33
437.749	870.48
438.209	857.88
438.668	873.03
439.127	874.78
439.587	858.93
440.046	829.43
440.505	844.23
440.964	847.18
441.424	866.28
441.883	882.23
442.342	839.28
442.801	809.38
443.26	828.48
443.719	822.93
444.178	813.58
444.637	826.43
445.096	821.73
445.555	846.68
446.014	845.83
446.473	814.18
446.932	817.28
447.391	826.23
447.849	845.98
448.308	835.23
448.767	857.08
449.226	885.48
449.685	879.13
450.143	923.43
450.602	931.58
451.061	882.78
451.519	898.23
451.978	909.53
452.436	941.08
452.895	901.58
453.353	873.33
453.812	883.78
454.27	877.63
454.729	855.33
455.187	863.63
455.646	863.48
456.104	873.33
456.562	863.03
457.021	861.68
457.479	823.63
457.937	849.18
458.395	867.68
458.854	856.63
459.312	843.83
459.77	861.23
460.228	864.13
460.686	880.63
461.144	877.53
461.602	873.78
462.06	874.58
462.518	894.48
462.976	897.48
463.434	896.73
463.892	910.48
464.35	929.18
464.808	941.53
465.266	951.53
465.724	971.83
466.181	970.83
466.639	968.48
467.097	1003.98
467.555	1034.98
468.012	1026.48
468.47	1043.53
468.928	1070.68
469.385	1103.98
469.843	1111.78
470.3	1106.63
470.758	1140.38
471.215	1166.18
471.673	1183.48
472.13	1212.48
472.588	1231.33
473.045	1237.48
473.503	1257.83
473.96	1316.93
474.417	1325.18
474.875	1392.33
475.332	1438.43
475.789	1457.83
476.246	1501.08
476.704	1565.28
477.161	1604.53
477.618	1650.28
478.075	1743.08
478.532	1868.53
478.989	2018.88
479.446	2220.58
479.903	2353.98
480.36	2565.73
480.817	2725.38
481.274	2933.58
481.731	3198.43
482.188	3453.38
482.645	3722.08
483.102	3936.73
483.558	4227.43
484.015	4423.73
484.472	4438.08
484.929	4293.98
485.385	4112.43
485.842	4008.68
486.299	3795.18
486.755	3456.03
487.212	3078.93
487.668	2788.83
488.125	2592.18
488.582	2395.43
489.038	2300.63
489.494	2224.03
489.951	2161.23
490.407	2115.53
490.864	2075.78
491.32	2024.13
491.776	2013.63
492.233	2005.68
492.689	1975.28
493.145	1945.73
493.602	1937.93
494.058	1975.38
494.514	2004.53
494.97	2012.28
495.426	2036.78
495.882	2046.03
496.338	2051.88
496.794	2121.78
497.251	2138.93
497.707	2134.83
498.163	2147.38
498.618	2151.18
499.074	2162.23
499.53	2196.33
499.986	2242.63
500.442	2261.18
500.898	2257.83
501.354	2294.53
501.809	2299.58
502.265	2325.93
502.721	2439.08
503.177	2502.83
503.632	2387.38
504.088	2412.13
504.543	2609.93
504.999	2450.03
505.455	2196.28
505.91	2079.43
506.366	2062.78
506.821	2052.88
507.277	2037.73
507.732	2041.03
508.187	2042.68
508.643	2062.48
509.098	2075.28
509.553	2097.38
510.009	2120.38
510.464	2147.58
510.919	2183.83
511.375	2211.13
511.83	2231.78
512.285	2266.63
512.74	2320.53
513.195	2350.63
513.65	2400.33
514.105	2442.13
514.56	2449.48
515.015	2489.48
515.47	2523.48
515.925	2499.18
516.38	2487.68
516.835	2482.58
517.29	2478.33
517.745	2483.23
518.2	2448.43
518.655	2382.83
519.109	2346.28
519.564	2320.48
520.019	2310.73
520.474	2275.43
520.928	2262.98
521.383	2262.18
521.838	2251.33
522.292	2217.13
522.747	2196.18
523.201	2184.18
523.656	2162.98
524.11	2161.48
524.565	2160.33
525.019	2160.28
525.474	2172.43
525.928	2157.98
526.382	2135.78
526.837	2124.83
527.291	2136.78
527.745	2112.28
528.2	2114.43
528.654	2099.88
529.108	2104.18
529.562	2109.68
530.016	2099.43
530.47	2119.28
530.925	2118.88
531.379	2127.78
531.833	2145.13
532.287	2127.13
532.741	2114.33
533.195	2116.68
533.649	2116.83
534.103	2128.73
534.556	2105.03
535.01	2125.68
535.464	2119.03
535.918	2131.28
536.372	2131.88
536.826	2129.58
537.279	2113.38
537.733	2111.53
538.187	2118.18
538.64	2132.28
539.094	2141.13
539.548	2171.53
540.001	2163.23
540.455	2172.73
540.908	2184.48
541.362	2201.13
541.815	2226.43
542.269	2269.63
542.722	2267.23
543.175	2288.68
543.629	2310.58
544.082	2318.43
544.536	2355.03
544.989	2331.53
545.442	2356.78
545.895	2361.58
546.349	2352.38
546.802	2359.08
547.255	2369.78
547.708	2377.93
548.161	2395.33
548.614	2400.18
549.067	2409.03
549.52	2398.78
549.973	2367.18
550.426	2356.38
550.879	2331.88
551.332	2327.88
551.785	2356.93
552.238	2371.93
552.691	2386.03
553.144	2409.88
553.596	2454.73
554.049	2480.78
554.502	2521.53
554.955	2560.88
555.407	2611.08
555.86	2598.08
556.313	2553.78
556.765	2531.43
557.218	2491.38
557.67	2486.58
558.123	2454.13
558.576	2440.63
559.028	2453.43
559.48	2477.28
559.933	2462.18
560.385	2374.88
560.838	2299.98
561.29	2239.33
561.742	2229.13
562.195	2186.73
562.647	2164.13
563.099	2169.03
563.551	2158.08
564.004	2179.08
564.456	2156.18
564.908	2122.88
565.36	2070.63
565.812	2032.33
566.264	2008.28
566.716	1980.23
567.168	1949.68
567.62	1965.28
568.072	1945.38
568.524	1920.23
568.976	1916.98
569.428	1890.93
569.88	1889.53
570.332	1902.93
570.784	1904.68
571.235	1884.53
571.687	1902.48
572.139	1903.73
572.59	1925.43
573.042	1933.13
573.494	1940.68
573.945	1914.68
574.397	1858.08
574.849	1860.48
575.3	1876.93
575.752	1846.83
576.203	1823.28
576.655	1845.38
577.106	1809.03
577.557	1800.33
578.009	1791.23
578.46	1808.83
578.912	1787.53
579.363	1794.98
579.814	1780.88
580.265	1784.88
580.717	1786.73
581.168	1777.83
581.619	1799.03
582.07	1803.73
582.521	1804.98
582.972	1798.48
583.423	1820.13
583.875	1859.63
584.326	1952.43
584.777	2116.18
585.227	2312.53
585.678	2462.58
586.129	2505.08
586.58	2567.43
587.031	2572.83
587.482	2739.18
587.933	3205.33
588.384	2965.48
588.834	2441.68
589.285	2088.23
589.736	2043.83
590.186	2032.73
590.637	2026.18
591.088	1973.48
591.538	1950.18
591.989	1932.68
592.439	1919.58
592.89	1902.13
593.34	1916.13
593.791	1925.98
594.241	1933.93
594.692	1957.53
595.142	1943.38
595.593	1901.93
596.043	1902.58
596.493	1930.08
596.943	1979.33
597.394	1953.58
597.844	1939.68
598.294	1970.38
598.744	2034.93
599.195	2120.88
599.645	2241.83
600.095	2350.68
600.545	2456.73
600.995	2574.88
601.445	2669.93
601.895	2803.08
602.345	2887.08
602.795	2843.08
603.245	2698.88
603.695	2547.98
604.145	2420.28
604.594	2302.08
605.044	2178.73
605.494	2037.03
605.944	1939.68
606.393	1894.08
606.843	1880.93
607.293	1889.63
607.743	1861.38
608.192	1884.48
608.642	1896.33
609.091	1888.38
609.541	1894.78
609.99	1891.78
610.44	1844.98
610.889	1825.53
611.339	1805.93
611.788	1785.88
612.238	1817.63
612.687	1829.63
613.136	1856.93
613.586	1887.68
614.035	1886.58
614.484	1914.53
614.933	1915.78
615.383	1880.58
615.832	1822.23
616.281	1765.93
616.73	1724.68
617.179	1678.53
617.628	1647.28
618.077	1612.53
618.526	1583.33
618.975	1582.83
619.424	1548.53
619.873	1558.93
620.322	1546.63
620.771	1544.93
621.22	1529.03
621.669	1489.43
622.118	1474.58
622.567	1459.33
623.015	1437.33
623.464	1440.63
623.913	1422.28
624.361	1411.83
624.81	1420.98
625.259	1409.88
625.707	1388.68
626.156	1397.83
626.604	1409.58
627.053	1418.98
627.501	1414.33
627.95	1415.53
628.398	1450.63
628.847	1429.73
629.295	1430.68
629.744	1439.38
630.192	1485.68
630.64	1587.33
631.089	1737.43
631.537	1807.83
631.985	1819.73
632.433	1905.08
632.881	1876.38
633.33	2252.88
633.778	2453.13
634.226	1742.23
634.674	1614.88
635.122	1606.73
635.57	1630.88
636.018	1887.23
636.466	1541.58
636.914	1376.38
637.362	1386.93
637.81	1402.88
638.258	1439.68
638.705	1451.98
639.153	1491.08
639.601	1509.23
640.049	1521.33
640.497	1576.78
640.944	1604.93
641.392	1544.78
641.84	1450.53
642.287	1390.08
642.735	1377.58
643.182	1356.23
643.63	1363.13
644.078	1364.33
644.525	1384.73
644.973	1417.08
645.42	1438.43
645.867	1457.88
646.315	1466.78
646.762	1535.13
647.21	1567.58
647.657	1655.88
648.104	1723.28
648.551	1769.88
648.999	1915.88
649.446	2108.83
649.893	2362.68
650.34	2775.13
650.787	3434.18
651.234	4465.98
651.682	6223.53
652.129	8852.63
652.576	12702.33
653.023	15506.28
653.47	15538.23
653.917	15538.28
654.363	15538.18
654.81	15535.18
655.257	15535.83
655.704	15412.58
656.151	9597.33
656.598	6213.68
657.044	4443.98
657.491	3454.88
657.938	2821.83
658.385	2393.98
658.831	2115.23
659.278	1884.13
659.724	1726.03
660.171	1618.93
660.618	1499.73
661.064	1414.43
661.511	1368.73
661.957	1327.48
662.404	1297.33
662.85	1282.93
663.296	1271.18
663.743	1233.13
664.189	1221.03
664.635	1218.78
665.082	1199.83
665.528	1184.43
665.974	1156.13
666.42	1144.33
666.867	1161.23
667.313	1164.93
667.759	1213.03
668.205	1213.03
668.651	1221.68
669.097	1194.13
669.543	1294.28
669.989	1229.58
670.435	1091.33
670.881	1072.68
671.327	1119.38
671.773	1202.38
672.219	1281.43
672.665	1365.03
673.11	1408.53
673.556	1420.63
674.002	1467.28
674.448	1477.68
674.893	1251.33
675.339	1100.03
675.785	1006.33
676.23	961.53
676.676	925.48
677.122	902.93
677.567	882.78
678.013	852.53
678.458	847.98
678.904	846.33
679.349	838.23
679.794	835.08
680.24	830.43
680.685	819.13
681.131	825.83
681.576	831.03
682.021	835.33
682.466	840.33
682.912	845.68
683.357	892.18
683.802	970.88
684.247	1057.53
684.692	1124.38
685.137	1172.68
685.583	1183.58
686.028	1253.78
686.473	1182.33
686.918	1019.53
687.363	931.38
687.807	892.98
688.252	850.98
688.697	819.98
689.142	796.83
689.587	796.38
690.032	812.93
690.477	852.73
690.921	887.13
691.366	933.23
691.811	969.08
692.255	1053.83
692.7	1288.18
693.145	1865.13
693.589	2831.63
694.034	3364.93
694.478	3563.13
694.923	3240.33
695.367	4616.93
695.812	2784.43
696.256	1187.88
696.701	871.28
697.145	814.73
697.59	782.43
698.034	770.68
698.478	777.23
698.922	783.18
699.367	797.13
699.811	841.33
700.255	915.88
700.699	986.03
701.143	1069.13
701.588	1129.83
702.032	1178.73
702.476	1211.38
702.92	1282.88
703.364	1696.78
703.808	2604.73
704.252	3233.03
704.696	3383.28
705.14	3171.18
705.584	4370.88
706.027	2423.18
706.471	1215.98
706.915	914.03
707.359	810.58
707.803	763.23
708.246	736.83
708.69	733.48
709.134	726.53
709.577	722.33
710.021	730.28
710.465	732.83
710.908	724.38
711.352	760.68
711.795	847.08
712.239	904.68
712.682	934.73
713.126	919.38
713.569	1015.08
714.012	842.68
714.456	740.03
714.899	691.43
715.342	655.28
715.786	626.88
716.229	610.18
716.672	593.18
717.115	596.93
717.558	603.43
718.002	626.38
718.445	646.03
718.888	683.68
719.331	693.68
719.774	708.18
720.217	688.63
720.66	652.78
721.103	618.18
721.546	585.53
721.989	576.93
722.432	565.78
722.874	566.43
723.317	576.58
723.76	624.88
724.203	772.33
724.645	1020.33
725.088	1199.98
725.531	1169.23
725.974	1281.13
726.416	1144.63
726.859	719.33
727.301	586.73
727.744	556.88
728.187	561.88
728.629	574.08
729.071	594.18
729.514	625.03
729.956	648.13
730.399	653.78
730.841	654.08
731.283	635.78
731.726	616.63
732.168	638.33
732.61	660.43
733.053	724.88
733.495	800.18
733.937	884.53
734.379	1041.08
734.821	1329.08
735.263	2135.28
735.705	3847.78
736.148	5607.48
736.59	5544.18
737.032	5989.13
737.474	4915.93
737.916	1888.48
738.357	1004.58
738.799	772.08
739.241	716.03
739.683	717.13
740.125	730.18
740.567	727.98
741.008	766.73
741.45	800.18
741.892	828.98
742.334	815.83
742.775	821.23
743.217	775.33
743.658	667.78
744.1	680.28
744.542	766.28
744.983	791.03
745.425	819.98
745.866	818.53
746.307	726.78
746.749	785.38
747.19	1152.58
747.632	2265.03
748.073	4202.53
748.514	5750.33
748.956	7589.18
749.397	8838.03
749.838	6092.73
750.279	5781.48
750.72	2979.23
751.162	1264.58
751.603	726.78
752.044	580.38
752.485	511.58
752.926	489.78
753.367	472.53
753.808	455.98
754.249	450.43
754.69	443.88
755.131	429.53
755.572	435.78
756.013	435.83
756.453	442.78
756.894	448.28
757.335	446.83
757.776	456.13
758.216	466.13
758.657	504.73
759.098	556.53
759.538	671.68
759.979	976.18
760.42	1994.08
760.86	5123.03
761.301	10429.68
761.741	12062.13
762.182	13746.48
762.622	8895.38
763.063	3227.58
763.503	1415.28
763.943	1053.98
764.384	1108.23
764.824	1056.43
765.264	1041.83
765.705	752.68
766.145	550.18
766.585	490.53
767.025	517.43
767.465	667.83
767.906	803.38
768.346	836.88
768.786	871.88
769.226	919.43
769.666	1613.03
770.106	3534.03
770.546	4923.03
770.986	5498.58
771.426	4147.98
771.866	1740.78
772.306	796.33
772.745	499.78
773.185	436.08
773.625	430.28
774.065	508.98
774.505	825.98
774.944	1655.68
775.384	2470.33
775.824	2799.88
776.263	2279.93
776.703	1130.03
777.142	577.93
777.582	397.18
778.021	355.23
778.461	335.73
778.9	331.28
779.34	303.03
779.779	288.53
780.219	285.03
780.658	279.08
781.097	269.23
781.537	264.63
781.976	270.53
782.415	264.98
782.855	259.83
783.294	261.98
783.733	257.48
784.172	261.18
784.611	258.93
785.05	268.48
785.489	268.08
785.928	279.98
786.367	283.63
786.806	303.58
787.245	330.73
787.684	336.23
788.123	329.03
788.562	319.43
789.001	304.18
789.44	297.78
789.879	295.33
790.317	301.98
790.756	317.93
791.195	364.73
791.634	498.48
792.072	913.53
792.511	2234.33
792.95	4090.78
793.388	4861.03
793.827	3140.23
794.265	1437.88
794.704	690.48
795.142	421.03
795.581	348.08
796.019	319.53
796.458	313.78
796.896	318.48
797.334	369.93
797.773	505.23
798.211	980.28
798.649	2031.13
799.087	3410.28
799.526	4781.43
799.964	4897.33
800.402	3306.53
800.84	1518.98
801.278	736.08
801.716	446.78
802.154	369.23
802.592	345.13
803.03	348.28
803.468	354.88
803.906	356.38
804.344	350.98
804.782	339.63
805.22	346.43
805.658	356.18
806.096	376.33
806.533	419.93
806.971	544.13
807.409	786.68
807.847	1592.33
808.284	4071.23
808.722	7052.58
809.16	9865.83
809.597	13361.78
810.035	15519.43
810.472	10556.03
810.91	4511.33
811.347	2026.93
811.785	946.08
812.222	596.48
812.66	461.58
813.097	391.33
813.535	341.38
813.972	302.88
814.409	280.43
814.846	270.63
815.284	258.48
815.721	260.83
816.158	281.78
816.595	362.18
817.032	440.53
817.47	401.93
817.907	312.18
818.344	283.18
818.781	264.58
819.218	314.63
819.655	453.13
820.092	571.98
820.529	529.53
820.966	439.38
821.403	326.33
821.839	276.38
822.276	303.38
822.713	347.53
823.15	330.58
823.587	365.43
824.023	665.23
824.46	1666.33
824.897	2871.68
825.333	2200.33
825.77	1009.48
826.206	534.98
826.643	309.38
827.08	231.28
827.516	203.03
827.953	195.13
828.389	185.23
828.825	172.03
829.262	165.28
829.698	159.68
830.135	154.68
830.571	152.58
831.007	156.48
831.443	156.13
831.88	160.83
832.316	167.88
832.752	163.58
833.188	160.68
833.624	169.58
834.06	169.28
834.497	166.83
834.933	167.53
835.369	187.63
835.805	195.93
836.241	206.88
836.677	226.53
837.112	261.03
837.548	324.73
837.984	480.58
838.42	1053.38
838.856	2918.53
839.292	5720.93
839.727	4159.13
840.163	2850.93
840.599	4359.83
841.034	6587.78
841.47	3250.23
841.906	1602.83
842.341	898.43
842.777	769.23
843.212	902.83
843.648	533.78
844.083	335.93
844.519	234.68
844.954	186.28
845.39	165.53
845.825	155.43
846.261	147.43
846.696	139.18
847.131	134.53
847.566	139.38
848.002	142.48
848.437	146.48
848.872	155.73
849.307	197.73
849.742	363.88
850.177	951.23
850.613	2017.68
851.048	1420.33
851.483	651.58
851.918	362.28
852.353	213.63
852.788	169.38
853.223	141.38
853.657	121.58
854.092	122.93
854.527	115.48
854.962	112.98
855.397	131.78
855.832	113.58
856.266	102.88
856.701	100.48
857.136	107.18
857.57	119.18
858.005	146.78
858.44	125.18
858.874	126.83
859.309	127.43
859.743	122.08
860.178	124.03
860.612	132.43
861.047	165.18
861.481	212.88
861.915	152.63
862.35	121.33
862.784	104.83
863.218	95.03
863.653	101.78
864.087	127.68
864.521	166.43
864.955	283.23
865.39	471.08
865.824	336.78
866.258	392.78
866.692	553.43
867.126	402.68
867.56	219.68
867.994	148.43
868.428	128.53
868.862	152.23
869.296	142.93
869.73	173.93
870.164	149.68
870.598	134.48
871.031	100.78
871.465	88.63
871.899	76.53
872.333	69.08
872.766	74.88
873.2	75.98
873.634	72.78
874.067	79.93
874.501	80.58
874.935	75.03
875.368	75.78
875.802	73.53
876.235	68.18
876.669	63.38
877.102	57.23
877.535	62.98
877.969	59.68
878.402	60.53
878.836	57.03
879.269	56.78
879.702	63.13
880.135	62.68
880.569	66.93
881.002	62.28
881.435	58.63
881.868	60.38
882.301	55.58
882.734	55.28
883.167	60.28
883.601	52.03
884.034	54.88
884.467	49.53
884.899	53.53
885.332	46.08
885.765	48.83
886.198	47.63
886.631	47.63
887.064	48.08
887.497	42.58
887.929	47.28
888.362	44.73
888.795	48.43
889.228	50.23
889.66	49.03
890.093	43.53
890.526	47.58
890.958	43.73
891.391	50.83
891.823	41.13
892.256	47.78
892.688	45.53
893.121	37.68
893.553	44.53
893.985	40.63
894.418	39.08
894.85	47.38
895.282	40.98
895.715	46.53
896.147	37.23
896.579	38.33
897.011	43.18
897.444	48.18
897.876	37.68
898.308	38.83
898.74	41.18
899.172	46.48
899.604	47.98
900.036	42.63
900.468	40.33
900.9	48.23
901.332	55.53
901.764	52.43
902.196	48.73
902.628	48.23
903.06	74.33
903.491	72.13
903.923	62.93
904.355	64.78
904.787	70.28
905.218	58.53
905.65	56.98
906.082	49.13
906.513	50.68
906.945	52.13
907.376	52.38
907.808	56.58
908.239	61.18
908.671	64.13
909.102	67.83
909.534	99.53
909.965	183.83
910.397	470.13
910.828	1331.03
911.259	803.23
911.691	441.98
912.122	254.08
912.553	131.38
912.984	72.78
913.415	65.08
913.847	55.83
914.278	55.53
914.709	44.28
915.14	42.98
915.571	47.23
916.002	40.58
916.433	38.28
916.864	40.13
917.295	42.93
917.726	48.43
918.157	66.63
918.587	60.83
919.018	58.78
919.449	58.08
919.88	66.48
920.311	101.13
920.741	285.98
921.172	496.38
921.603	245.58
922.033	156.83
922.464	102.83
922.895	69.88
923.325	49.23
923.756	45.98
924.186	63.28
924.617	107.53
925.047	167.28
925.478	149.18
925.908	108.43
926.338	74.53
926.769	54.73
927.199	47.38
927.629	43.28
928.06	39.93
928.49	40.08
928.92	37.73
929.35	28.03
929.78	24.93
930.21	25.83
930.641	24.78
931.071	26.98
931.501	21.68
931.931	19.03
932.361	19.88
932.791	24.88
933.221	24.98
933.651	37.33
934.08	59.28
934.51	35.78
934.94	31.18
935.37	26.33
935.8	20.73
936.229	19.48
936.659	19.28
937.089	32.28
937.519	43.58
937.948	63.13
938.378	39.23
938.807	24.33
939.237	19.48
939.666	20.48
940.096	13.28
940.525	6.78
940.955	13.98
941.384	12.08
941.814	11.93
942.243	11.58
942.672	7.93
943.102	8.83
943.531	7.43
943.96	6.43
944.39	13.48
944.819	10.73
945.248	11.88
945.677	9.48
946.106	12.93
946.535	14.38
946.964	8.53
947.393	11.68
947.822	9.73
948.251	12.08
948.68	13.98
949.109	9.78
949.538	10.03
949.967	13.88
950.396	11.73
950.825	10.88
951.254	9.53
951.682	8.18
952.111	3.78
952.54	4.58
952.969	4.78
953.397	0.78
953.826	7.03
954.254	8.93
954.683	11.93
955.112	6.88
955.54	5.28
955.969	9.73
956.397	7.83
956.826	5.88
957.254	4.33
957.682	7.93
958.111	9.28
958.539	10.88
958.967	7.88
959.396	8.43
959.824	8.73
960.252	11.13
960.68	10.68
961.109	9.13
961.537	13.78
961.965	6.03
962.393	12.03
962.821	8.18
963.249	10.68
963.677	18.78
964.105	83.78
964.533	142.18
964.961	69.88
965.389	39.98
965.817	24.33
966.245	8.68
966.672	7.53
967.1	5.48
967.528	4.43
967.956	6.68
968.383	6.78
968.811	5.78
969.239	8.23
969.666	6.88
970.094	6.08
970.522	-1.47
970.949	2.23
971.377	0.13
971.804	3.53
972.232	1.73
972.659	2.63
973.087	6.93
973.514	2.73
973.941	0.83
974.369	0.38
974.796	2.88
975.223	2.58
975.651	6.43
976.078	8.33
976.505	11.38
976.932	38.38
977.359	43.93
977.786	25.23
978.214	18.58
978.641	6.28
979.068	2.53
979.495	6.23
979.922	5.58
980.349	9.68
980.776	5.98
981.202	-0.72
981.629	6.28
982.056	2.28
982.483	0.13
982.91	6.93
983.337	0.03
983.763	0.18
984.19	2.08
984.617	-1.37
985.043	4.43
985.47	7.38
985.897	5.68
986.323	8.48
986.75	4.13
987.176	1.78
987.603	3.08
988.029	3.03
988.456	5.08
988.882	0.58
989.308	-1.77
989.735	0.73
990.161	1.83
990.587	4.23
991.014	0.98
991.44	0.03
991.866	6.58
992.292	3.68
992.719	0.38
993.145	7.93
993.571	6.38
993.997	3.13
994.423	4.13
994.849	-3.97
995.275	3.38
995.701	1.68
996.127	1.33
996.553	1.93
996.979	-1.37
997.405	1.98
997.83	0.78
998.256	3.83
998.682	3.08
999.108	4.83
999.534	-8.07
999.959	-1.42
1000.385	5.38
1000.811	0.63
1001.236	-0.92
1001.662	-0.67
1002.087	4.08
1002.513	-0.82
1002.938	0.68
1003.364	3.63
1003.789	3.73
1004.215	0.98
1004.64	3.18
1005.066	3.28
1005.491	5.73
1005.916	4.48
1006.342	2.98
1006.767	4.13
1007.192	6.83
1007.617	3.93
1008.042	-0.37
1008.468	4.08
1008.893	3.23
1009.318	10.43
1009.743	13.33
1010.168	24.88
1010.593	20.98
1011.018	13.83
1011.443	3.03
1011.868	6.13
1012.293	5.88
1012.718	-1.17
1013.143	1.83
1013.567	8.23
1013.992	1.53
1014.417	2.68
1014.842	-1.62
1015.267	-0.97
1015.691	2.63
1016.116	1.28
1016.541	3.63
1016.965	2.48
1017.39	3.03
1017.814	-2.32
1018.239	-2.37
1018.663	-3.27
1019.088	-3.97
1019.512	5.98
1019.937	-3.32
1020.361	-0.12
1020.785	2.48
1021.21	-3.07
1021.634	1.88
1022.058	2.98
1022.483	-2.27
1022.907	-3.42
1023.331	-2.17
1023.755	-2.57
1024.179	-0.62
1024.604	-1.52
1025.028	3.08
1025.452	0.58
1025.876	4.53
1026.3	-1.32
1026.724	-5.32
1027.148	1.93
1027.572	-2.02
1027.996	3.23
1028.42	0.03
1028.843	-1.92
1029.267	-4.97
1029.691	0.18
1030.115	-1.52
1030.539	-1.97
1030.962	-1.27
1031.386	1.38
1031.81	0.03
1032.233	-3.22
1032.657	-6.07
1033.08	4.38
1033.504	2.78
1033.927	-0.92
1034.351	-4.12
1034.774	-0.97
1035.198	-3.37
1035.621	-0.12
1036.045	-2.52
1036.468	2.18
1036.891	0.63
1037.315	3.73
1037.738	-4.17
1038.161	2.33
1038.584	-2.42
1039.008	0.48
1039.431	-3.82
1039.854	-2.07
1040.277	1.78
1040.7	-0.77
1041.123	1.88
1041.546	-1.92
1041.969	-2.12
1042.392	-0.97
1042.815	-7.17
1043.238	-4.62
1043.661	1.23
1044.084	-2.32
1044.507	0.88
1044.93	-3.02
1045.352	-0.47
1045.775	-0.32
1046.198	1.23
1046.621	2.63
1047.043	0.58
1047.466	0.03
1047.889	-3.27
1048.311	1.38
1048.734	-2.17
1049.156	-0.07
1049.579	-3.87
1050.001	-3.42
1050.424	-3.97
1050.846	-7.17
1051.269	-5.97
1051.691	-9.62
1052.113	-1.07
1052.536	-1.87
1052.958	-2.32
1053.38	1.88
1053.802	-3.02
1054.225	-1.32
1054.647	2.93
1055.069	-1.12
1055.491	-2.87
1055.913	1.98
1056.335	-7.97
1056.757	-2.72
1057.179	-4.72
1057.601	-6.22
1058.023	-2.32
1058.445	-6.77
1058.867	-0.92
1059.289	2.03
1059.711	-4.57
1060.133	-2.42
1060.555	-2.27
1060.976	0.03
1061.398	-0.22
1061.82	3.73
1062.241	-4.97
1062.663	0.78
1063.085	-3.37
1063.506	-4.42
1063.928	-3.97
1064.35	1.18
1064.771	-2.47
1065.193	-3.77
1065.614	-0.02
1066.035	-0.32
1066.457	5.98
1066.878	-2.07
1067.3	-4.52
1067.721	-1.67
1068.142	-1.72
1068.564	1.38
1068.985	-2.52
1069.406	-5.02
1069.827	-3.12
1070.248	-6.42
1070.67	-5.57
1071.091	-3.12
1071.512	-6.57
1071.933	-2.52
1072.354	-4.67
1072.775	-3.27
1073.196	-1.27
1073.617	-4.62
1074.038	-0.22
1074.459	-6.02
1074.88	-2.52
1075.3	-4.72
1075.721	-4.27
1076.142	-3.97
1076.563	-7.07
1076.983	-0.27
1077.404	-6.82
1077.825	-0.92
1078.246	-9.57
1078.666	-2.92
1079.087	-4.67
1079.507	-3.27
1079.928	0.98
1080.348	-2.82
1080.769	-2.57
1081.189	-4.87
1081.61	0.73
1082.03	1.43
1082.451	-1.47
1082.871	-6.82
1083.291	-0.12
1083.711	-1.87
1084.132	-2.92
1084.552	-7.97
1084.972	-9.67
1085.392	-6.42
1085.813	0.13
1086.233	-3.12
1086.653	0.08
1087.073	-4.97
1087.493	-3.32
1087.913	-7.97
1088.333	-4.42
1088.753	-3.97
1089.173	0.28
1089.593	-4.22
1090.013	-4.77
1090.433	-6.97
1090.852	1.33
1091.272	-8.47
1091.692	-0.72
1092.112	-6.47
1092.531	-5.42
1092.951	-5.27
1093.371	-4.92
1093.79	-1.72
1094.21	-1.37
1094.63	-2.87
1095.049	-3.17
1095.469	-7.77
1095.888	-1.82
1096.308	3.03
1096.727	-0.77
1097.146	-4.37
1097.566	0.93
1097.985	-2.12
1098.405	-0.47
1098.824	-1.32
1099.243	-7.12
1099.662	-0.97
1100.082	-6.72
1100.501	-2.82
1100.92	2.48
1101.339	-2.87
1101.758	-0.42
