Data from MSPlasma+Separation6_Subt14_10-14-45-355.txt Node
Date: Fri Jul 21 10:14:45 EDT 2017
User: Ender
Spectrometer: HR+D1039
Trigger mode: 0
Integration Time (sec): 6.430000E-3
Scans to average: 20
Electric dark correction enabled: true
Nonlinearity correction enabled: false
Boxcar width: 0
XAxis mode: Wavelengths
Number of Pixels in Spectrum: 2048
>>>>>Begin Spectral Data<<<<<
187.836	-0.07
188.309	-0.07
188.782	-0.07
189.255	2.68
189.728	1.43
190.201	-5.22
190.674	-0.57
191.147	-0.82
191.619	-1.67
192.092	0.38
192.565	-1.27
193.038	-0.12
193.511	5.73
193.984	-1.37
194.456	-0.67
194.929	0.23
195.402	-3.27
195.874	4.68
196.347	3.18
196.82	1.33
197.292	-3.22
197.765	-1.67
198.237	-2.42
198.71	-3.72
199.182	-0.72
199.655	5.83
200.127	0.28
200.6	0.68
201.072	3.23
201.544	3.13
202.017	2.28
202.489	-0.87
202.961	3.58
203.433	-5.67
203.906	1.28
204.378	2.83
204.85	0.58
205.322	3.03
205.794	7.93
206.266	6.83
206.739	6.78
207.211	5.18
207.683	3.83
208.155	3.63
208.627	4.18
209.099	-1.92
209.57	3.73
210.042	4.88
210.514	7.38
210.986	20.13
211.458	29.68
211.93	16.08
212.402	8.53
212.873	1.63
213.345	-2.82
213.817	4.63
214.288	-0.17
214.76	2.93
215.232	0.83
215.703	6.48
216.175	6.93
216.646	6.63
217.118	4.28
217.589	0.03
218.061	3.88
218.532	1.18
219.004	11.13
219.475	20.43
219.946	36.58
220.418	45.93
220.889	28.93
221.36	18.83
221.832	6.88
222.303	8.58
222.774	4.83
223.245	6.23
223.717	4.58
224.188	6.98
224.659	6.73
225.13	5.43
225.601	7.48
226.072	8.58
226.543	13.23
227.014	9.73
227.485	15.58
227.956	14.73
228.427	16.23
228.898	13.23
229.369	16.68
229.839	15.13
230.31	18.73
230.781	18.98
231.252	25.23
231.722	31.03
232.193	47.83
232.664	53.63
233.135	73.08
233.605	80.13
234.076	59.83
234.546	48.98
235.017	63.58
235.487	54.38
235.958	57.18
236.428	79.88
236.899	135.68
237.369	152.18
237.84	105.48
238.31	134.53
238.78	142.03
239.251	142.58
239.721	143.63
240.191	105.63
240.662	62.33
241.132	50.23
241.602	61.68
242.072	95.58
242.542	109.88
243.013	75.53
243.483	70.53
243.953	49.08
244.423	48.73
244.893	62.03
245.363	71.78
245.833	63.83
246.303	72.93
246.773	97.13
247.243	100.53
247.712	114.63
248.182	129.68
248.652	142.38
249.122	206.43
249.592	393.98
250.061	594.63
250.531	958.62
251.001	718.93
251.471	602.38
251.94	454.58
252.41	248.78
252.879	169.23
253.349	123.33
253.818	103.68
254.288	89.83
254.757	90.18
255.227	118.13
255.696	95.58
256.166	84.23
256.635	91.78
257.105	119.13
257.574	156.93
258.043	157.28
258.513	286.33
258.982	371.18
259.451	250.08
259.92	255.58
260.389	236.63
260.859	169.83
261.328	196.23
261.797	290.58
262.266	253.83
262.735	117.43
263.204	69.98
263.673	65.48
264.142	55.23
264.611	56.18
265.08	63.48
265.549	64.03
266.018	59.43
266.487	58.68
266.955	56.83
267.424	64.73
267.893	73.23
268.362	67.48
268.83	62.83
269.299	65.38
269.768	78.18
270.236	99.68
270.705	105.68
271.174	104.13
271.642	118.58
272.111	131.93
272.579	219.93
273.048	340.73
273.516	437.98
273.985	444.53
274.453	337.33
274.922	200.68
275.39	125.58
275.858	112.83
276.327	93.33
276.795	98.43
277.263	112.58
277.731	153.23
278.2	314.98
278.668	425.98
279.136	319.83
279.604	195.53
280.072	114.18
280.54	93.53
281.008	97.48
281.477	98.88
281.945	98.58
282.413	103.68
282.881	102.98
283.348	102.63
283.816	110.68
284.284	121.78
284.752	108.88
285.22	109.38
285.688	125.43
286.156	212.73
286.623	598.68
287.091	1203.78
287.559	623.53
288.026	230.18
288.494	139.23
288.962	117.78
289.429	108.78
289.897	104.88
290.364	91.43
290.832	96.28
291.3	102.73
291.767	105.63
292.234	109.93
292.702	114.88
293.169	125.33
293.637	132.63
294.104	123.63
294.571	115.03
295.039	118.98
295.506	116.33
295.973	123.68
296.44	120.13
296.908	124.53
297.375	153.28
297.842	150.18
298.309	128.93
298.776	126.23
299.243	133.33
299.71	123.83
300.177	122.48
300.644	142.48
301.111	157.73
301.578	137.08
302.045	129.38
302.512	125.88
302.979	129.63
303.446	133.73
303.913	146.63
304.379	149.43
304.846	169.08
305.313	183.23
305.78	224.08
306.246	270.73
306.713	289.03
307.18	251.73
307.646	277.83
308.113	241.48
308.579	184.93
309.046	186.73
309.512	183.63
309.979	166.73
310.445	161.43
310.912	162.98
311.378	164.43
311.845	163.83
312.311	160.13
312.777	154.93
313.244	167.73
313.71	172.68
314.176	197.93
314.642	221.68
315.109	259.88
315.575	243.58
316.041	221.13
316.507	203.73
316.973	235.33
317.439	224.08
317.905	249.23
318.371	241.83
318.837	231.13
319.303	245.88
319.769	224.68
320.235	248.38
320.701	291.18
321.167	309.73
321.633	376.23
322.099	535.68
322.564	714.83
323.03	554.23
323.496	384.23
323.962	363.23
324.427	335.28
324.893	289.28
325.359	278.58
325.824	239.33
326.29	254.33
326.755	259.93
327.221	255.88
327.686	265.33
328.152	239.88
328.617	228.68
329.083	231.58
329.548	247.28
330.014	254.73
330.479	275.13
330.944	325.83
331.41	377.33
331.875	363.58
332.34	373.28
332.805	434.43
333.271	564.28
333.736	758.83
334.201	684.83
334.666	494.58
335.131	567.83
335.596	444.78
336.061	470.23
336.526	484.38
336.991	413.38
337.456	453.48
337.921	355.98
338.386	288.28
338.851	260.23
339.316	241.08
339.781	229.83
340.246	237.33
340.711	237.48
341.175	241.68
341.64	245.13
342.105	251.18
342.569	271.88
343.034	288.63
343.499	296.13
343.963	285.73
344.428	279.28
344.893	282.18
345.357	292.93
345.822	281.98
346.286	289.18
346.751	304.78
347.215	298.68
347.679	310.73
348.144	327.83
348.608	323.43
349.073	345.53
349.537	379.68
350.001	375.08
350.465	345.88
350.93	330.88
351.394	332.73
351.858	331.18
352.322	349.53
352.786	343.23
353.25	339.68
353.715	336.88
354.179	361.98
354.643	381.88
355.107	393.33
355.571	415.88
356.035	424.63
356.498	407.03
356.962	444.33
357.426	436.53
357.89	388.18
358.354	359.33
358.818	357.98
359.281	372.68
359.745	394.73
360.209	390.18
360.673	396.23
361.136	397.08
361.6	394.38
362.064	417.13
362.527	425.68
362.991	423.43
363.454	420.88
363.918	430.38
364.381	421.08
364.845	402.03
365.308	402.58
365.772	403.73
366.235	403.38
366.698	434.38
367.162	529.18
367.625	603.08
368.088	473.88
368.552	429.53
369.015	436.33
369.478	464.03
369.941	473.63
370.404	482.08
370.867	523.23
371.331	525.18
371.794	536.88
372.257	609.83
372.72	647.08
373.183	607.43
373.646	619.28
374.109	620.98
374.572	712.78
375.035	845.23
375.497	633.63
375.96	501.83
376.423	471.63
376.886	468.63
377.349	479.43
377.811	490.43
378.274	498.33
378.737	505.08
379.199	517.88
379.662	532.33
380.125	572.68
380.587	636.33
381.05	678.58
381.512	682.58
381.975	651.93
382.437	642.88
382.9	642.73
383.362	642.43
383.825	690.58
384.287	879.63
384.75	991.48
385.212	866.98
385.674	705.68
386.136	636.18
386.599	629.38
387.061	657.83
387.523	688.18
387.985	690.93
388.447	711.63
388.91	811.08
389.372	999.53
389.834	939.88
390.296	755.88
390.758	771.63
391.22	793.93
391.682	987.03
392.144	1592.23
392.606	1484.53
393.068	837.33
393.529	746.03
393.991	729.78
394.453	713.83
394.915	759.63
395.377	952.53
395.838	1179.78
396.3	814.18
396.762	610.98
397.224	574.78
397.685	569.53
398.147	572.78
398.608	580.33
399.07	588.83
399.531	573.53
399.993	588.28
400.454	598.38
400.916	584.38
401.377	607.83
401.839	618.13
402.3	617.03
402.762	646.68
403.223	715.83
403.684	730.43
404.145	660.53
404.607	646.73
405.068	651.98
405.529	670.23
405.99	675.43
406.451	685.08
406.913	666.48
407.374	671.53
407.835	678.13
408.296	708.98
408.757	716.48
409.218	728.83
409.679	741.28
410.14	743.88
410.601	778.38
411.062	813.13
411.522	957.13
411.983	1057.33
412.444	890.93
412.905	762.33
413.366	768.63
413.826	784.43
414.287	890.08
414.748	1044.92
415.208	1068.73
415.669	884.98
416.13	817.88
416.59	792.58
417.051	821.28
417.511	864.73
417.972	928.88
418.432	999.08
418.893	1118.78
419.353	1059.62
419.814	816.53
420.274	733.33
420.734	728.93
421.195	783.48
421.655	820.53
422.115	781.88
422.576	753.43
423.036	753.73
423.496	780.48
423.956	825.68
424.416	874.23
424.876	997.48
425.336	997.33
425.797	994.73
426.257	996.53
426.717	928.23
427.177	880.23
427.637	904.73
428.097	954.73
428.556	995.78
429.016	1084.23
429.476	1079.98
429.936	1043.83
430.396	1014.78
430.856	1024.33
431.315	1057.33
431.775	1134.48
432.235	1195.53
432.694	1214.38
433.154	1148.98
433.614	1106.72
434.073	1066.23
434.533	966.43
434.993	937.73
435.452	944.12
435.912	927.58
436.371	919.78
436.83	922.88
437.29	939.27
437.749	887.48
438.209	864.78
438.668	883.13
439.127	886.28
439.587	868.98
440.046	822.43
440.505	840.73
440.964	851.58
441.424	869.28
441.883	884.53
442.342	832.58
442.801	808.48
443.26	833.48
443.719	822.38
444.178	817.58
444.637	823.63
445.096	832.03
445.555	839.98
446.014	839.88
446.473	818.13
446.932	823.08
447.391	826.28
447.849	848.33
448.308	840.18
448.767	854.38
449.226	884.68
449.685	887.08
450.143	918.68
450.602	919.48
451.061	884.98
451.519	895.73
451.978	927.33
452.436	958.48
452.895	907.73
453.353	875.98
453.812	896.33
454.27	888.43
454.729	846.53
455.187	854.83
455.646	862.78
456.104	873.68
456.562	860.08
457.021	851.23
457.479	817.08
457.937	837.18
458.395	863.38
458.854	851.68
459.312	843.33
459.77	851.08
460.228	863.28
460.686	882.93
461.144	879.78
461.602	860.23
462.06	859.08
462.518	893.53
462.976	891.23
463.434	898.73
463.892	912.58
464.35	918.58
464.808	936.03
465.266	946.58
465.724	953.03
466.181	963.73
466.639	959.52
467.097	1003.08
467.555	1028.18
468.012	1025.28
468.47	1032.28
468.928	1061.22
469.385	1087.88
469.843	1098.68
470.3	1094.13
470.758	1130.53
471.215	1149.28
471.673	1176.28
472.13	1212.33
472.588	1226.38
473.045	1229.98
473.503	1251.98
473.96	1307.18
474.417	1333.68
474.875	1391.83
475.332	1435.83
475.789	1462.13
476.246	1490.48
476.704	1563.83
477.161	1611.58
477.618	1657.33
478.075	1744.28
478.532	1900.63
478.989	2049.07
479.446	2267.48
479.903	2405.58
480.36	2651.48
480.817	2849.07
481.274	3053.03
481.731	3360.53
482.188	3634.68
482.645	3952.48
483.102	4207.07
483.558	4531.27
484.015	4780.02
484.472	4785.82
484.929	4655.82
485.385	4437.22
485.842	4317.47
486.299	4094.43
486.755	3660.48
487.212	3256.38
487.668	2912.08
488.125	2686.53
488.582	2471.38
489.038	2366.48
489.494	2272.73
489.951	2191.88
490.407	2148.12
490.864	2110.62
491.32	2057.63
491.776	2010.33
492.233	2007.68
492.689	1984.03
493.145	1955.18
493.602	1940.83
494.058	1985.58
494.514	2012.18
494.97	2027.58
495.426	2039.38
495.882	2048.68
496.338	2062.03
496.794	2154.28
497.251	2176.83
497.707	2168.57
498.163	2159.32
498.618	2159.53
499.074	2182.18
499.53	2227.28
499.986	2261.88
500.442	2280.68
500.898	2296.53
501.354	2332.48
501.809	2347.93
502.265	2375.12
502.721	2511.88
503.177	2584.98
503.632	2443.18
504.088	2451.48
504.543	2705.28
504.999	2519.13
505.455	2195.03
505.91	2081.53
506.366	2058.53
506.821	2040.03
507.277	2031.33
507.732	2029.43
508.187	2024.93
508.643	2047.48
509.098	2046.93
509.553	2060.08
510.009	2099.33
510.464	2141.08
510.919	2157.28
511.375	2180.68
511.83	2199.12
512.285	2248.98
512.74	2308.23
513.195	2333.53
513.65	2373.43
514.105	2409.68
514.56	2430.33
515.015	2476.93
515.47	2508.38
515.925	2500.43
516.38	2489.93
516.835	2474.33
517.29	2477.98
517.745	2495.63
518.2	2443.43
518.655	2374.53
519.109	2340.53
519.564	2306.23
520.019	2304.88
520.474	2261.58
520.928	2254.03
521.383	2256.98
521.838	2245.93
522.292	2205.98
522.747	2179.53
523.201	2178.58
523.656	2154.62
524.11	2138.13
524.565	2144.88
525.019	2159.28
525.474	2168.73
525.928	2159.28
526.382	2139.83
526.837	2111.93
527.291	2112.68
527.745	2101.23
528.2	2094.12
528.654	2084.78
529.108	2090.68
529.562	2097.08
530.016	2093.73
530.47	2094.83
530.925	2104.12
531.379	2119.88
531.833	2126.43
532.287	2117.57
532.741	2116.23
533.195	2104.68
533.649	2099.48
534.103	2100.18
534.556	2093.68
535.01	2110.58
535.464	2101.63
535.918	2123.38
536.372	2128.58
536.826	2115.23
537.279	2099.88
537.733	2101.03
538.187	2112.82
538.64	2113.23
539.094	2133.83
539.548	2153.58
540.001	2144.73
540.455	2156.78
540.908	2174.98
541.362	2203.12
541.815	2216.03
542.269	2261.48
542.722	2243.33
543.175	2263.13
543.629	2279.83
544.082	2306.18
544.536	2331.68
544.989	2324.43
545.442	2343.43
545.895	2344.08
546.349	2340.53
546.802	2339.12
547.255	2343.98
547.708	2365.28
548.161	2384.93
548.614	2388.68
549.067	2401.18
549.52	2382.33
549.973	2355.03
550.426	2340.12
550.879	2321.12
551.332	2316.98
551.785	2334.73
552.238	2358.98
552.691	2332.83
553.144	2382.98
553.596	2411.03
554.049	2453.93
554.502	2520.62
554.955	2559.38
555.407	2601.93
555.86	2568.12
556.313	2529.18
556.765	2515.68
557.218	2473.18
557.67	2478.13
558.123	2442.08
558.576	2424.83
559.028	2423.08
559.48	2454.28
559.933	2444.43
560.385	2380.43
560.838	2291.08
561.29	2217.58
561.742	2214.53
562.195	2174.33
562.647	2157.98
563.099	2156.33
563.551	2150.28
564.004	2162.68
564.456	2142.38
564.908	2099.93
565.36	2066.88
565.812	2029.38
566.264	2012.03
566.716	1967.53
567.168	1940.68
567.62	1966.18
568.072	1940.33
568.524	1907.43
568.976	1899.83
569.428	1880.62
569.88	1884.18
570.332	1887.23
570.784	1891.88
571.235	1868.03
571.687	1894.88
572.139	1894.58
572.59	1901.88
573.042	1926.83
573.494	1919.13
573.945	1901.23
574.397	1856.08
574.849	1843.58
575.3	1854.58
575.752	1829.93
576.203	1813.83
576.655	1828.48
577.106	1800.63
577.557	1795.68
578.009	1782.08
578.46	1790.48
578.912	1764.83
579.363	1789.83
579.814	1778.23
580.265	1773.78
580.717	1776.88
581.168	1777.12
581.619	1799.78
582.07	1803.23
582.521	1790.58
582.972	1803.28
583.423	1824.13
583.875	1873.33
584.326	1985.23
584.777	2247.82
585.227	2506.23
585.678	2711.48
586.129	2773.48
586.58	2840.63
587.031	2874.28
587.482	3085.93
587.933	3771.98
588.384	3397.28
588.834	2648.38
589.285	2113.83
589.736	2046.13
590.186	2039.68
590.637	2019.68
591.088	1965.83
591.538	1940.33
591.989	1945.03
592.439	1906.18
592.89	1909.88
593.34	1909.98
593.791	1930.88
594.241	1946.68
594.692	1971.43
595.142	1933.38
595.593	1897.68
596.043	1911.73
596.493	1942.28
596.943	1994.08
597.394	1961.48
597.844	1935.73
598.294	1948.23
598.744	2015.68
599.195	2098.23
599.645	2212.38
600.095	2340.88
600.545	2438.28
600.995	2551.98
601.445	2641.62
601.895	2786.73
602.345	2866.88
602.795	2812.58
603.245	2700.03
603.695	2530.38
604.145	2393.23
604.594	2274.08
605.044	2171.28
605.494	2038.18
605.944	1932.53
606.393	1897.28
606.843	1862.58
607.293	1863.38
607.743	1866.38
608.192	1879.83
608.642	1885.98
609.091	1890.93
609.541	1889.48
609.99	1881.03
610.44	1849.33
610.889	1826.13
611.339	1802.58
611.788	1793.58
612.238	1822.43
612.687	1837.78
613.136	1873.03
613.586	1909.73
614.035	1902.68
614.484	1938.03
614.933	1947.63
615.383	1911.13
615.832	1832.18
616.281	1787.93
616.73	1731.53
617.179	1687.03
617.628	1644.58
618.077	1619.18
618.526	1597.83
618.975	1574.63
619.424	1551.98
619.873	1558.68
620.322	1547.88
620.771	1557.23
621.22	1516.43
621.669	1494.48
622.118	1486.53
622.567	1474.13
623.015	1451.38
623.464	1446.98
623.913	1421.08
624.361	1421.43
624.81	1420.58
625.259	1400.73
625.707	1390.93
626.156	1402.38
626.604	1411.78
627.053	1420.23
627.501	1410.93
627.95	1421.78
628.398	1440.88
628.847	1422.68
629.295	1437.98
629.744	1452.18
630.192	1497.08
630.64	1613.08
631.089	1786.83
631.537	1912.23
631.985	1913.68
632.433	2001.08
632.881	2003.03
633.33	2436.53
633.778	2693.18
634.226	1825.53
634.674	1682.48
635.122	1659.38
635.57	1684.93
636.018	2003.28
636.466	1588.43
636.914	1395.38
637.362	1384.68
637.81	1396.88
638.258	1434.78
638.705	1446.38
639.153	1489.23
639.601	1489.03
640.049	1528.23
640.497	1578.28
640.944	1626.83
641.392	1546.53
641.84	1458.43
642.287	1407.28
642.735	1387.13
643.182	1382.78
643.63	1378.63
644.078	1383.83
644.525	1406.38
644.973	1445.38
645.42	1458.13
645.867	1479.38
646.315	1510.03
646.762	1566.53
647.21	1606.08
647.657	1700.63
648.104	1764.53
648.551	1833.78
648.999	1993.13
649.446	2216.33
649.893	2488.43
650.34	2930.07
650.787	3644.13
651.234	4817.02
651.682	6687.22
652.129	9651.88
652.576	13780.33
653.023	15535.17
653.47	15538.38
653.917	15538.42
654.363	15538.33
654.81	15535.33
655.257	15535.98
655.704	15539.77
656.151	10745.57
656.598	6940.67
657.044	4893.97
657.491	3776.18
657.938	3029.33
658.385	2536.48
658.831	2231.43
659.278	1983.98
659.724	1816.83
660.171	1682.68
660.618	1547.28
661.064	1464.38
661.511	1410.68
661.957	1346.03
662.404	1323.48
662.85	1305.68
663.296	1285.63
663.743	1253.23
664.189	1242.93
664.635	1228.93
665.082	1210.68
665.528	1204.43
665.974	1170.98
666.42	1163.93
666.867	1182.28
667.313	1202.78
667.759	1279.83
668.205	1275.78
668.651	1293.48
669.097	1253.53
669.543	1396.88
669.989	1293.33
670.435	1092.33
670.881	1078.53
671.327	1118.18
671.773	1189.78
672.219	1272.68
672.665	1356.18
673.11	1399.63
673.556	1414.38
674.002	1456.88
674.448	1475.38
674.893	1257.28
675.339	1091.23
675.785	1005.33
676.23	967.78
676.676	921.43
677.122	902.58
677.567	872.68
678.013	850.83
678.458	850.98
678.904	844.98
679.349	831.18
679.794	834.23
680.24	832.53
680.685	824.28
681.131	824.88
681.576	823.48
682.021	826.48
682.466	836.73
682.912	840.83
683.357	880.18
683.802	950.93
684.247	1040.48
684.692	1111.47
685.137	1156.13
685.583	1177.83
686.028	1243.53
686.473	1174.28
686.918	1011.13
687.363	924.83
687.807	891.68
688.252	850.98
688.697	817.23
689.142	791.88
689.587	797.58
690.032	809.23
690.477	841.28
690.921	880.43
691.366	928.33
691.811	964.33
692.255	1046.73
692.7	1266.83
693.145	1824.23
693.589	2746.78
694.034	3266.93
694.478	3519.38
694.923	3215.48
695.367	4624.93
695.812	2792.23
696.256	1180.48
696.701	865.03
697.145	809.28
697.59	772.73
698.034	775.63
698.478	771.43
698.922	781.88
699.367	796.88
699.811	828.38
700.255	906.48
700.699	979.13
701.143	1061.38
701.588	1116.68
702.032	1168.43
702.476	1200.73
702.92	1262.83
703.364	1649.33
703.808	2523.58
704.252	3147.62
704.696	3345.93
705.14	3157.78
705.584	4378.22
706.027	2404.23
706.471	1215.73
706.915	907.68
707.359	809.03
707.803	763.78
708.246	731.18
708.69	734.43
709.134	729.93
709.577	729.28
710.021	735.93
710.465	725.93
710.908	722.38
711.352	747.78
711.795	828.13
712.239	888.53
712.682	922.33
713.126	920.73
713.569	1034.53
714.012	845.88
714.456	750.93
714.899	703.63
715.342	659.18
715.786	630.13
716.229	611.03
716.672	590.28
717.115	595.38
717.558	603.18
718.002	619.33
718.445	640.53
718.888	678.33
719.331	692.48
719.774	706.88
720.217	696.23
720.66	652.93
721.103	619.28
721.546	582.08
721.989	572.78
722.432	561.68
722.874	568.58
723.317	576.08
723.76	622.48
724.203	760.43
724.645	1000.58
725.088	1183.42
725.531	1161.18
725.974	1280.58
726.416	1142.43
726.859	710.13
727.301	591.63
727.744	560.98
728.187	558.53
728.629	572.13
729.071	592.38
729.514	615.58
729.956	644.53
730.399	657.73
730.841	650.18
731.283	632.63
731.726	615.58
732.168	625.08
732.61	663.13
733.053	708.48
733.495	783.78
733.937	872.13
734.379	1032.93
734.821	1301.53
735.263	2067.03
735.705	3733.08
736.148	5473.42
736.59	5500.98
737.032	6032.43
737.474	4955.68
737.916	1878.33
738.357	995.43
738.799	772.53
739.241	711.43
739.683	713.43
740.125	728.38
740.567	726.63
741.008	765.13
741.45	799.48
741.892	816.28
742.334	817.63
742.775	818.53
743.217	780.68
743.658	667.93
744.1	673.48
744.542	754.58
744.983	785.88
745.425	824.58
745.866	817.38
746.307	722.23
746.749	779.28
747.19	1128.18
747.632	2190.73
748.073	4069.23
748.514	5626.92
748.956	7509.98
749.397	8791.33
749.838	6065.07
750.279	5838.73
750.72	2972.88
751.162	1248.58
751.603	717.78
752.044	581.18
752.485	509.58
752.926	484.73
753.367	462.53
753.808	451.88
754.249	443.13
754.69	440.38
755.131	433.93
755.572	434.83
756.013	436.88
756.453	441.13
756.894	445.23
757.335	449.28
757.776	450.93
758.216	470.48
758.657	496.93
759.098	545.63
759.538	663.23
759.979	945.83
760.42	1927.98
760.86	4936.42
761.301	10199.38
761.741	12006.83
762.182	13937.22
762.622	8980.78
763.063	3205.68
763.503	1431.43
763.943	1139.17
764.384	1277.63
764.824	1235.08
765.264	1228.88
765.705	851.23
766.145	587.88
766.585	508.88
767.025	549.43
767.465	745.83
767.906	923.63
768.346	967.18
768.786	981.12
769.226	958.68
769.666	1585.93
770.106	3439.03
770.546	4882.42
770.986	5545.68
771.426	4172.07
771.866	1732.78
772.306	792.53
772.745	504.13
773.185	439.28
773.625	443.38
774.065	525.33
774.505	885.48
774.944	1811.48
775.384	2749.13
775.824	3186.48
776.263	2601.38
776.703	1240.93
777.142	615.48
777.582	412.98
778.021	373.33
778.461	349.73
778.9	341.08
779.34	306.43
779.779	286.68
780.219	281.53
780.658	282.13
781.097	275.88
781.537	265.93
781.976	265.08
782.415	264.63
782.855	267.43
783.294	265.33
783.733	258.63
784.172	258.78
784.611	259.83
785.05	267.18
785.489	275.88
785.928	281.08
786.367	286.18
786.806	305.53
787.245	331.33
787.684	337.48
788.123	333.53
788.562	316.18
789.001	305.93
789.44	299.73
789.879	300.78
790.317	303.68
790.756	321.03
791.195	365.08
791.634	492.13
792.072	892.03
792.511	2194.78
792.95	4045.72
793.388	4921.53
793.827	3179.33
794.265	1448.28
794.704	688.68
795.142	418.98
795.581	349.28
796.019	316.23
796.458	317.03
796.896	321.28
797.334	370.98
797.773	496.98
798.211	959.88
798.649	2004.23
799.087	3377.18
799.526	4755.52
799.964	4914.82
800.402	3374.43
800.84	1504.93
801.278	730.98
801.716	453.83
802.154	369.98
802.592	344.23
803.03	341.78
803.468	355.13
803.906	357.43
804.344	345.38
804.782	339.73
805.22	337.98
805.658	349.08
806.096	372.28
806.533	416.58
806.971	533.68
807.409	775.23
807.847	1557.78
808.284	3995.27
808.722	6995.52
809.16	9840.62
809.597	13261.27
810.035	15535.42
810.472	10757.27
810.91	4517.62
811.347	1996.18
811.785	940.28
812.222	596.68
812.66	457.23
813.097	389.28
813.535	339.68
813.972	308.03
814.409	282.13
814.846	266.68
815.284	254.03
815.721	263.18
816.158	279.98
816.595	370.03
817.032	453.13
817.47	420.58
817.907	335.53
818.344	289.38
818.781	276.38
819.218	320.48
819.655	453.88
820.092	581.68
820.529	550.53
820.966	452.23
821.403	331.38
821.839	296.98
822.276	306.38
822.713	348.18
823.15	330.68
823.587	364.28
824.023	650.83
824.46	1640.98
824.897	2868.23
825.333	2216.58
825.77	1009.88
826.206	525.78
826.643	303.43
827.08	237.83
827.516	207.03
827.953	195.53
828.389	183.68
828.825	173.43
829.262	166.38
829.698	162.28
830.135	150.03
830.571	158.48
831.007	158.83
831.443	162.83
831.88	161.33
832.316	171.18
832.752	165.23
833.188	170.78
833.624	171.63
834.06	168.23
834.497	171.48
834.933	172.43
835.369	189.03
835.805	192.08
836.241	203.73
836.677	220.78
837.112	260.63
837.548	324.68
837.984	479.73
838.42	1026.63
838.856	2892.18
839.292	5750.23
839.727	4208.93
840.163	2818.38
840.599	4304.27
841.034	6656.62
841.47	3282.43
841.906	1596.68
842.341	909.43
842.777	816.03
843.212	996.98
843.648	580.73
844.083	350.23
844.519	242.03
844.954	188.68
845.39	165.23
845.825	159.58
846.261	145.18
846.696	137.73
847.131	137.38
847.566	139.48
848.002	140.38
848.437	155.23
848.872	156.78
849.307	199.03
849.742	366.13
850.177	933.83
850.613	2013.63
851.048	1437.78
851.483	655.33
851.918	367.28
852.353	217.33
852.788	180.58
853.223	143.28
853.657	126.63
854.092	124.43
854.527	115.43
854.962	122.63
855.397	128.58
855.832	109.43
856.266	107.18
856.701	105.53
857.136	106.28
857.57	124.13
858.005	143.13
858.44	123.78
858.874	119.38
859.309	127.68
859.743	123.38
860.178	118.38
860.612	128.43
861.047	168.18
861.481	220.38
861.915	153.88
862.35	117.68
862.784	98.78
863.218	95.63
863.653	103.33
864.087	128.63
864.521	172.03
864.955	277.48
865.39	472.58
865.824	338.28
866.258	396.63
866.692	570.93
867.126	412.68
867.56	228.53
867.994	150.33
868.428	132.63
868.862	154.78
869.296	142.08
869.73	175.08
870.164	153.68
870.598	138.08
871.031	104.13
871.465	95.93
871.899	81.73
872.333	73.03
872.766	74.98
873.2	74.53
873.634	74.68
874.067	80.03
874.501	75.18
874.935	79.68
875.368	82.03
875.802	76.18
876.235	68.08
876.669	64.53
877.102	59.23
877.535	64.88
877.969	63.88
878.402	62.28
878.836	62.13
879.269	60.88
879.702	61.98
880.135	63.83
880.569	73.08
881.002	57.18
881.435	63.38
881.868	59.38
882.301	51.23
882.734	52.03
883.167	56.18
883.601	59.48
884.034	55.83
884.467	50.88
884.899	54.18
885.332	47.78
885.765	52.98
886.198	49.58
886.631	50.48
887.064	52.18
887.497	48.43
887.929	49.03
888.362	50.28
888.795	52.33
889.228	50.08
889.66	47.98
890.093	43.73
890.526	48.63
890.958	49.93
891.391	47.53
891.823	46.48
892.256	51.38
892.688	48.18
893.121	40.48
893.553	46.93
893.985	41.98
894.418	45.88
894.85	52.73
895.282	45.43
895.715	42.38
896.147	40.28
896.579	37.83
897.011	48.73
897.444	44.03
897.876	39.08
898.308	42.18
898.74	43.88
899.172	45.88
899.604	44.48
900.036	47.28
900.468	45.78
900.9	42.73
901.332	57.13
901.764	55.83
902.196	48.88
902.628	55.13
903.06	73.68
903.491	80.43
903.923	67.18
904.355	70.73
904.787	76.18
905.218	61.18
905.65	57.18
906.082	53.93
906.513	49.38
906.945	55.43
907.376	56.93
907.808	63.08
908.239	62.23
908.671	65.28
909.102	70.28
909.534	99.38
909.965	188.38
910.397	466.58
910.828	1362.38
911.259	827.43
911.691	438.78
912.122	256.38
912.553	128.73
912.984	76.58
913.415	67.78
913.847	60.58
914.278	55.18
914.709	52.73
915.14	49.28
915.571	46.53
916.002	42.88
916.433	44.43
916.864	40.88
917.295	43.08
917.726	51.88
918.157	63.13
918.587	68.03
919.018	56.03
919.449	56.83
919.88	68.78
920.311	102.83
920.741	282.93
921.172	501.18
921.603	245.83
922.033	156.88
922.464	101.88
922.895	73.08
923.325	52.78
923.756	50.93
924.186	70.13
924.617	118.53
925.047	187.33
925.478	174.13
925.908	119.03
926.338	83.83
926.769	61.83
927.199	51.23
927.629	43.13
928.06	45.88
928.49	45.93
928.92	36.63
929.35	31.13
929.78	31.28
930.21	26.23
930.641	21.33
931.071	23.58
931.501	25.13
931.931	25.03
932.361	23.08
932.791	30.13
933.221	27.28
933.651	38.68
934.08	69.08
934.51	41.68
934.94	30.78
935.37	26.33
935.8	25.13
936.229	21.88
936.659	22.53
937.089	33.53
937.519	49.13
937.948	67.58
938.378	40.93
938.807	22.73
939.237	25.68
939.666	20.23
940.096	20.18
940.525	9.13
940.955	16.33
941.384	14.18
941.814	12.18
942.243	11.83
942.672	11.68
943.102	9.03
943.531	11.98
943.96	14.03
944.39	12.13
944.819	16.13
945.248	10.33
945.677	10.78
946.106	11.53
946.535	14.73
946.964	12.68
947.393	13.03
947.822	9.78
948.251	14.83
948.68	14.38
949.109	11.28
949.538	9.73
949.967	10.83
950.396	15.03
950.825	14.58
951.254	12.38
951.682	8.93
952.111	7.58
952.54	11.48
952.969	10.43
953.397	6.38
953.826	8.83
954.254	14.53
954.683	9.78
955.112	9.18
955.54	6.83
955.969	7.78
956.397	7.08
956.826	7.08
957.254	8.08
957.682	8.88
958.111	15.48
958.539	9.73
958.967	8.08
959.396	13.68
959.824	7.93
960.252	10.33
960.68	11.18
961.109	13.88
961.537	13.13
961.965	7.88
962.393	7.93
962.821	12.68
963.249	7.48
963.677	16.58
964.105	88.73
964.533	146.53
964.961	69.18
965.389	38.88
965.817	24.63
966.245	15.48
966.672	10.58
967.1	11.83
967.528	4.63
967.956	7.68
968.383	9.08
968.811	3.98
969.239	8.28
969.666	4.43
970.094	8.63
970.522	1.63
970.949	2.63
971.377	1.38
971.804	-0.37
972.232	2.78
972.659	2.08
973.087	9.78
973.514	2.03
973.941	3.33
974.369	3.88
974.796	7.73
975.223	5.58
975.651	10.53
976.078	4.83
976.505	12.98
976.932	35.93
977.359	43.28
977.786	30.08
978.214	21.78
978.641	6.73
979.068	6.08
979.495	0.83
979.922	8.13
980.349	4.43
980.776	8.53
981.202	6.38
981.629	8.68
982.056	10.98
982.483	-2.67
982.91	6.98
983.337	4.98
983.763	6.08
984.19	5.28
984.617	2.73
985.043	6.33
985.47	6.13
985.897	7.13
986.323	10.13
986.75	2.03
987.176	4.08
987.603	9.58
988.029	5.33
988.456	7.93
988.882	0.08
989.308	-0.12
989.735	-0.27
990.161	2.33
990.587	1.73
991.014	2.03
991.44	8.18
991.866	3.88
992.292	6.13
992.719	1.03
993.145	6.38
993.571	6.08
993.997	5.73
994.423	9.78
994.849	-3.47
995.275	3.93
995.701	4.93
996.127	0.53
996.553	6.33
996.979	1.98
997.405	3.48
997.83	3.43
998.256	6.33
998.682	0.53
999.108	5.33
999.534	-3.02
999.959	-0.82
1000.385	5.13
1000.811	4.03
1001.236	-4.22
1001.662	6.53
1002.087	10.98
1002.513	5.28
1002.938	3.78
1003.364	2.18
1003.789	3.93
1004.215	-2.02
1004.64	-0.12
1005.066	6.38
1005.491	6.13
1005.916	4.33
1006.342	8.83
1006.767	7.88
1007.192	6.98
1007.617	4.43
1008.042	5.68
1008.468	1.08
1008.893	7.13
1009.318	8.28
1009.743	16.63
1010.168	24.33
1010.593	21.13
1011.018	16.08
1011.443	7.98
1011.868	3.18
1012.293	1.83
1012.718	1.13
1013.143	2.08
1013.567	7.83
1013.992	7.68
1014.417	4.48
1014.842	1.13
1015.267	3.63
1015.691	4.08
1016.116	3.43
1016.541	5.63
1016.965	-2.82
1017.39	3.53
1017.814	1.48
1018.239	0.53
1018.663	-2.77
1019.088	-2.47
1019.512	4.68
1019.937	-2.77
1020.361	1.43
1020.785	-0.62
1021.21	1.03
1021.634	-1.72
1022.058	6.18
1022.483	-0.57
1022.907	-0.32
1023.331	-1.37
1023.755	-1.32
1024.179	2.93
1024.604	0.33
1025.028	-1.57
1025.452	4.48
1025.876	2.68
1026.3	0.33
1026.724	-2.22
1027.148	3.93
1027.572	2.08
1027.996	5.78
1028.42	-0.82
1028.843	2.33
1029.267	1.03
1029.691	3.58
1030.115	0.28
1030.539	1.58
1030.962	-1.72
1031.386	2.33
1031.81	-0.42
1032.233	0.28
1032.657	-8.87
1033.08	1.33
1033.504	3.13
1033.927	3.28
1034.351	-1.47
1034.774	-3.82
1035.198	-5.02
1035.621	-0.12
1036.045	2.18
1036.468	3.98
1036.891	1.08
1037.315	4.58
1037.738	1.08
1038.161	1.28
1038.584	1.38
1039.008	-2.97
1039.431	-1.62
1039.854	-3.72
1040.277	5.98
1040.7	-1.12
1041.123	-1.47
1041.546	0.38
1041.969	-1.32
1042.392	5.63
1042.815	-8.67
1043.238	-2.47
1043.661	-0.62
1044.084	-4.77
1044.507	1.88
1044.93	1.68
1045.352	2.83
1045.775	0.18
1046.198	6.33
1046.621	5.38
1047.043	-0.17
1047.466	2.98
1047.889	-0.12
1048.311	4.13
1048.734	-1.57
1049.156	-4.57
1049.579	-0.22
1050.001	-2.37
1050.424	2.78
1050.846	1.93
1051.269	-0.87
1051.691	-2.32
1052.113	4.63
1052.536	-3.62
1052.958	-1.27
1053.38	1.28
1053.802	4.18
1054.225	4.38
1054.647	2.53
1055.069	0.63
1055.491	-2.47
1055.913	-1.22
1056.335	-9.12
1056.757	-4.22
1057.179	-2.37
1057.601	-4.37
1058.023	-1.27
1058.445	-3.77
1058.867	0.03
1059.289	-0.42
1059.711	-1.92
1060.133	0.23
1060.555	-3.07
1060.976	-1.37
1061.398	-5.07
1061.82	-0.22
1062.241	-2.22
1062.663	-1.92
1063.085	-5.22
1063.506	-1.47
1063.928	-1.67
1064.35	-1.97
1064.771	1.18
1065.193	-0.27
1065.614	-1.97
1066.035	4.68
1066.457	5.23
1066.878	0.13
1067.3	3.88
1067.721	1.48
1068.142	3.73
1068.564	-0.47
1068.985	-1.77
1069.406	-4.07
1069.827	2.98
1070.248	0.63
1070.67	-1.82
1071.091	0.08
1071.512	-2.72
1071.933	1.28
1072.354	-8.82
1072.775	-2.37
1073.196	0.68
1073.617	-5.62
1074.038	0.43
1074.459	-3.02
1074.88	-2.17
1075.3	-1.97
1075.721	3.73
1076.142	-1.82
1076.563	-3.22
1076.983	0.33
1077.404	-9.67
1077.825	-2.47
1078.246	-4.02
1078.666	-3.52
1079.087	-4.57
1079.507	-1.62
1079.928	-0.97
1080.348	-4.72
1080.769	2.43
1081.189	-2.52
1081.61	-5.92
1082.03	0.63
1082.451	-1.17
1082.871	-4.72
1083.291	-6.37
1083.711	-1.12
1084.132	-2.22
1084.552	-6.87
1084.972	-4.92
1085.392	-7.87
1085.813	3.58
1086.233	-0.47
1086.653	-0.72
1087.073	-1.02
1087.493	-0.62
1087.913	-4.67
1088.333	-4.87
1088.753	-1.17
1089.173	2.38
1089.593	1.43
1090.013	-1.12
1090.433	-1.87
1090.852	4.33
1091.272	-3.32
1091.692	2.08
1092.112	1.53
1092.531	-5.12
1092.951	-2.87
1093.371	-1.97
1093.79	-3.12
1094.21	-6.02
1094.63	0.83
1095.049	-2.67
1095.469	-7.87
1095.888	0.73
1096.308	4.23
1096.727	0.63
1097.146	-2.12
1097.566	-1.77
1097.985	-1.67
1098.405	4.73
1098.824	3.58
1099.243	-1.87
1099.662	-3.87
1100.082	0.03
1100.501	-4.37
1100.92	3.43
1101.339	3.58
1101.758	4.68
