Data from MSPlasma+Separation6_Subt14_10-15-10-044.txt Node
Date: Fri Jul 21 10:15:10 EDT 2017
User: Ender
Spectrometer: HR+D1039
Trigger mode: 0
Integration Time (sec): 6.430000E-3
Scans to average: 20
Electric dark correction enabled: true
Nonlinearity correction enabled: false
Boxcar width: 0
XAxis mode: Wavelengths
Number of Pixels in Spectrum: 2048
>>>>>Begin Spectral Data<<<<<
187.836	-0.75
188.309	-0.75
188.782	-0.75
189.255	-2.25
189.728	-0.6
190.201	0.35
190.674	2.7
191.147	-3.65
191.619	3.45
192.092	-0
192.565	0.25
193.038	2.55
193.511	4.4
193.984	-0.1
194.456	0.55
194.929	-3.6
195.402	-4
195.874	0.75
196.347	2.85
196.82	0.25
197.292	-3.95
197.765	-0.5
198.237	-2.85
198.71	-4.25
199.182	-0.5
199.655	6.3
200.127	-1.3
200.6	-1.75
201.072	5.75
201.544	-0.25
202.017	4.35
202.489	1.7
202.961	-1.45
203.433	-1.5
203.906	0.95
204.378	4.55
204.85	1.2
205.322	-1.7
205.794	3.4
206.266	1.7
206.739	6.6
207.211	3.35
207.683	0.55
208.155	-0.15
208.627	-1.7
209.099	4.95
209.57	4.15
210.042	2.5
210.514	5.2
210.986	16.2
211.458	22.55
211.93	12.3
212.402	7.75
212.873	0.35
213.345	-0.65
213.817	4.5
214.288	-2.8
214.76	4.7
215.232	2.5
215.703	6.8
216.175	3.65
216.646	3.1
217.118	5.55
217.589	3.15
218.061	2.35
218.532	0.6
219.004	9.35
219.475	12.7
219.946	28.15
220.418	32.5
220.889	25.85
221.36	13
221.832	13.8
222.303	10.25
222.774	5.05
223.245	3.3
223.717	1.5
224.188	5.7
224.659	5.35
225.13	7.55
225.601	1.45
226.072	3.3
226.543	9
227.014	8.2
227.485	8.1
227.956	10.9
228.427	14.6
228.898	13.45
229.369	11.45
229.839	7.3
230.31	11.6
230.781	10.05
231.252	13.55
231.722	24.35
232.193	37.4
232.664	39.95
233.135	53.8
233.605	59.15
234.076	48.25
234.546	41.9
235.017	48
235.487	45.2
235.958	43.6
236.428	62.55
236.899	104.95
237.369	113.6
237.84	86.85
238.31	109.6
238.78	109.05
239.251	108.7
239.721	110.55
240.191	85.9
240.662	46.4
241.132	43.5
241.602	52.4
242.072	74.55
242.542	89.15
243.013	62.8
243.483	52.6
243.953	37.4
244.423	40.85
244.893	47.1
245.363	60
245.833	54.3
246.303	58.15
246.773	78.35
247.243	79.95
247.712	95.9
248.182	107.25
248.652	112.3
249.122	171.45
249.592	324
250.061	489.15
250.531	776.7
251.001	589.15
251.471	491.75
251.94	371.65
252.41	199.85
252.879	139.5
253.349	110.45
253.818	85.15
254.288	74.05
254.757	76.1
255.227	100.35
255.696	78.2
256.166	69.95
256.635	78.25
257.105	99.7
257.574	124.15
258.043	130.9
258.513	233.6
258.982	301.7
259.451	210.65
259.92	209.15
260.389	194
260.859	142.6
261.328	166
261.797	242.55
262.266	211
262.735	100.15
263.204	57.3
263.673	56.3
264.142	47.6
264.611	45.75
265.08	59.25
265.549	62.75
266.018	54.7
266.487	51.15
266.955	52.25
267.424	58.2
267.893	58.65
268.362	60.9
268.83	57.85
269.299	60.7
269.768	72.55
270.236	88.1
270.705	96.6
271.174	89.55
271.642	101.7
272.111	114.75
272.579	191.8
273.048	294.7
273.516	375.8
273.985	374.2
274.453	286.05
274.922	173.25
275.39	104.4
275.858	99.75
276.327	83.55
276.795	82.9
277.263	96.3
277.731	128.9
278.2	250.65
278.668	331.25
279.136	251.5
279.604	156.95
280.072	99.3
280.54	87.5
281.008	88.65
281.477	84.7
281.945	89.2
282.413	92.2
282.881	97.55
283.348	98.5
283.816	107.6
284.284	106.95
284.752	102.25
285.22	104.25
285.688	115.95
286.156	197.05
286.623	539.95
287.091	1067.25
287.559	555.25
288.026	212.4
288.494	131.5
288.962	107.4
289.429	105.25
289.897	97.05
290.364	93.3
290.832	92.6
291.3	97.7
291.767	102.1
292.234	99.3
292.702	107.25
293.169	115.9
293.637	123.05
294.104	114.85
294.571	113.95
295.039	112
295.506	111.45
295.973	112.5
296.44	108.45
296.908	126.65
297.375	146
297.842	137.6
298.309	115.75
298.776	122.55
299.243	123
299.71	115.5
300.177	113.4
300.644	129.2
301.111	142.35
301.578	133.6
302.045	123.7
302.512	117.25
302.979	126.5
303.446	133.1
303.913	131.15
304.379	147.95
304.846	156.5
305.313	179.1
305.78	206.65
306.246	251.05
306.713	271.35
307.18	236.55
307.646	262.1
308.113	229.3
308.579	177.6
309.046	173.6
309.512	179.35
309.979	162.95
310.445	151.75
310.912	159.25
311.378	157.75
311.845	155.95
312.311	155.1
312.777	147.3
313.244	160.85
313.71	164.8
314.176	181.5
314.642	209.95
315.109	244.8
315.575	235.65
316.041	207.9
316.507	196.4
316.973	218.5
317.439	207.35
317.905	237.4
318.371	231.2
318.837	218.65
319.303	226.85
319.769	218.45
320.235	235.25
320.701	276
321.167	289.9
321.633	351.05
322.099	493.25
322.564	662
323.03	521.25
323.496	361.6
323.962	334.5
324.427	316.85
324.893	277.9
325.359	264.9
325.824	228.1
326.29	238.15
326.755	244.55
327.221	238.3
327.686	251.7
328.152	227.3
328.617	220.35
329.083	227.65
329.548	238.1
330.014	250.45
330.479	266.8
330.944	309.95
331.41	356.9
331.875	352.3
332.34	356.35
332.805	411.15
333.271	531.55
333.736	707.3
334.201	629.45
334.666	469.45
335.131	535.2
335.596	418.05
336.061	443.65
336.526	448.45
336.991	390.45
337.456	427.9
337.921	337.6
338.386	269.8
338.851	252.7
339.316	229.15
339.781	226.4
340.246	224.85
340.711	225.35
341.175	237
341.64	237
342.105	241.2
342.569	261.1
343.034	278.65
343.499	282.1
343.963	275.75
344.428	265.45
344.893	273.6
345.357	282.05
345.822	269.95
346.286	274.45
346.751	292.5
347.215	287.3
347.679	298.8
348.144	322.65
348.608	312.9
349.073	331.4
349.537	363
350.001	357.2
350.465	330.6
350.93	321
351.394	318.75
351.858	322.55
352.322	336.25
352.786	332.45
353.25	330.35
353.715	334.8
354.179	353.5
354.643	367.25
355.107	375.8
355.571	396.95
356.035	407.6
356.498	394.9
356.962	423.75
357.426	421.35
357.89	378.2
358.354	350.85
358.818	340.6
359.281	355.05
359.745	374.9
360.209	366.15
360.673	373.75
361.136	378.35
361.6	369.6
362.064	401.95
362.527	398.3
362.991	408.1
363.454	406.55
363.918	411.75
364.381	403.8
364.845	391.95
365.308	390
365.772	387.55
366.235	392.7
366.698	416.4
367.162	507.5
367.625	562.55
368.088	456.35
368.552	409.85
369.015	418.45
369.478	452.9
369.941	453.95
370.404	466.2
370.867	498.15
371.331	504.55
371.794	506.85
372.257	571.45
372.72	602.25
373.183	574.5
373.646	582
374.109	584.85
374.572	672.6
375.035	795.3
375.497	595.95
375.96	479.4
376.423	455.1
376.886	459.85
377.349	465.6
377.811	470.95
378.274	477.95
378.737	483.6
379.199	498.05
379.662	512.25
380.125	548.05
380.587	606.1
381.05	644.9
381.512	638.15
381.975	619.7
382.437	607.05
382.9	618.1
383.362	611.75
383.825	664.8
384.287	836.9
384.75	927.55
385.212	818.4
385.674	673.85
386.136	612.45
386.599	597.15
387.061	627.9
387.523	649.1
387.985	652.45
388.447	675.95
388.91	758.4
389.372	932.45
389.834	869.55
390.296	724.7
390.758	720.4
391.22	747.75
391.682	909.95
392.144	1416.4
392.606	1316.35
393.068	786.8
393.529	711.65
393.991	699.35
394.453	672.4
394.915	712.55
395.377	874.6
395.838	1061.45
396.3	760.85
396.762	592.5
397.224	565.5
397.685	554.85
398.147	562.5
398.608	571.1
399.07	576.5
399.531	561.6
399.993	566.7
400.454	584
400.916	581.25
401.377	593.7
401.839	603.7
402.3	604.35
402.762	633.5
403.223	695.85
403.684	709.15
404.145	644.75
404.607	633.85
405.068	634.8
405.529	652.95
405.99	658.2
406.451	667.75
406.913	646.95
407.374	660.3
407.835	658.85
408.296	685.7
408.757	697.1
409.218	712.6
409.679	720.55
410.14	732.75
410.601	761.85
411.062	793.35
411.522	913.55
411.983	1013.6
412.444	861.6
412.905	754.45
413.366	757.8
413.826	782.1
414.287	876.35
414.748	1036.55
415.208	1054.8
415.669	883.65
416.13	805.05
416.59	786.15
417.051	819.15
417.511	855.45
417.972	917.8
418.432	978.5
418.893	1095.4
419.353	1040.75
419.814	799.15
420.274	724.65
420.734	719.3
421.195	768.95
421.655	798.85
422.115	771.65
422.576	749.1
423.036	752.7
423.496	778.8
423.956	817.45
424.416	872.55
424.876	980.15
425.336	986.85
425.797	982.85
426.257	976.8
426.717	918.55
427.177	853.3
427.637	882.25
428.097	932.5
428.556	979.5
429.016	1067.1
429.476	1049.75
429.936	1012.65
430.396	983.5
430.856	1000.5
431.315	1027.5
431.775	1100.6
432.235	1156
432.694	1176.4
433.154	1105
433.614	1074.9
434.073	1035.25
434.533	944.3
434.993	915.25
435.452	922.6
435.912	907.15
436.371	903.2
436.83	899.95
437.29	917.65
437.749	866.4
438.209	858.75
438.668	868.05
439.127	868.8
439.587	860.1
440.046	817.45
440.505	838.1
440.964	837.5
441.424	864.7
441.883	876.8
442.342	834.85
442.801	809.75
443.26	822.4
443.719	811.4
444.178	805.05
444.637	815.75
445.096	817.7
445.555	836.55
446.014	840.4
446.473	808.9
446.932	804.75
447.391	821.95
447.849	840.7
448.308	834.5
448.767	846.5
449.226	875.6
449.685	878.95
450.143	915.3
450.602	919.4
451.061	882.1
451.519	892.85
451.978	918.6
452.436	944.15
452.895	906.25
453.353	874.05
453.812	888.1
454.27	879.35
454.729	852.45
455.187	862.05
455.646	861.55
456.104	870.6
456.562	858.85
457.021	855.25
457.479	816.2
457.937	850.9
458.395	870.3
458.854	858.75
459.312	839.45
459.77	857.6
460.228	864.55
460.686	879.25
461.144	877.1
461.602	859.85
462.06	876.65
462.518	890.3
462.976	889.75
463.434	897.85
463.892	904.9
464.35	928.8
464.808	932.7
465.266	948.25
465.724	956.4
466.181	958
466.639	961.5
467.097	1001.25
467.555	1026.45
468.012	1010.9
468.47	1026.55
468.928	1061.6
469.385	1087.4
469.843	1104.5
470.3	1093.55
470.758	1134.85
471.215	1146.15
471.673	1162.1
472.13	1213.15
472.588	1229.2
473.045	1235.05
473.503	1255.05
473.96	1305.5
474.417	1329.3
474.875	1371.95
475.332	1427.45
475.789	1447
476.246	1500.15
476.704	1556.85
477.161	1599.85
477.618	1643.25
478.075	1740.45
478.532	1863.25
478.989	2019.1
479.446	2226.75
479.903	2352.5
480.36	2556.1
480.817	2749.6
481.274	2944.45
481.731	3222.15
482.188	3481.95
482.645	3768.55
483.102	3990
483.558	4276.65
484.015	4496.3
484.472	4498.35
484.929	4362.95
485.385	4152.75
485.842	4055
486.299	3837.5
486.755	3488.85
487.212	3106.15
487.668	2792.85
488.125	2594.45
488.582	2378.55
489.038	2300.55
489.494	2226.8
489.951	2146.45
490.407	2094.9
490.864	2074.65
491.32	2028.4
491.776	1986.95
492.233	2002.7
492.689	1986.45
493.145	1957.2
493.602	1937.95
494.058	1968.8
494.514	2008.85
494.97	2020.85
495.426	2036.75
495.882	2041.55
496.338	2046.75
496.794	2125.2
497.251	2145.35
497.707	2148.7
498.163	2154.1
498.618	2143.8
499.074	2165.05
499.53	2208.4
499.986	2251.05
500.442	2268.55
500.898	2280.6
501.354	2306.1
501.809	2324.75
502.265	2350.35
502.721	2469.7
503.177	2533
503.632	2392.85
504.088	2422.4
504.543	2659.95
504.999	2481.55
505.455	2186.15
505.91	2069.9
506.366	2056.15
506.821	2053.6
507.277	2041.05
507.732	2045.6
508.187	2032.3
508.643	2053.2
509.098	2051.55
509.553	2088.4
510.009	2105.55
510.464	2148.15
510.919	2169.35
511.375	2192.3
511.83	2220.45
512.285	2263.75
512.74	2316.45
513.195	2356.65
513.65	2386.3
514.105	2428.7
514.56	2435.85
515.015	2483.45
515.47	2518.75
515.925	2506.1
516.38	2486.4
516.835	2476.95
517.29	2483.9
517.745	2490.85
518.2	2451.7
518.655	2386.1
519.109	2339.65
519.564	2326.1
520.019	2297.35
520.474	2273.05
520.928	2254.95
521.383	2264.3
521.838	2243.45
522.292	2220.7
522.747	2194.4
523.201	2184.95
523.656	2157.1
524.11	2154.7
524.565	2154.35
525.019	2157.5
525.474	2164.3
525.928	2151.35
526.382	2134.05
526.837	2118.15
527.291	2124.45
527.745	2097.9
528.2	2106.1
528.654	2092.3
529.108	2104.2
529.562	2114.35
530.016	2105.2
530.47	2101.15
530.925	2097.6
531.379	2114.75
531.833	2160.7
532.287	2130.3
532.741	2110.8
533.195	2115.85
533.649	2118.15
534.103	2116.15
534.556	2106.4
535.01	2124.5
535.464	2113.95
535.918	2124.75
536.372	2132.6
536.826	2123.2
537.279	2104.05
537.733	2116.9
538.187	2130.85
538.64	2126.65
539.094	2133.45
539.548	2184.2
540.001	2155.4
540.455	2171.1
540.908	2191.9
541.362	2215.5
541.815	2216.4
542.269	2266.65
542.722	2256
543.175	2278.25
543.629	2292.15
544.082	2327.2
544.536	2346.75
544.989	2342.8
545.442	2349.7
545.895	2364.15
546.349	2352.05
546.802	2352.05
547.255	2359.95
547.708	2373.95
548.161	2393.1
548.614	2396.3
549.067	2413
549.52	2387.3
549.973	2380.75
550.426	2364.7
550.879	2333.05
551.332	2329.35
551.785	2357.55
552.238	2373.55
552.691	2369.45
553.144	2409.55
553.596	2447.35
554.049	2473.45
554.502	2525
554.955	2570
555.407	2597.2
555.86	2561.5
556.313	2549.7
556.765	2525.7
557.218	2498.25
557.67	2500.75
558.123	2455.8
558.576	2444.95
559.028	2442.2
559.48	2475.3
559.933	2459.8
560.385	2382.75
560.838	2302.95
561.29	2235.6
561.742	2236.3
562.195	2179.8
562.647	2170.35
563.099	2166.35
563.551	2158.6
564.004	2175.75
564.456	2162.15
564.908	2111.95
565.36	2083.65
565.812	2037.95
566.264	2011.5
566.716	1990.55
567.168	1966.05
567.62	1959.65
568.072	1947.1
568.524	1928.2
568.976	1913.5
569.428	1889.5
569.88	1894.6
570.332	1904.7
570.784	1907.4
571.235	1874.15
571.687	1910.8
572.139	1903.75
572.59	1918.9
573.042	1939.45
573.494	1935.5
573.945	1911.8
574.397	1870.15
574.849	1854.35
575.3	1865.6
575.752	1845.45
576.203	1835.1
576.655	1842.2
577.106	1816.95
577.557	1804.9
578.009	1800.6
578.46	1799.95
578.912	1779.35
579.363	1799.65
579.814	1796.5
580.265	1784.9
580.717	1785.15
581.168	1784.85
581.619	1798.65
582.07	1808.1
582.521	1810.45
582.972	1813.4
583.423	1825.95
583.875	1865.7
584.326	1973.5
584.777	2153.5
585.227	2369.35
585.678	2533.65
586.129	2577.2
586.58	2617.95
587.031	2654.75
587.482	2818.6
587.933	3328.3
588.384	3038.45
588.834	2492.75
589.285	2103.1
589.736	2045.85
590.186	2042.4
590.637	2027.7
591.088	1979.05
591.538	1957.1
591.989	1949.25
592.439	1936.6
592.89	1928.2
593.34	1918.25
593.791	1941.9
594.241	1949.95
594.692	1977.6
595.142	1947.25
595.593	1919.8
596.043	1917.95
596.493	1946.95
596.943	1994.45
597.394	1969.75
597.844	1938.4
598.294	1972.45
598.744	2034.05
599.195	2124.2
599.645	2233.3
600.095	2359.7
600.545	2481.4
600.995	2578.9
601.445	2665.85
601.895	2803.9
602.345	2896.8
602.795	2842.85
603.245	2722.1
603.695	2548.65
604.145	2411.8
604.594	2305.35
605.044	2180.45
605.494	2043
605.944	1943.1
606.393	1910.3
606.843	1880.6
607.293	1881.15
607.743	1874.45
608.192	1891
608.642	1888.85
609.091	1888.4
609.541	1896.95
609.99	1891.75
610.44	1852.3
610.889	1832.1
611.339	1815.9
611.788	1800.6
612.238	1832.4
612.687	1846.6
613.136	1871.4
613.586	1904.3
614.035	1903.7
614.484	1926.6
614.933	1935.6
615.383	1886.25
615.832	1832.95
616.281	1786.3
616.73	1742.6
617.179	1694.65
617.628	1648.6
618.077	1625.4
618.526	1605.05
618.975	1590.3
619.424	1549.35
619.873	1567.6
620.322	1559.75
620.771	1561.55
621.22	1536.6
621.669	1503.2
622.118	1485.4
622.567	1476.5
623.015	1444.75
623.464	1448.5
623.913	1428.55
624.361	1427.35
624.81	1420.3
625.259	1405.05
625.707	1390.75
626.156	1402.75
626.604	1422.75
627.053	1431.7
627.501	1411.25
627.95	1435.4
628.398	1457.85
628.847	1433.25
629.295	1439.05
629.744	1458.95
630.192	1496
630.64	1614.2
631.089	1780.4
631.537	1865.6
631.985	1863.25
632.433	1958.6
632.881	1948.2
633.33	2339.45
633.778	2581.35
634.226	1791.7
634.674	1660.1
635.122	1633.65
635.57	1666.9
636.018	1942.05
636.466	1574.2
636.914	1397.2
637.362	1393.15
637.81	1395.55
638.258	1447.6
638.705	1459.35
639.153	1505.2
639.601	1515.25
640.049	1529.35
640.497	1577.95
640.944	1627.15
641.392	1538.85
641.84	1464.75
642.287	1397.15
642.735	1377.25
643.182	1368.05
643.63	1365.85
644.078	1379.85
644.525	1391.05
644.973	1426.1
645.42	1447.1
645.867	1472.65
646.315	1494.1
646.762	1542.75
647.21	1589.6
647.657	1664.2
648.104	1732.6
648.551	1786.05
648.999	1940.9
649.446	2129.5
649.893	2384.95
650.34	2823.45
650.787	3502.05
651.234	4559
651.682	6339.9
652.129	9123.65
652.576	13056
653.023	15535.85
653.47	15539.05
653.917	15539.1
654.363	15539
654.81	15536
655.257	15536.65
655.704	15540.45
656.151	9833.55
656.598	6386.85
657.044	4529.35
657.491	3528.75
657.938	2865.1
658.385	2417.65
658.831	2136.8
659.278	1905.8
659.724	1739.65
660.171	1638
660.618	1506.9
661.064	1423.5
661.511	1382
661.957	1333.15
662.404	1301.6
662.85	1287.6
663.296	1267.15
663.743	1240.55
664.189	1233.35
664.635	1220.85
665.082	1200.85
665.528	1198.55
665.974	1174.55
666.42	1152.35
666.867	1175.15
667.313	1192.35
667.759	1249.85
668.205	1244.25
668.651	1253.15
669.097	1214.2
669.543	1340.35
669.989	1255.2
670.435	1101
670.881	1082
671.327	1124.35
671.773	1194.1
672.219	1294.5
672.665	1371.75
673.11	1414.2
673.556	1432.05
674.002	1462.6
674.448	1480.65
674.893	1265.25
675.339	1102.55
675.785	1017.7
676.23	964.6
676.676	931.85
677.122	900.05
677.567	881.4
678.013	858.25
678.458	860.35
678.904	846.2
679.349	841.35
679.794	846.8
680.24	838.05
680.685	823.75
681.131	827.65
681.576	820.95
682.021	833.15
682.466	842.4
682.912	849.05
683.357	893.35
683.802	972.5
684.247	1067.4
684.692	1134.1
685.137	1177.45
685.583	1199.7
686.028	1259.9
686.473	1193.75
686.918	1018.95
687.363	930.95
687.807	899.7
688.252	851.6
688.697	821.85
689.142	797.9
689.587	803.45
690.032	823.3
690.477	848.65
690.921	890.25
691.366	943.85
691.811	970.55
692.255	1057.5
692.7	1292.35
693.145	1871
693.589	2847.2
694.034	3365.05
694.478	3583.15
694.923	3240.85
695.367	4607.5
695.812	2793.05
696.256	1197
696.701	874.1
697.145	816.3
697.59	788.3
698.034	774.05
698.478	780.4
698.922	778.55
699.367	800.3
699.811	843.55
700.255	913.65
700.699	996.05
701.143	1078.95
701.588	1134.55
702.032	1179.1
702.476	1212.65
702.92	1288.7
703.364	1692.75
703.808	2605.05
704.252	3233.15
704.696	3380.25
705.14	3178.8
705.584	4357.95
706.027	2425.8
706.471	1219.65
706.915	924.15
707.359	820
707.803	760.3
708.246	734.65
708.69	734.9
709.134	727
709.577	726.45
710.021	738.45
710.465	736.35
710.908	719.8
711.352	760
711.795	840.6
712.239	911.7
712.682	934.55
713.126	923.05
713.569	1024.1
714.012	846.65
714.456	752.95
714.899	704.05
715.342	652.6
715.786	630.05
716.229	614.1
716.672	601.05
717.115	597.25
717.558	612.4
718.002	625.85
718.445	647.15
718.888	679.85
719.331	698.8
719.774	705.9
720.217	694.8
720.66	656.15
721.103	621.65
721.546	590.65
721.989	580.3
722.432	576.3
722.874	570.2
723.317	585.7
723.76	631.5
724.203	774.4
724.645	1024.7
725.088	1199.25
725.531	1164.05
725.974	1279.1
726.416	1144.25
726.859	714.5
727.301	591.55
727.744	555.5
728.187	553.5
728.629	576.35
729.071	602.45
729.514	626.85
729.956	655.1
730.399	660.15
730.841	656.8
731.283	636
731.726	624.65
732.168	639.25
732.61	667.7
733.053	721.8
733.495	799.85
733.937	887.2
734.379	1041.45
734.821	1338.5
735.263	2149.1
735.705	3835.8
736.148	5583.75
736.59	5526.15
737.032	6002.5
737.474	4922.5
737.916	1893
738.357	989.85
738.799	776.15
739.241	721.35
739.683	721.45
740.125	727.95
740.567	736.65
741.008	766.9
741.45	800.35
741.892	825.55
742.334	823.9
742.775	807.35
743.217	775.15
743.658	666.35
744.1	681.15
744.542	756.6
744.983	781.9
745.425	820.2
745.866	813.6
746.307	724.5
746.749	787.05
747.19	1149.35
747.632	2272.1
748.073	4191.35
748.514	5741.15
748.956	7591.7
749.397	8824.85
749.838	6074.1
750.279	5785.6
750.72	2963.7
751.162	1255.25
751.603	725.05
752.044	582.6
752.485	508.55
752.926	484.35
753.367	469.85
753.808	453.55
754.249	452.9
754.69	444.1
755.131	437.45
755.572	434.95
756.013	438.8
756.453	447.15
756.894	452.55
757.335	453.15
757.776	458.1
758.216	469.65
758.657	503.2
759.098	559.3
759.538	666.35
759.979	974.9
760.42	1998
760.86	5113.45
761.301	10434.1
761.741	12069
762.182	13722.75
762.622	8910.85
763.063	3215.2
763.503	1425.35
763.943	1099.65
764.384	1190.85
764.824	1129.95
765.264	1124.65
765.705	796.25
766.145	570.1
766.585	501.3
767.025	530.85
767.465	696.5
767.906	848
768.346	892.6
768.786	928.05
769.226	951.6
769.666	1630.85
770.106	3540.85
770.546	4941.3
770.986	5501.9
771.426	4153.65
771.866	1748.25
772.306	790.9
772.745	499.65
773.185	443.7
773.625	444.35
774.065	523.65
774.505	869.05
774.944	1748.3
775.384	2618.8
775.824	2970.3
776.263	2423
776.703	1181.25
777.142	595.25
777.582	407.15
778.021	367.75
778.461	341.05
778.9	332.1
779.34	306.15
779.779	291.8
780.219	279.55
780.658	279.25
781.097	274.45
781.537	265.05
781.976	267.2
782.415	267.05
782.855	259.7
783.294	260.8
783.733	261
784.172	263.75
784.611	260
785.05	267.2
785.489	276.25
785.928	278
786.367	287.65
786.806	304.6
787.245	329.6
787.684	334.4
788.123	332.75
788.562	315.7
789.001	300.25
789.44	297.1
789.879	295
790.317	303.45
790.756	322.05
791.195	366
791.634	497.4
792.072	906.45
792.511	2255.1
792.95	4086.55
793.388	4873.35
793.827	3134.55
794.265	1446.8
794.704	697.6
795.142	425.7
795.581	352.9
796.019	318.35
796.458	322.45
796.896	328
797.334	382.3
797.773	503.65
798.211	982.75
798.649	2044.1
799.087	3418.8
799.526	4775.4
799.964	4882.3
800.402	3334.75
800.84	1515.75
801.278	741.35
801.716	451.5
802.154	368.75
802.592	345.65
803.03	348.9
803.468	354.25
803.906	357.05
804.344	348.15
804.782	341
805.22	345
805.658	351.85
806.096	377
806.533	417.95
806.971	544.1
807.409	788.95
807.847	1592.2
808.284	4066.15
808.722	7026.75
809.16	9887
809.597	13352.5
810.035	15526.8
810.472	10564.25
810.91	4500.3
811.347	2011.9
811.785	941.75
812.222	594.85
812.66	455
813.097	387.35
813.535	343.75
813.972	305.35
814.409	283.95
814.846	275.4
815.284	258.35
815.721	259.55
816.158	280.2
816.595	359.35
817.032	435.95
817.47	405.3
817.907	319.2
818.344	277.75
818.781	268
819.218	316.75
819.655	440.8
820.092	567.6
820.529	531.85
820.966	440.85
821.403	322.85
821.839	283.75
822.276	297.75
822.713	341.7
823.15	332.15
823.587	364.5
824.023	663.75
824.46	1669.3
824.897	2858.25
825.333	2195.8
825.77	1019
826.206	528.65
826.643	312.35
827.08	235.2
827.516	205.35
827.953	193.45
828.389	186.7
828.825	173.3
829.262	167.2
829.698	162.25
830.135	155
830.571	155.75
831.007	153.5
831.443	156.6
831.88	167.4
832.316	163.65
832.752	161.25
833.188	163.3
833.624	164.35
834.06	170.9
834.497	168.8
834.933	173.65
835.369	182.8
835.805	190.8
836.241	205.55
836.677	224.95
837.112	260.7
837.548	328.45
837.984	482.95
838.42	1052
838.856	2921.5
839.292	5708.75
839.727	4167.5
840.163	2848.95
840.599	4358.1
841.034	6575.65
841.47	3243.95
841.906	1599.55
842.341	907.3
842.777	793.85
843.212	937.75
843.648	555.95
844.083	349.1
844.519	241.8
844.954	188.65
845.39	161.9
845.825	153
846.261	148.25
846.696	141.1
847.131	134.55
847.566	138.5
848.002	140.4
848.437	154.2
848.872	157.35
849.307	197.75
849.742	366.4
850.177	957.55
850.613	2014.55
851.048	1416.75
851.483	653.7
851.918	365.95
852.353	213.45
852.788	166.95
853.223	140.25
853.657	128.25
854.092	116.65
854.527	116.25
854.962	120.1
855.397	129.2
855.832	114.15
856.266	102.55
856.701	103.7
857.136	105.25
857.57	123.95
858.005	141.05
858.44	127.75
858.874	124.45
859.309	126.4
859.743	124.8
860.178	119.85
860.612	123.7
861.047	161.3
861.481	212.85
861.915	145.95
862.35	120.4
862.784	103.2
863.218	98
863.653	105.05
864.087	131.7
864.521	170.5
864.955	281.6
865.39	461.05
865.824	335.55
866.258	389.85
866.692	550.85
867.126	397.35
867.56	219.95
867.994	150
868.428	129.5
868.862	155.15
869.296	142.45
869.73	168.55
870.164	149.5
870.598	134.7
871.031	95.05
871.465	94.85
871.899	78.35
872.333	70.65
872.766	74.05
873.2	75.15
873.634	69.25
874.067	77.35
874.501	78.7
874.935	81.4
875.368	78.65
875.802	71.55
876.235	67.95
876.669	63.25
877.102	55.8
877.535	61.15
877.969	60.9
878.402	60.7
878.836	59.9
879.269	58.6
879.702	61.55
880.135	64.1
880.569	68.45
881.002	61.7
881.435	60.05
881.868	55.35
882.301	53.6
882.734	51.6
883.167	54.15
883.601	54.9
884.034	52.7
884.467	48
884.899	49.6
885.332	44.65
885.765	48.85
886.198	46.9
886.631	48.55
887.064	48.3
887.497	42.45
887.929	45.1
888.362	46.85
888.795	50.55
889.228	51.45
889.66	48.3
890.093	45.25
890.526	45.1
890.958	44
891.391	49.3
891.823	40.4
892.256	41.2
892.688	51.75
893.121	49.4
893.553	47.95
893.985	43.7
894.418	46.15
894.85	44.85
895.282	41.05
895.715	39.6
896.147	36.3
896.579	42.65
897.011	48.45
897.444	41.2
897.876	36.7
898.308	41.45
898.74	41.65
899.172	37.15
899.604	41
900.036	39.4
900.468	39.25
900.9	45.65
901.332	55.4
901.764	52.35
902.196	53.15
902.628	50.2
903.06	72.15
903.491	72.8
903.923	64.55
904.355	64.45
904.787	70.2
905.218	59.75
905.65	53.25
906.082	53.2
906.513	50.25
906.945	50.75
907.376	53.9
907.808	57.4
908.239	68.1
908.671	66.4
909.102	65.3
909.534	99.3
909.965	184.85
910.397	473.9
910.828	1344.35
911.259	809.1
911.691	440.6
912.122	255.25
912.553	130.6
912.984	71.2
913.415	64.1
913.847	56.55
914.278	51.8
914.709	47.1
915.14	47.65
915.571	43.95
916.002	42.35
916.433	40.75
916.864	42
917.295	42.65
917.726	53.2
918.157	63.75
918.587	68.95
919.018	59.2
919.449	55.75
919.88	69.85
920.311	98.1
920.741	285.1
921.172	492
921.603	244.45
922.033	158.9
922.464	103.3
922.895	64.65
923.325	44.15
923.756	49.9
924.186	69.45
924.617	110.7
925.047	171.85
925.478	156.25
925.908	111.3
926.338	79.05
926.769	57.5
927.199	47.9
927.629	44.05
928.06	44.5
928.49	46.65
928.92	34.9
929.35	29.75
929.78	27.45
930.21	24.45
930.641	20.6
931.071	23.55
931.501	22.35
931.931	22.2
932.361	21.5
932.791	30.7
933.221	28.15
933.651	36
934.08	68.1
934.51	41.2
934.94	27.65
935.37	27.85
935.8	24.3
936.229	18.1
936.659	22.3
937.089	32.5
937.519	44
937.948	63.85
938.378	36.85
938.807	26.9
939.237	16.95
939.666	19.95
940.096	15.7
940.525	5.9
940.955	10.8
941.384	12.9
941.814	9
942.243	12.05
942.672	6.7
943.102	8
943.531	9.35
943.96	13.85
944.39	13.25
944.819	14.5
945.248	6.9
945.677	10.05
946.106	12.05
946.535	9.1
946.964	9.65
947.393	6.45
947.822	12.35
948.251	15.25
948.68	9.75
949.109	8.95
949.538	11.6
949.967	14.4
950.396	10.1
950.825	10.6
951.254	7.5
951.682	4.05
952.111	4.65
952.54	5.75
952.969	6.45
953.397	7.85
953.826	6.3
954.254	10.95
954.683	8.15
955.112	8.5
955.54	12.35
955.969	6.15
956.397	4.4
956.826	3.8
957.254	5.75
957.682	7.35
958.111	9.95
958.539	7.75
958.967	8.3
959.396	11.1
959.824	11.45
960.252	7.5
960.68	8.2
961.109	9.85
961.537	16.65
961.965	6.5
962.393	3.3
962.821	8
963.249	8.85
963.677	16.7
964.105	81.5
964.533	142.55
964.961	69.3
965.389	41.05
965.817	18.95
966.245	17
966.672	10.2
967.1	11.1
967.528	0.4
967.956	8.5
968.383	6.7
968.811	-2.05
969.239	6.75
969.666	6.05
970.094	5.95
970.522	3.45
970.949	9.3
971.377	-1.6
971.804	1.9
972.232	1.1
972.659	4.5
973.087	6.95
973.514	2.5
973.941	-2
974.369	1.6
974.796	1.35
975.223	2.9
975.651	6.8
976.078	7.35
976.505	13.85
976.932	36.1
977.359	42.2
977.786	24.25
978.214	18.1
978.641	7.05
979.068	4.65
979.495	-0.25
979.922	7.05
980.349	4.1
980.776	1.4
981.202	1.1
981.629	5.3
982.056	6.05
982.483	-0.05
982.91	7.95
983.337	-1.25
983.763	5.05
984.19	4.55
984.617	1.5
985.043	4.75
985.47	6.55
985.897	5.35
986.323	7.75
986.75	2.75
987.176	1.75
987.603	5.7
988.029	7.15
988.456	7.55
988.882	1
989.308	1.15
989.735	2.55
990.161	4.1
990.587	-1
991.014	3.2
991.44	4.85
991.866	6.5
992.292	2.35
992.719	6.7
993.145	6.05
993.571	0.7
993.997	7.6
994.423	6.45
994.849	-6.35
995.275	3.05
995.701	8.55
996.127	-2.3
996.553	2.45
996.979	0.45
997.405	5.6
997.83	5.8
998.256	6.9
998.682	0.65
999.108	3.7
999.534	-2.05
999.959	-0.75
1000.385	2.1
1000.811	0.6
1001.236	-1.3
1001.662	-1.3
1002.087	6.1
1002.513	6.5
1002.938	-3.25
1003.364	4
1003.789	3.95
1004.215	3.75
1004.64	3.5
1005.066	6.6
1005.491	9.45
1005.916	5.55
1006.342	2.25
1006.767	1.7
1007.192	6.05
1007.617	1.2
1008.042	0.45
1008.468	-0.5
1008.893	5.55
1009.318	10.1
1009.743	12.9
1010.168	20.9
1010.593	22.25
1011.018	12.8
1011.443	1.65
1011.868	8.4
1012.293	3.15
1012.718	2.2
1013.143	2.85
1013.567	5.8
1013.992	3.95
1014.417	2.2
1014.842	1.4
1015.267	2.75
1015.691	3.9
1016.116	-1.55
1016.541	1.95
1016.965	5.75
1017.39	3.4
1017.814	1.85
1018.239	-0.3
1018.663	-3.6
1019.088	-4.5
1019.512	3.9
1019.937	-3.2
1020.361	0.1
1020.785	-3.75
1021.21	0.95
1021.634	0.7
1022.058	2.35
1022.483	-3.1
1022.907	-0.9
1023.331	1.9
1023.755	-2.85
1024.179	-0.75
1024.604	-0.45
1025.028	3.85
1025.452	6.15
1025.876	3.25
1026.3	2.1
1026.724	-4.2
1027.148	0.85
1027.572	-3
1027.996	2.05
1028.42	-0.2
1028.843	0.6
1029.267	1.45
1029.691	2.95
1030.115	-6.5
1030.539	-2.75
1030.962	-1.55
1031.386	-0.35
1031.81	-2
1032.233	-4.45
1032.657	-4.7
1033.08	-5.25
1033.504	-4.8
1033.927	-2.7
1034.351	-6.4
1034.774	-1.6
1035.198	1.35
1035.621	1.05
1036.045	-2.8
1036.468	0.2
1036.891	0.55
1037.315	3.65
1037.738	0.3
1038.161	1.25
1038.584	3.9
1039.008	-3.85
1039.431	-1.3
1039.854	-6.9
1040.277	4.25
1040.7	-0.15
1041.123	-2.7
1041.546	1.1
1041.969	-1.05
1042.392	3.95
1042.815	-6
1043.238	-3.05
1043.661	-3.2
1044.084	-2.55
1044.507	-3.85
1044.93	-2.15
1045.352	-0.95
1045.775	0.6
1046.198	4.1
1046.621	1.55
1047.043	-4.4
1047.466	-0.2
1047.889	-4.45
1048.311	2.25
1048.734	-2.5
1049.156	-0.35
1049.579	-0.55
1050.001	-1.8
1050.424	-1.75
1050.846	-3.9
1051.269	-0.3
1051.691	0.35
1052.113	0.05
1052.536	-2.3
1052.958	-3.05
1053.38	-3.45
1053.802	1
1054.225	1.55
1054.647	-0.35
1055.069	-3.05
1055.491	-4.5
1055.913	-0.45
1056.335	-7.9
1056.757	-4.05
1057.179	-4.4
1057.601	-1.65
1058.023	0.2
1058.445	-6.3
1058.867	-1.65
1059.289	-0.25
1059.711	-3.35
1060.133	1.55
1060.555	-3.75
1060.976	-0.05
1061.398	0.05
1061.82	-0.8
1062.241	-3.05
1062.663	1.15
1063.085	-2.85
1063.506	-3.65
1063.928	0.15
1064.35	-0.3
1064.771	-2.1
1065.193	-5
1065.614	-3.5
1066.035	1.55
1066.457	4.3
1066.878	-1.45
1067.3	0.15
1067.721	1.75
1068.142	-1.55
1068.564	0.6
1068.985	-2.2
1069.406	-3.85
1069.827	2.15
1070.248	-0.55
1070.67	-3.55
1071.091	-2.8
1071.512	-2.7
1071.933	0.7
1072.354	-10.2
1072.775	-4.9
1073.196	-2.75
1073.617	-4.45
1074.038	-4.25
1074.459	-3.3
1074.88	-3.8
1075.3	-3.7
1075.721	0.65
1076.142	-0.25
1076.563	-11.95
1076.983	1
1077.404	-8.6
1077.825	-0.95
1078.246	-4.95
1078.666	-3.1
1079.087	-4.25
1079.507	-6.25
1079.928	-0.15
1080.348	1.8
1080.769	1.2
1081.189	-3.7
1081.61	-4.2
1082.03	2.7
1082.451	-0.15
1082.871	-6.6
1083.291	-3.95
1083.711	-3.4
1084.132	-4.2
1084.552	-5.85
1084.972	-8.5
1085.392	-3.85
1085.813	-2.35
1086.233	-5.05
1086.653	-1.7
1087.073	-4.05
1087.493	-3.4
1087.913	-1.65
1088.333	-3
1088.753	-1.3
1089.173	3.1
1089.593	-1
1090.013	-4.15
1090.433	-6.65
1090.852	-0.9
1091.272	-6.5
1091.692	3.9
1092.112	-3.4
1092.531	-6.8
1092.951	-3.9
1093.371	-4.95
1093.79	-3.45
1094.21	-5.75
1094.63	-1.3
1095.049	-1.3
1095.469	-6.7
1095.888	-1.7
1096.308	-5.7
1096.727	-5.25
1097.146	-2.25
1097.566	1.45
1097.985	-4.85
1098.405	-1.25
1098.824	1.35
1099.243	-1.65
1099.662	-2.95
1100.082	-5.65
1100.501	-2.3
1100.92	6.9
1101.339	0.8
1101.758	2.45
