Data from MSPlasma+Separation6_Subt14_10-15-17-457.txt Node
Date: Fri Jul 21 10:15:17 EDT 2017
User: Ender
Spectrometer: HR+D1039
Trigger mode: 0
Integration Time (sec): 6.430000E-3
Scans to average: 20
Electric dark correction enabled: true
Nonlinearity correction enabled: false
Boxcar width: 0
XAxis mode: Wavelengths
Number of Pixels in Spectrum: 2048
>>>>>Begin Spectral Data<<<<<
187.836	-0.76
188.309	-0.76
188.782	-0.76
189.255	5.14
189.728	0.14
190.201	-6.06
190.674	2.74
191.147	-1.36
191.619	-1.51
192.092	0.64
192.565	-3.31
193.038	2.44
193.511	5.14
193.984	0.24
194.456	-1.81
194.929	-0.46
195.402	-2.96
195.874	1.74
196.347	3.94
196.82	-0.26
197.292	-6.51
197.765	-2.01
198.237	-2.71
198.71	-3.56
199.182	0.54
199.655	2.29
200.127	3.49
200.6	0.44
201.072	5.39
201.544	-2.41
202.017	-0.86
202.489	1.29
202.961	-4.66
203.433	-2.46
203.906	1.94
204.378	4.84
204.85	5.09
205.322	1.69
205.794	8.59
206.266	3.99
206.739	4.44
207.211	-0.91
207.683	2.79
208.155	1.49
208.627	-1.01
209.099	2.34
209.57	3.74
210.042	4.24
210.514	4.44
210.986	16.94
211.458	26.89
211.93	11.69
212.402	4.24
212.873	-0.66
213.345	-4.71
213.817	2.19
214.288	-0.71
214.76	5.59
215.232	2.04
215.703	0.34
216.175	5.89
216.646	4.09
217.118	2.39
217.589	-3.96
218.061	3.19
218.532	2.59
219.004	9.14
219.475	13.64
219.946	26.84
220.418	38.39
220.889	21.39
221.36	13.04
221.832	2.74
222.303	8.49
222.774	6.69
223.245	-0.06
223.717	-0.21
224.188	5.49
224.659	6.04
225.13	-0.21
225.601	3.74
226.072	3.74
226.543	8.14
227.014	4.24
227.485	11.64
227.956	9.69
228.427	12.29
228.898	12.19
229.369	10.59
229.839	4.84
230.31	11.79
230.781	13.04
231.252	13.29
231.722	24.94
232.193	36.24
232.664	38.04
233.135	57.79
233.605	63.09
234.076	45.99
234.546	37.34
235.017	46.19
235.487	37.89
235.958	48.24
236.428	62.59
236.899	107.84
237.369	116.29
237.84	84.24
238.31	109.24
238.78	110.74
239.251	109.09
239.721	112.49
240.191	83.84
240.662	53.89
241.132	38.74
241.602	48.44
242.072	73.59
242.542	85.99
243.013	58.89
243.483	58.79
243.953	39.84
244.423	39.54
244.893	50.59
245.363	58.19
245.833	52.54
246.303	62.14
246.773	83.44
247.243	80.29
247.712	94.64
248.182	113.34
248.652	118.89
249.122	174.74
249.592	328.54
250.061	493.89
250.531	784.24
251.001	590.84
251.471	495.04
251.94	371.84
252.41	196.04
252.879	138.39
253.349	103.39
253.818	84.14
254.288	71.34
254.757	74.44
255.227	99.79
255.696	80.89
256.166	70.69
256.635	75.64
257.105	96.79
257.574	129.49
258.043	131.54
258.513	233.44
258.982	297.34
259.451	208.69
259.92	215.29
260.389	194.44
260.859	139.39
261.328	167.89
261.797	245.24
262.266	210.54
262.735	100.24
263.204	61.49
263.673	53.74
264.142	46.94
264.611	54.09
265.08	55.49
265.549	62.74
266.018	53.29
266.487	56.84
266.955	53.39
267.424	64.49
267.893	61.34
268.362	59.04
268.83	58.19
269.299	64.09
269.768	71.74
270.236	90.89
270.705	94.29
271.174	91.84
271.642	99.34
272.111	119.49
272.579	188.39
273.048	293.34
273.516	371.74
273.985	381.64
274.453	292.19
274.922	169.39
275.39	111.14
275.858	105.79
276.327	84.34
276.795	88.29
277.263	100.19
277.731	129.49
278.2	247.39
278.668	324.89
279.136	249.89
279.604	160.59
280.072	100.34
280.54	83.49
281.008	91.54
281.477	90.94
281.945	94.99
282.413	94.79
282.881	95.44
283.348	96.04
283.816	102.09
284.284	109.69
284.752	103.49
285.22	106.69
285.688	117.99
286.156	201.14
286.623	552.59
287.091	1091.94
287.559	557.64
288.026	210.24
288.494	135.34
288.962	111.69
289.429	105.64
289.897	102.39
290.364	91.44
290.832	92.04
291.3	94.29
291.767	101.54
292.234	102.59
292.702	105.84
293.169	116.34
293.637	126.14
294.104	118.24
294.571	116.84
295.039	113.24
295.506	113.14
295.973	115.74
296.44	110.19
296.908	121.14
297.375	142.59
297.842	137.29
298.309	123.34
298.776	116.64
299.243	127.24
299.71	121.79
300.177	113.64
300.644	135.29
301.111	151.34
301.578	132.79
302.045	124.84
302.512	124.09
302.979	128.64
303.446	140.09
303.913	141.09
304.379	144.04
304.846	161.69
305.313	181.19
305.78	206.94
306.246	258.39
306.713	272.04
307.18	239.44
307.646	266.74
308.113	232.94
308.579	180.34
309.046	178.44
309.512	180.44
309.979	166.24
310.445	156.59
310.912	157.99
311.378	162.19
311.845	160.09
312.311	154.64
312.777	153.94
313.244	164.19
313.71	170.79
314.176	186.29
314.642	209.44
315.109	248.94
315.575	233.04
316.041	211.29
316.507	195.79
316.973	219.39
317.439	214.39
317.905	241.49
318.371	232.74
318.837	223.99
319.303	236.99
319.769	216.59
320.235	238.89
320.701	278.64
321.167	302.99
321.633	360.19
322.099	504.79
322.564	686.69
323.03	528.44
323.496	369.84
323.962	350.29
324.427	325.49
324.893	281.79
325.359	270.09
325.824	230.54
326.29	249.64
326.755	250.09
327.221	250.64
327.686	261.04
328.152	236.44
328.617	226.54
329.083	228.29
329.548	244.19
330.014	254.84
330.479	273.09
330.944	321.29
331.41	368.49
331.875	352.39
332.34	363.49
332.805	424.09
333.271	544.74
333.736	722.49
334.201	642.74
334.666	477.79
335.131	542.19
335.596	425.64
336.061	456.24
336.526	454.89
336.991	395.64
337.456	433.19
337.921	340.14
338.386	279.44
338.851	252.69
339.316	233.74
339.781	231.49
340.246	230.59
340.711	225.19
341.175	241.49
341.64	245.59
342.105	250.39
342.569	261.59
343.034	277.84
343.499	286.19
343.963	274.44
344.428	273.49
344.893	276.69
345.357	287.74
345.822	278.64
346.286	283.44
346.751	301.84
347.215	294.84
347.679	300.29
348.144	324.44
348.608	320.24
349.073	334.94
349.537	368.79
350.001	364.64
350.465	335.84
350.93	328.29
351.394	326.59
351.858	328.04
352.322	336.19
352.786	344.34
353.25	335.99
353.715	335.79
354.179	356.59
354.643	373.64
355.107	387.24
355.571	405.49
356.035	414.64
356.498	396.94
356.962	428.34
357.426	422.89
357.89	379.69
358.354	357.29
358.818	356.24
359.281	362.64
359.745	383.14
360.209	373.84
360.673	384.84
361.136	382.64
361.6	383.24
362.064	411.69
362.527	419.79
362.991	420.59
363.454	413.94
363.918	416.54
364.381	415.79
364.845	405.19
365.308	394.54
365.772	392.34
366.235	405.94
366.698	423.14
367.162	518.34
367.625	576.54
368.088	463.69
368.552	421.79
369.015	430.84
369.478	459.29
369.941	469.54
370.404	481.54
370.867	505.79
371.331	516.44
371.794	519.74
372.257	588.34
372.72	620.14
373.183	584.84
373.646	596.09
374.109	594.34
374.572	699.74
375.035	810.29
375.497	614.99
375.96	487.69
376.423	465.39
376.886	469.24
377.349	474.54
377.811	484.19
378.274	483.59
378.737	497.14
379.199	511.84
379.662	531.64
380.125	565.69
380.587	625.14
381.05	659.64
381.512	657.39
381.975	632.79
382.437	628.89
382.9	634.74
383.362	633.54
383.825	673.89
384.287	851.29
384.75	951.74
385.212	843.29
385.674	687.29
386.136	629.49
386.599	617.24
387.061	646.74
387.523	668.14
387.985	674.34
388.447	694.29
388.91	779.74
389.372	951.54
389.834	897.49
390.296	735.59
390.758	735.99
391.22	758.94
391.682	935.84
392.144	1448.64
392.606	1343.14
393.068	792.99
393.529	725.34
393.991	708.29
394.453	691.14
394.915	730.44
395.377	877.89
395.838	1078.19
396.3	765.89
396.762	605.04
397.224	581.94
397.685	561.84
398.147	571.29
398.608	576.74
399.07	586.99
399.531	576.44
399.993	584.94
400.454	598.79
400.916	587.49
401.377	605.24
401.839	615.14
402.3	615.04
402.762	641.99
403.223	713.69
403.684	721.79
404.145	662.29
404.607	643.89
405.068	645.69
405.529	660.69
405.99	663.09
406.451	681.29
406.913	661.39
407.374	668.89
407.835	683.64
408.296	701.94
408.757	707.04
409.218	726.79
409.679	733.44
410.14	742.74
410.601	784.79
411.062	812.44
411.522	942.19
411.983	1028.29
412.444	879.59
412.905	772.54
413.366	774.49
413.826	803.79
414.287	890.59
414.748	1067.14
415.208	1084.04
415.669	900.99
416.13	828.84
416.59	805.14
417.051	835.19
417.511	876.24
417.972	937.54
418.432	1005.94
418.893	1131.04
419.353	1068.54
419.814	818.34
420.274	738.89
420.734	735.19
421.195	782.79
421.655	811.29
422.115	793.54
422.576	763.94
423.036	767.74
423.496	799.89
423.956	829.84
424.416	885.04
424.876	997.19
425.336	999.64
425.797	1004.59
426.257	997.74
426.717	932.14
427.177	875.54
427.637	914.44
428.097	953.34
428.556	997.69
429.016	1080.39
429.476	1073.19
429.936	1038.24
430.396	999.94
430.856	1015.49
431.315	1046.19
431.775	1121.94
432.235	1187.39
432.694	1203.19
433.154	1131.79
433.614	1087.69
434.073	1053.69
434.533	964.29
434.993	934.99
435.452	939.39
435.912	928.79
436.371	917.04
436.83	927.34
437.29	934.34
437.749	883.14
438.209	865.64
438.668	885.89
439.127	891.89
439.587	875.69
440.046	835.49
440.505	857.59
440.964	856.69
441.424	884.69
441.883	899.34
442.342	852.29
442.801	819.84
443.26	845.69
443.719	843.49
444.178	834.39
444.637	840.19
445.096	845.04
445.555	856.49
446.014	852.79
446.473	829.74
446.932	828.79
447.391	846.69
447.849	860.89
448.308	855.24
448.767	870.34
449.226	896.09
449.685	894.59
450.143	933.04
450.602	936.79
451.061	897.09
451.519	911.69
451.978	939.44
452.436	972.69
452.895	920.39
453.353	889.89
453.812	898.39
454.27	895.24
454.729	859.39
455.187	870.04
455.646	876.04
456.104	886.34
456.562	877.69
457.021	867.89
457.479	843.24
457.937	859.59
458.395	880.04
458.854	876.74
459.312	860.39
459.77	870.94
460.228	880.69
460.686	891.34
461.144	904.54
461.602	890.04
462.06	898.19
462.518	909.19
462.976	903.39
463.434	915.19
463.892	923.69
464.35	944.94
464.808	948.94
465.266	965.49
465.724	970.54
466.181	982.69
466.639	974.74
467.097	1017.99
467.555	1052.79
468.012	1038.84
468.47	1051.29
468.928	1088.29
469.385	1111.69
469.843	1126.29
470.3	1117.19
470.758	1158.39
471.215	1173.09
471.673	1198.69
472.13	1230.84
472.588	1258.99
473.045	1249.94
473.503	1274.14
473.96	1331.74
474.417	1348.64
474.875	1410.79
475.332	1456.54
475.789	1481.29
476.246	1526.09
476.704	1590.84
477.161	1619.29
477.618	1685.94
478.075	1753.74
478.532	1901.24
478.989	2041.74
479.446	2256.89
479.903	2393.54
480.36	2612.09
480.817	2788.49
481.274	2990.94
481.731	3274.34
482.188	3509.94
482.645	3804.54
483.102	4028.84
483.558	4319.09
484.015	4538.94
484.472	4543.89
484.929	4399.74
485.385	4197.44
485.842	4086.29
486.299	3885.14
486.755	3513.79
487.212	3152.09
487.668	2836.89
488.125	2645.94
488.582	2427.44
489.038	2327.84
489.494	2256.89
489.951	2196.14
490.407	2134.19
490.864	2118.79
491.32	2064.49
491.776	2025.49
492.233	2024.54
492.689	2002.04
493.145	1974.69
493.602	1958.14
494.058	2008.69
494.514	2056.39
494.97	2043.64
495.426	2065.24
495.882	2075.09
496.338	2093.99
496.794	2170.94
497.251	2190.59
497.707	2188.39
498.163	2200.79
498.618	2186.29
499.074	2204.09
499.53	2258.34
499.986	2287.69
500.442	2317.89
500.898	2305.84
501.354	2351.09
501.809	2351.04
502.265	2392.09
502.721	2510.59
503.177	2580.04
503.632	2441.44
504.088	2463.29
504.543	2696.34
504.999	2526.04
505.455	2226.49
505.91	2115.99
506.366	2090.39
506.821	2078.69
507.277	2062.34
507.732	2068.74
508.187	2076.64
508.643	2087.94
509.098	2094.19
509.553	2117.09
510.009	2142.89
510.464	2185.39
510.919	2211.64
511.375	2246.39
511.83	2252.39
512.285	2298.29
512.74	2348.49
513.195	2388.79
513.65	2430.74
514.105	2460.44
514.56	2471.49
515.015	2523.94
515.47	2568.09
515.925	2539.74
516.38	2537.49
516.835	2523.19
517.29	2516.39
517.745	2526.64
518.2	2486.39
518.655	2408.79
519.109	2380.29
519.564	2353.39
520.019	2347.79
520.474	2308.09
520.928	2290.84
521.383	2286.34
521.838	2282.39
522.292	2254.24
522.747	2224.34
523.201	2204.89
523.656	2185.84
524.11	2188.44
524.565	2184.04
525.019	2182.84
525.474	2199.19
525.928	2191.04
526.382	2172.59
526.837	2150.09
527.291	2169.79
527.745	2161.24
528.2	2144.04
528.654	2117.49
529.108	2136.89
529.562	2145.54
530.016	2140.74
530.47	2133.94
530.925	2154.34
531.379	2160.44
531.833	2182.69
532.287	2158.59
532.741	2147.84
533.195	2153.84
533.649	2148.19
534.103	2144.29
534.556	2143.64
535.01	2150.29
535.464	2142.44
535.918	2160.84
536.372	2164.59
536.826	2156.14
537.279	2145.69
537.733	2137.24
538.187	2156.44
538.64	2153.99
539.094	2179.19
539.548	2205.14
540.001	2189.64
540.455	2196.54
540.908	2215.44
541.362	2243.29
541.815	2263.04
542.269	2305.09
542.722	2288.84
543.175	2321.64
543.629	2341.14
544.082	2360.39
544.536	2372.29
544.989	2382.19
545.442	2394.14
545.895	2375.09
546.349	2387.74
546.802	2401.84
547.255	2399.24
547.708	2415.14
548.161	2429.69
548.614	2435.99
549.067	2446.99
549.52	2432.44
549.973	2401.24
550.426	2394.64
550.879	2359.69
551.332	2362.29
551.785	2383.34
552.238	2405.79
552.691	2406.54
553.144	2434.79
553.596	2471.79
554.049	2514.54
554.502	2564.39
554.955	2612.29
555.407	2645.84
555.86	2614.94
556.313	2581.89
556.765	2570.69
557.218	2517.24
557.67	2526.19
558.123	2499.04
558.576	2472.29
559.028	2480.44
559.48	2501.99
559.933	2491.99
560.385	2413.09
560.838	2339.54
561.29	2262.69
561.742	2250.24
562.195	2207.04
562.647	2205.69
563.099	2191.64
563.551	2175.69
564.004	2193.99
564.456	2195.04
564.908	2152.84
565.36	2101.84
565.812	2055.64
566.264	2031.24
566.716	2016.44
567.168	1984.79
567.62	1994.99
568.072	1981.19
568.524	1944.99
568.976	1934.29
569.428	1924.19
569.88	1914.09
570.332	1943.24
570.784	1919.99
571.235	1916.94
571.687	1936.74
572.139	1930.84
572.59	1951.19
573.042	1956.64
573.494	1952.19
573.945	1920.24
574.397	1879.34
574.849	1894.14
575.3	1896.29
575.752	1870.19
576.203	1853.84
576.655	1855.49
577.106	1822.69
577.557	1833.94
578.009	1813.29
578.46	1828.64
578.912	1798.69
579.363	1816.89
579.814	1812.09
580.265	1812.99
580.717	1809.44
581.168	1813.99
581.619	1828.04
582.07	1843.69
582.521	1835.54
582.972	1831.49
583.423	1853.99
583.875	1884.34
584.326	1999.54
584.777	2190.84
585.227	2389.54
585.678	2554.24
586.129	2610.54
586.58	2658.89
587.031	2680.64
587.482	2864.69
587.933	3367.34
588.384	3062.49
588.834	2511.44
589.285	2129.19
589.736	2072.89
590.186	2076.44
590.637	2053.54
591.088	2022.89
591.538	1984.14
591.989	1973.04
592.439	1949.99
592.89	1946.24
593.34	1944.14
593.791	1965.04
594.241	1980.79
594.692	2001.04
595.142	1978.09
595.593	1939.14
596.043	1951.04
596.493	1968.34
596.943	2017.99
597.394	1989.89
597.844	1962.94
598.294	1988.09
598.744	2060.54
599.195	2172.09
599.645	2286.29
600.095	2409.59
600.545	2517.44
600.995	2634.09
601.445	2719.99
601.895	2845.24
602.345	2931.04
602.795	2879.84
603.245	2761.44
603.695	2592.84
604.145	2439.34
604.594	2316.39
605.044	2207.99
605.494	2074.24
605.944	1970.19
606.393	1939.24
606.843	1907.74
607.293	1906.69
607.743	1901.34
608.192	1913.44
608.642	1920.79
609.091	1917.69
609.541	1926.69
609.99	1912.14
610.44	1884.89
610.889	1858.14
611.339	1833.94
611.788	1825.19
612.238	1855.09
612.687	1868.44
613.136	1894.19
613.586	1936.64
614.035	1929.39
614.484	1954.19
614.933	1962.49
615.383	1928.84
615.832	1852.29
616.281	1810.89
616.73	1752.39
617.179	1716.29
617.628	1665.84
618.077	1650.29
618.526	1613.99
618.975	1605.19
619.424	1575.59
619.873	1596.39
620.322	1569.99
620.771	1572.09
621.22	1543.69
621.669	1506.29
622.118	1508.89
622.567	1494.59
623.015	1471.29
623.464	1464.09
623.913	1436.19
624.361	1446.34
624.81	1448.24
625.259	1428.69
625.707	1416.94
626.156	1424.29
626.604	1445.04
627.053	1448.14
627.501	1433.54
627.95	1446.59
628.398	1469.09
628.847	1451.99
629.295	1454.94
629.744	1473.69
630.192	1519.44
630.64	1639.64
631.089	1804.89
631.537	1891.74
631.985	1890.09
632.433	1974.09
632.881	1972.64
633.33	2374.44
633.778	2592.84
634.226	1821.19
634.674	1681.59
635.122	1662.29
635.57	1685.04
636.018	1985.49
636.466	1590.99
636.914	1416.94
637.362	1412.04
637.81	1430.29
638.258	1462.79
638.705	1465.59
639.153	1504.79
639.601	1523.34
640.049	1551.24
640.497	1602.49
640.944	1639.14
641.392	1558.74
641.84	1468.74
642.287	1421.59
642.735	1387.89
643.182	1379.34
643.63	1385.39
644.078	1394.89
644.525	1405.69
644.973	1449.14
645.42	1461.29
645.867	1479.14
646.315	1511.94
646.762	1560.64
647.21	1598.54
647.657	1678.89
648.104	1744.29
648.551	1804.69
648.999	1953.19
649.446	2147.84
649.893	2415.34
650.34	2830.79
650.787	3519.54
651.234	4569.59
651.682	6382.99
652.129	9121.84
652.576	13079.84
653.023	15535.84
653.47	15539.04
653.917	15539.09
654.363	15538.99
654.81	15535.99
655.257	15536.64
655.704	15540.44
656.151	9806.84
656.598	6367.34
657.044	4517.39
657.491	3526.04
657.938	2859.09
658.385	2416.24
658.831	2158.09
659.278	1922.69
659.724	1765.89
660.171	1637.69
660.618	1524.49
661.064	1436.39
661.511	1390.94
661.957	1347.14
662.404	1319.54
662.85	1300.54
663.296	1296.09
663.743	1258.09
664.189	1242.99
664.635	1236.79
665.082	1212.24
665.528	1200.79
665.974	1178.79
666.42	1170.99
666.867	1184.69
667.313	1194.34
667.759	1252.29
668.205	1254.89
668.651	1267.14
669.097	1234.79
669.543	1342.29
669.989	1258.34
670.435	1102.84
670.881	1090.84
671.327	1140.19
671.773	1221.09
672.219	1312.44
672.665	1393.89
673.11	1436.74
673.556	1443.74
674.002	1484.59
674.448	1502.69
674.893	1268.99
675.339	1110.04
675.785	1028.74
676.23	977.49
676.676	943.59
677.122	911.79
677.567	888.89
678.013	860.64
678.458	853.64
678.904	859.29
679.349	853.84
679.794	842.14
680.24	845.94
680.685	835.04
681.131	838.49
681.576	845.09
682.021	843.24
682.466	850.74
682.912	865.29
683.357	903.19
683.802	977.34
684.247	1077.04
684.692	1146.24
685.137	1191.29
685.583	1202.89
686.028	1264.54
686.473	1199.24
686.918	1040.64
687.363	952.84
687.807	907.44
688.252	861.84
688.697	826.14
689.142	806.94
689.587	814.74
690.032	828.94
690.477	860.79
690.921	907.09
691.366	954.19
691.811	994.14
692.255	1068.29
692.7	1318.94
693.145	1900.24
693.589	2885.44
694.034	3411.09
694.478	3620.49
694.923	3296.79
695.367	4660.09
695.812	2816.09
696.256	1197.79
696.701	883.39
697.145	828.84
697.59	799.79
698.034	789.94
698.478	788.19
698.922	791.89
699.367	814.59
699.811	851.44
700.255	931.64
700.699	1012.39
701.143	1097.69
701.588	1151.89
702.032	1190.89
702.476	1223.39
702.92	1303.09
703.364	1729.89
703.808	2649.59
704.252	3287.54
704.696	3433.89
705.14	3230.14
705.584	4415.99
706.027	2446.84
706.471	1234.74
706.915	925.59
707.359	828.39
707.803	783.19
708.246	752.49
708.69	750.34
709.134	742.79
709.577	740.69
710.021	749.44
710.465	740.94
710.908	741.84
711.352	773.24
711.795	850.89
712.239	930.64
712.682	948.84
713.126	940.19
713.569	1044.69
714.012	864.64
714.456	758.49
714.899	708.89
715.342	668.59
715.786	635.29
716.229	617.64
716.672	602.94
717.115	606.49
717.558	614.39
718.002	633.99
718.445	664.04
718.888	695.19
719.331	706.54
719.774	719.29
720.217	710.14
720.66	661.19
721.103	628.34
721.546	594.19
721.989	582.14
722.432	579.59
722.874	571.09
723.317	584.09
723.76	633.94
724.203	787.09
724.645	1042.94
725.088	1211.49
725.531	1176.24
725.974	1292.49
726.416	1157.79
726.859	725.54
727.301	605.39
727.744	570.04
728.187	573.04
728.629	573.89
729.071	610.94
729.514	635.19
729.956	659.09
730.399	666.34
730.841	664.39
731.283	642.49
731.726	633.49
732.168	641.54
732.61	679.69
733.053	732.04
733.495	808.99
733.937	893.49
734.379	1066.64
734.821	1359.69
735.263	2181.94
735.705	3925.24
736.148	5678.74
736.59	5607.84
737.032	6047.29
737.474	4992.49
737.916	1916.64
738.357	1011.74
738.799	784.99
739.241	727.29
739.683	728.49
740.125	738.74
740.567	739.04
741.008	775.04
741.45	809.14
741.892	837.19
742.334	831.49
742.775	814.09
743.217	774.14
743.658	684.39
744.1	679.64
744.542	765.69
744.983	790.79
745.425	820.49
745.866	810.19
746.307	728.04
746.749	800.74
747.19	1180.29
747.632	2311.34
748.073	4284.24
748.514	5830.99
748.956	7711.09
749.397	8950.94
749.838	6162.99
750.279	5840.34
750.72	3003.04
751.162	1273.44
751.603	737.19
752.044	591.24
752.485	522.94
752.926	486.94
753.367	468.24
753.808	459.89
754.249	453.04
754.69	448.39
755.131	439.24
755.572	442.14
756.013	446.79
756.453	446.89
756.894	449.74
757.335	452.34
757.776	459.94
758.216	476.54
758.657	506.19
759.098	567.09
759.538	688.14
759.979	983.74
760.42	2028.39
760.86	5229.29
761.301	10613.04
761.741	12216.99
762.182	13836.04
762.622	8965.99
763.063	3253.89
763.503	1444.49
763.943	1101.14
764.384	1186.04
764.824	1119.44
765.264	1114.34
765.705	790.84
766.145	565.59
766.585	503.89
767.025	538.94
767.465	701.29
767.906	856.04
768.346	891.59
768.786	927.49
769.226	955.99
769.666	1656.04
770.106	3610.04
770.546	4995.04
770.986	5574.74
771.426	4177.39
771.866	1762.44
772.306	1130.69
772.745	848.24
773.185	786.19
773.625	792.54
774.065	869.64
774.505	1202.94
774.944	2062.84
775.384	2904.09
775.824	3237.34
776.263	2701.44
776.703	1499.74
777.142	943.84
777.582	757.04
778.021	716.64
778.461	692.44
778.9	687.24
779.34	665.74
779.779	651.14
780.219	639.39
780.658	630.49
781.097	630.19
781.537	625.64
781.976	622.89
782.415	617.69
782.855	624.94
783.294	623.09
783.733	619.39
784.172	619.49
784.611	621.84
785.05	627.09
785.489	626.24
785.928	630.99
786.367	652.19
786.806	658.29
787.245	675.64
787.684	688.09
788.123	681.44
788.562	671.69
789.001	659.14
789.44	652.69
789.879	651.94
790.317	652.49
790.756	675.49
791.195	724.24
791.634	849.29
792.072	1242.24
792.511	2530.64
792.95	4294.94
793.388	5035.79
793.827	3383.04
794.265	1753.99
794.704	1034.24
795.142	767.99
795.581	706.14
796.019	674.44
796.458	668.44
796.896	681.34
797.334	729.09
797.773	857.24
798.211	1305.09
798.649	2319.19
799.087	3647.54
799.526	4947.69
799.964	5038.74
800.402	3541.04
800.84	1817.94
801.278	1077.44
801.716	798.84
802.154	717.84
802.592	699.79
803.03	699.74
803.468	707.49
803.906	710.04
804.344	695.24
804.782	694.64
805.22	693.09
805.658	706.94
806.096	726.19
806.533	774.89
806.971	876.89
807.409	1123.19
807.847	1909.79
808.284	4286.19
808.722	7121.44
809.16	9864.34
809.597	13173.79
810.035	15110.74
810.472	10438.69
810.91	4677.94
811.347	2295.09
811.785	1275.34
812.222	939.39
812.66	803.64
813.097	746.14
813.535	696.29
813.972	661.34
814.409	641.64
814.846	624.44
815.284	612.74
815.721	621.74
816.158	637.59
816.595	716.29
817.032	781.74
817.47	748.44
817.907	667.89
818.344	631.94
818.781	622.94
819.218	668.79
819.655	794.89
820.092	904.89
820.529	870.89
820.966	781.79
821.403	678.39
821.839	639.99
822.276	656.34
822.713	692.94
823.15	678.74
823.587	716.34
824.023	1004.89
824.46	1972.64
824.897	3120.84
825.333	2465.19
825.77	1336.79
826.206	876.04
826.643	667.59
827.08	590.84
827.516	565.49
827.953	555.79
828.389	542.99
828.825	535.24
829.262	529.89
829.698	524.14
830.135	516.29
830.571	517.24
831.007	514.79
831.443	522.34
831.88	526.99
832.316	529.04
832.752	524.29
833.188	527.19
833.624	522.94
834.06	530.99
834.497	526.89
834.933	531.69
835.369	544.09
835.805	555.94
836.241	566.54
836.677	583.79
837.112	619.29
837.548	680.99
837.984	830.34
838.42	1382.09
838.856	3177.64
839.292	5827.99
839.727	4342.14
840.163	3110.44
840.599	4570.04
841.034	6668.89
841.47	3484.49
841.906	1902.34
842.341	1239.99
842.777	1135.74
843.212	1279.49
843.648	899.69
844.083	699.79
844.519	598.44
844.954	551.04
845.39	526.84
845.825	519.04
846.261	510.44
846.696	505.89
847.131	499.84
847.566	499.24
848.002	500.89
848.437	511.99
848.872	520.34
849.307	558.84
849.742	718.34
850.177	1278.89
850.613	2302.89
851.048	1722.39
851.483	993.44
851.918	720.59
852.353	575.59
852.788	532.39
853.223	502.39
853.657	486.79
854.092	485.89
854.527	480.04
854.962	483.19
855.397	488.34
855.832	478.54
856.266	460.69
856.701	467.79
857.136	471.09
857.57	486.59
858.005	502.79
858.44	486.09
858.874	487.69
859.309	488.44
859.743	486.14
860.178	476.24
860.612	488.29
861.047	524.24
861.481	565.09
861.915	509.59
862.35	479.49
862.784	463.19
863.218	461.89
863.653	466.69
864.087	484.49
864.521	529.19
864.955	638.49
865.39	814.39
865.824	684.64
866.258	729.34
866.692	883.59
867.126	739.19
867.56	574.59
867.994	507.89
868.428	489.64
868.862	515.09
869.296	503.84
869.73	528.99
870.164	506.94
870.598	494.94
871.031	464.09
871.465	455.14
871.899	444.54
872.333	435.74
872.766	433.24
873.2	440.54
873.634	440.09
874.067	444.74
874.501	441.74
874.935	445.89
875.368	443.29
875.802	436.69
876.235	431.44
876.669	428.09
877.102	423.14
877.535	427.34
877.969	421.44
878.402	427.79
878.836	426.29
879.269	428.69
879.702	422.84
880.135	432.34
880.569	435.24
881.002	427.14
881.435	425.54
881.868	422.49
882.301	415.89
882.734	418.39
883.167	419.19
883.601	421.94
884.034	421.84
884.467	414.34
884.899	417.19
885.332	414.04
885.765	413.04
886.198	416.89
886.631	410.94
887.064	411.64
887.497	410.59
887.929	410.44
888.362	406.34
888.795	410.84
889.228	417.94
889.66	414.24
890.093	410.29
890.526	412.54
890.958	413.34
891.391	413.79
891.823	409.09
892.256	415.24
892.688	414.39
893.121	406.44
893.553	412.79
893.985	407.19
894.418	403.34
894.85	409.89
895.282	406.94
895.715	403.39
896.147	404.54
896.579	402.54
897.011	408.04
897.444	409.44
897.876	401.94
898.308	402.19
898.74	407.94
899.172	410.09
899.604	411.69
900.036	408.04
900.468	401.64
900.9	409.74
901.332	419.29
901.764	420.24
902.196	417.04
902.628	414.69
903.06	434.34
903.491	439.39
903.923	427.64
904.355	432.99
904.787	435.44
905.218	419.89
905.65	421.79
906.082	417.89
906.513	416.09
906.945	416.49
907.376	420.19
907.808	423.39
908.239	428.89
908.671	430.29
909.102	431.04
909.534	463.84
909.965	541.24
910.397	819.99
910.828	1648.69
911.259	1137.34
911.691	785.99
912.122	614.39
912.553	490.89
912.984	438.84
913.415	429.29
913.847	421.64
914.278	418.44
914.709	410.19
915.14	408.39
915.571	410.99
916.002	409.99
916.433	404.54
916.864	406.29
917.295	409.84
917.726	416.69
918.157	428.29
918.587	426.54
919.018	422.19
919.449	418.89
919.88	437.59
920.311	464.34
920.741	637.99
921.172	840.29
921.603	603.59
922.033	512.94
922.464	463.44
922.895	428.59
923.325	413.79
923.756	415.49
924.186	428.89
924.617	473.89
925.047	536.19
925.478	519.09
925.908	474.94
926.338	443.59
926.769	422.19
927.199	414.94
927.629	409.09
928.06	410.49
928.49	410.24
928.92	406.24
929.35	401.14
929.78	391.84
930.21	390.69
930.641	384.24
931.071	388.69
931.501	387.09
931.931	389.14
932.361	387.49
932.791	393.24
933.221	394.19
933.651	412.64
934.08	428.29
934.51	405.39
934.94	403.54
935.37	389.49
935.8	384.89
936.229	382.94
936.659	385.94
937.089	395.69
937.519	408.84
937.948	428.54
938.378	401.74
938.807	390.94
939.237	388.19
939.666	383.59
940.096	379.89
940.525	375.24
940.955	382.14
941.384	377.19
941.814	381.89
942.243	383.19
942.672	378.44
943.102	378.04
943.531	373.74
943.96	378.74
944.39	380.04
944.819	376.59
945.248	373.69
945.677	376.89
946.106	379.84
946.535	380.14
946.964	378.54
947.393	374.44
947.822	378.39
948.251	384.39
948.68	384.14
949.109	376.44
949.538	375.39
949.967	379.69
950.396	372.54
950.825	380.49
951.254	374.99
951.682	371.89
952.111	372.74
952.54	373.24
952.969	372.24
953.397	372.74
953.826	373.49
954.254	378.04
954.683	374.69
955.112	378.14
955.54	374.29
955.969	372.74
956.397	373.49
956.826	375.19
957.254	377.14
957.682	374.69
958.111	379.39
958.539	377.14
958.967	373.04
959.396	376.49
959.824	372.84
960.252	373.24
960.68	375.04
961.109	375.69
961.537	378.19
961.965	366.49
962.393	375.39
962.821	377.89
963.249	380.89
963.677	382.64
964.105	443.04
964.533	500.99
964.961	433.39
965.389	401.89
965.817	395.59
966.245	377.79
966.672	376.24
967.1	379.09
967.528	370.29
967.956	371.34
968.383	373.54
968.811	370.14
969.239	374.14
969.666	376.64
970.094	372.19
970.522	367.49
970.949	370.54
971.377	361.89
971.804	370.44
972.232	372.59
972.659	371.74
973.087	376.74
973.514	364.84
973.941	369.44
974.369	369.44
974.796	367.39
975.223	369.49
975.651	370.24
976.078	370.99
976.505	377.89
976.932	399.79
977.359	407.49
977.786	391.84
978.214	380.34
978.641	371.64
979.068	374.04
979.495	374.79
979.922	373.74
980.349	377.04
980.776	373.19
981.202	370.09
981.629	370.29
982.056	373.39
982.483	367.29
982.91	373.69
983.337	364.54
983.763	369.84
984.19	375.14
984.617	368.44
985.043	368.14
985.47	372.14
985.897	373.84
986.323	374.19
986.75	368.24
987.176	369.24
987.603	372.79
988.029	370.34
988.456	374.79
988.882	371.59
989.308	367.39
989.735	368.69
990.161	371.14
990.587	371.04
991.014	372.19
991.44	376.54
991.866	372.59
992.292	368.69
992.719	372.34
993.145	368.44
993.571	371.29
993.997	376.69
994.423	373.44
994.849	367.29
995.275	368.74
995.701	371.99
996.127	365.14
996.553	366.29
996.979	368.59
997.405	369.54
997.83	366.94
998.256	370.49
998.682	368.14
999.108	371.84
999.534	365.09
999.959	371.74
1000.385	371.59
1000.811	366.89
1001.236	364.99
1001.662	369.14
1002.087	372.14
1002.513	368.69
1002.938	369.14
1003.364	372.14
1003.789	373.39
1004.215	367.74
1004.64	367.69
1005.066	371.04
1005.491	372.49
1005.916	373.54
1006.342	370.94
1006.767	371.84
1007.192	370.09
1007.617	373.54
1008.042	369.09
1008.468	369.64
1008.893	376.59
1009.318	372.29
1009.743	379.84
1010.168	386.64
1010.593	386.74
1011.018	376.94
1011.443	373.44
1011.868	372.39
1012.293	371.89
1012.718	366.64
1013.143	368.89
1013.567	370.64
1013.992	368.54
1014.417	370.19
1014.842	365.99
1015.267	368.39
1015.691	372.44
1016.116	368.09
1016.541	370.84
1016.965	369.89
1017.39	370.14
1017.814	365.14
1018.239	366.39
1018.663	359.99
1019.088	366.49
1019.512	372.54
1019.937	365.24
1020.361	369.49
1020.785	366.04
1021.21	365.04
1021.634	367.94
1022.058	369.29
1022.483	364.04
1022.907	364.04
1023.331	365.39
1023.755	366.44
1024.179	364.19
1024.604	364.69
1025.028	366.14
1025.452	370.39
1025.876	369.64
1026.3	367.14
1026.724	362.69
1027.148	368.79
1027.572	370.39
1027.996	369.59
1028.42	368.19
1028.843	366.59
1029.267	366.04
1029.691	369.89
1030.115	367.99
1030.539	367.74
1030.962	365.79
1031.386	367.54
1031.81	364.09
1032.233	366.24
1032.657	360.89
1033.08	368.54
1033.504	362.79
1033.927	366.79
1034.351	365.49
1034.774	365.39
1035.198	364.74
1035.621	367.99
1036.045	367.84
1036.468	373.39
1036.891	364.89
1037.315	367.44
1037.738	368.94
1038.161	368.04
1038.584	362.09
1039.008	363.64
1039.431	367.24
1039.854	359.94
1040.277	368.79
1040.7	367.24
1041.123	365.69
1041.546	363.64
1041.969	368.94
1042.392	370.34
1042.815	360.94
1043.238	362.49
1043.661	367.69
1044.084	361.14
1044.507	365.49
1044.93	364.29
1045.352	367.29
1045.775	370.24
1046.198	369.39
1046.621	371.04
1047.043	363.79
1047.466	367.54
1047.889	365.79
1048.311	370.14
1048.734	364.69
1049.156	367.24
1049.579	366.44
1050.001	366.89
1050.424	370.64
1050.846	365.04
1051.269	362.54
1051.691	364.94
1052.113	364.34
1052.536	363.44
1052.958	362.94
1053.38	365.69
1053.802	363.29
1054.225	364.79
1054.647	367.94
1055.069	366.69
1055.491	367.19
1055.913	364.89
1056.335	360.34
1056.757	363.54
1057.179	368.29
1057.601	367.54
1058.023	371.89
1058.445	361.94
1058.867	368.04
1059.289	367.09
1059.711	362.84
1060.133	363.99
1060.555	362.69
1060.976	363.09
1061.398	366.94
1061.82	364.74
1062.241	363.09
1062.663	364.34
1063.085	366.74
1063.506	358.29
1063.928	360.64
1064.35	369.54
1064.771	366.59
1065.193	363.69
1065.614	362.29
1066.035	370.59
1066.457	368.34
1066.878	367.59
1067.3	368.19
1067.721	366.39
1068.142	368.74
1068.564	371.44
1068.985	365.84
1069.406	359.14
1069.827	367.59
1070.248	364.09
1070.67	362.79
1071.091	364.79
1071.512	359.79
1071.933	364.89
1072.354	359.69
1072.775	364.14
1073.196	369.19
1073.617	363.34
1074.038	363.44
1074.459	363.29
1074.88	365.14
1075.3	364.29
1075.721	366.24
1076.142	363.39
1076.563	362.19
1076.983	370.19
1077.404	364.24
1077.825	364.79
1078.246	361.14
1078.666	363.79
1079.087	363.69
1079.507	363.74
1079.928	364.39
1080.348	363.84
1080.769	364.49
1081.189	362.44
1081.61	360.64
1082.03	369.14
1082.451	365.44
1082.871	361.34
1083.291	364.34
1083.711	365.19
1084.132	363.09
1084.552	359.49
1084.972	359.89
1085.392	359.64
1085.813	365.69
1086.233	365.69
1086.653	368.54
1087.073	365.54
1087.493	364.94
1087.913	362.89
1088.333	364.29
1088.753	364.64
1089.173	366.94
1089.593	364.64
1090.013	366.49
1090.433	363.29
1090.852	367.09
1091.272	358.54
1091.692	365.14
1092.112	362.19
1092.531	359.54
1092.951	363.09
1093.371	364.99
1093.79	363.74
1094.21	361.29
1094.63	364.74
1095.049	366.59
1095.469	359.69
1095.888	363.24
1096.308	367.74
1096.727	361.74
1097.146	361.39
1097.566	365.29
1097.985	360.44
1098.405	364.24
1098.824	363.74
1099.243	359.79
1099.662	363.19
1100.082	361.79
1100.501	367.09
1100.92	366.04
1101.339	367.04
1101.758	371.54
