Data from MSPlasma+Separation6_Subt14_10-15-25-014.txt Node
Date: Fri Jul 21 10:15:25 EDT 2017
User: Ender
Spectrometer: HR+D1039
Trigger mode: 0
Integration Time (sec): 6.430000E-3
Scans to average: 20
Electric dark correction enabled: true
Nonlinearity correction enabled: false
Boxcar width: 0
XAxis mode: Wavelengths
Number of Pixels in Spectrum: 2048
>>>>>Begin Spectral Data<<<<<
187.836	-1.85
188.309	-1.85
188.782	-1.85
189.255	0.7
189.728	1.35
190.201	-2.4
190.674	0.4
191.147	0.65
191.619	-1.25
192.092	0.25
192.565	-3.1
193.038	4.25
193.511	1.55
193.984	0.65
194.456	-1
194.929	2.3
195.402	-4.75
195.874	2.25
196.347	2.8
196.82	2.85
197.292	-2.35
197.765	-2.1
198.237	-0.8
198.71	-2.4
199.182	2.4
199.655	3.85
200.127	3.25
200.6	-0.7
201.072	6.05
201.544	0.4
202.017	2.25
202.489	2.65
202.961	-2.5
203.433	-1.2
203.906	2.55
204.378	5.85
204.85	4.3
205.322	4.1
205.794	7.9
206.266	0.65
206.739	5.35
207.211	-1.25
207.683	2.3
208.155	0.5
208.627	3.75
209.099	4.45
209.57	3
210.042	3.6
210.514	6.9
210.986	16.2
211.458	22.95
211.93	10.2
212.402	6.5
212.873	3
213.345	-0.6
213.817	4.65
214.288	2.6
214.76	7
215.232	0.15
215.703	1.55
216.175	6.5
216.646	4.25
217.118	4.95
217.589	1.9
218.061	4.1
218.532	2.5
219.004	6.5
219.475	16.3
219.946	30.2
220.418	35.95
220.889	26.45
221.36	14.85
221.832	7.4
222.303	9.75
222.774	5.05
223.245	8.15
223.717	5.7
224.188	6.2
224.659	6.5
225.13	4.95
225.601	7.85
226.072	10.7
226.543	12.25
227.014	5.75
227.485	10.15
227.956	9.85
228.427	14.5
228.898	16.65
229.369	14.3
229.839	12.15
230.31	15.75
230.781	15.25
231.252	18.95
231.722	28.5
232.193	32.95
232.664	37.5
233.135	57.85
233.605	55.25
234.076	47.8
234.546	36.8
235.017	46.25
235.487	40.65
235.958	43.2
236.428	63.1
236.899	95.4
237.369	106.75
237.84	83.45
238.31	102
238.78	99.55
239.251	103.3
239.721	102.4
240.191	77.5
240.662	52
241.132	35.85
241.602	49.6
242.072	72.7
242.542	84.6
243.013	59.75
243.483	55.75
243.953	39.2
244.423	41.35
244.893	48.25
245.363	56.5
245.833	54.85
246.303	56.45
246.773	74.95
247.243	76.55
247.712	90
248.182	103.95
248.652	110.55
249.122	162.45
249.592	289.05
250.061	445.45
250.531	709.95
251.001	540.25
251.471	443.35
251.94	339.1
252.41	185.9
252.879	130
253.349	101.4
253.818	84
254.288	71.4
254.757	73.85
255.227	98
255.696	81.15
256.166	74.1
256.635	77.6
257.105	95.25
257.574	124.6
258.043	127.1
258.513	223.1
258.982	281.2
259.451	198.55
259.92	198
260.389	182.65
260.859	136.7
261.328	154.65
261.797	226.4
262.266	200.5
262.735	102.35
263.204	64.6
263.673	64.2
264.142	58.6
264.611	56.3
265.08	65.4
265.549	60.85
266.018	63.35
266.487	63.4
266.955	60.25
267.424	64.2
267.893	60.75
268.362	63.9
268.83	66.95
269.299	70.55
269.768	75.75
270.236	91.65
270.705	97.6
271.174	95.25
271.642	103.7
272.111	118.05
272.579	186.45
273.048	283.85
273.516	353.35
273.985	359.4
274.453	277.25
274.922	170.8
275.39	116.4
275.858	113.3
276.327	94.35
276.795	97.5
277.263	103.65
277.731	137.2
278.2	249
278.668	327.3
279.136	253.25
279.604	165.95
280.072	109.15
280.54	96.7
281.008	98.2
281.477	98.6
281.945	103.85
282.413	105.35
282.881	107.4
283.348	105.55
283.816	112.35
284.284	118.35
284.752	111.75
285.22	109.7
285.688	128.05
286.156	198.4
286.623	514.7
287.091	1009.1
287.559	527.1
288.026	206.15
288.494	138.35
288.962	120.45
289.429	113.3
289.897	111.55
290.364	107
290.832	110.85
291.3	109.95
291.767	109.85
292.234	116.75
292.702	114.8
293.169	123.15
293.637	136.35
294.104	131.25
294.571	131.1
295.039	124.85
295.506	121.9
295.973	129.05
296.44	126.4
296.908	133.9
297.375	149.6
297.842	146.7
298.309	131.75
298.776	133.65
299.243	139.2
299.71	134.85
300.177	127.45
300.644	142.75
301.111	162.55
301.578	141.05
302.045	137.85
302.512	136.5
302.979	143.9
303.446	144.65
303.913	150.45
304.379	160.45
304.846	174.35
305.313	192.3
305.78	218.05
306.246	268.05
306.713	280.2
307.18	246.75
307.646	272.95
308.113	243.05
308.579	193
309.046	191.9
309.512	197.35
309.979	180.6
310.445	171.95
310.912	174.85
311.378	174.6
311.845	176.1
312.311	170.35
312.777	170.45
313.244	178.4
313.71	187.05
314.176	203.35
314.642	230.95
315.109	264.65
315.575	246.9
316.041	226.95
316.507	216.55
316.973	240.45
317.439	229.6
317.905	250.7
318.371	252.85
318.837	243.4
319.303	251.3
319.769	236.6
320.235	258.05
320.701	289.1
321.167	312.6
321.633	368.1
322.099	502.3
322.564	649.95
323.03	519.55
323.496	370.1
323.962	353.85
324.427	334.4
324.893	301.3
325.359	285.8
325.824	251
326.29	267
326.755	270.8
327.221	270.2
327.686	281.25
328.152	253.85
328.617	250.6
329.083	252.9
329.548	264.65
330.014	274.35
330.479	292.45
330.944	335.75
331.41	380.9
331.875	367.3
332.34	379.85
332.805	431.85
333.271	538.95
333.736	702.7
334.201	636.7
334.666	487.3
335.131	544.65
335.596	435.95
336.061	461.15
336.526	464.95
336.991	415.35
337.456	438.8
337.921	355.05
338.386	295.4
338.851	278.15
339.316	261.7
339.781	253.75
340.246	257.7
340.711	259.6
341.175	263.55
341.64	278.4
342.105	281.05
342.569	291.6
343.034	306.85
343.499	317.05
343.963	309.2
344.428	305.35
344.893	310.65
345.357	319.4
345.822	306.95
346.286	320.05
346.751	333
347.215	327.25
347.679	335.75
348.144	359.65
348.608	353.05
349.073	368.8
349.537	399.45
350.001	393.95
350.465	376.55
350.93	364.95
351.394	365
351.858	366.7
352.322	380
352.786	373.15
353.25	370.95
353.715	376.3
354.179	397.8
354.643	413.3
355.107	420.15
355.571	433.3
356.035	451.35
356.498	441
356.962	462.45
357.426	458.05
357.89	417.25
358.354	395.6
358.818	393.05
359.281	399.95
359.745	418.1
360.209	414.15
360.673	423.85
361.136	419.95
361.6	417.9
362.064	439.8
362.527	450.85
362.991	446.4
363.454	448.65
363.918	458.8
364.381	454.7
364.845	442.6
365.308	442.2
365.772	441.9
366.235	445.6
366.698	461.7
367.162	549.1
367.625	614
368.088	498.85
368.552	462.35
369.015	469.1
369.478	492.7
369.941	507.75
370.404	513.5
370.867	540.3
371.331	543.15
371.794	552.05
372.257	610.6
372.72	640.55
373.183	612.6
373.646	621.15
374.109	619.85
374.572	708.75
375.035	817.95
375.497	643.9
375.96	532.95
376.423	514
376.886	507.5
377.349	523.25
377.811	531.1
378.274	534.2
378.737	542.9
379.199	560.1
379.662	570
380.125	601.05
380.587	653
381.05	685.4
381.512	685.4
381.975	673.8
382.437	667.5
382.9	669.65
383.362	667.15
383.825	705.3
384.287	870.3
384.75	955.3
385.212	851.25
385.674	718.4
386.136	667.7
386.599	666.45
387.061	688.2
387.523	711.8
387.985	712.35
388.447	735.7
388.91	824.1
389.372	962.1
389.834	908.65
390.296	775.85
390.758	790.4
391.22	808.65
391.682	976.8
392.144	1469.05
392.606	1375.15
393.068	841.75
393.529	787.8
393.991	774
394.453	752.55
394.915	775.55
395.377	933.8
395.838	1117.95
396.3	831.65
396.762	664.9
397.224	632.2
397.685	635.65
398.147	635.45
398.608	649.05
399.07	649.9
399.531	641.25
399.993	648.85
400.454	666.25
400.916	660.25
401.377	680.15
401.839	684.35
402.3	685.75
402.762	712.65
403.223	777.95
403.684	802.4
404.145	736.8
404.607	719.25
405.068	717.1
405.529	730.8
405.99	748.4
406.451	761.15
406.913	742.65
407.374	753
407.835	763.1
408.296	776.65
408.757	784.9
409.218	807.15
409.679	812.85
410.14	827.65
410.601	856.4
411.062	889.15
411.522	1003.25
411.983	1087.55
412.444	948.35
412.905	857.2
413.366	860
413.826	897
414.287	994.7
414.748	1182.8
415.208	1199.2
415.669	997.4
416.13	924.95
416.59	898.55
417.051	934.15
417.511	968.5
417.972	1039.55
418.432	1122.8
418.893	1250.6
419.353	1180.4
419.814	914.3
420.274	824.75
420.734	813.6
421.195	871.85
421.655	892.55
422.115	874.85
422.576	846.35
423.036	847.85
423.496	891
423.956	928.9
424.416	984.75
424.876	1113.15
425.336	1119.4
425.797	1111.35
426.257	1101.45
426.717	1036.1
427.177	971.5
427.637	999.6
428.097	1059.9
428.556	1104.05
429.016	1197.45
429.476	1196.2
429.936	1166.45
430.396	1134.15
430.856	1154.15
431.315	1172.85
431.775	1255.6
432.235	1336.65
432.694	1355.3
433.154	1273.85
433.614	1242.3
434.073	1202.05
434.533	1082.7
434.993	1051.35
435.452	1049.5
435.912	1035.7
436.371	1022.5
436.83	1027.1
437.29	1024.4
437.749	976.45
438.209	968.85
438.668	976.65
439.127	983.65
439.587	966.15
440.046	930.2
440.505	952.4
440.964	955.25
441.424	979.65
441.883	994.05
442.342	947.8
442.801	905.25
443.26	931.95
443.719	928.5
444.178	917.5
444.637	923.3
445.096	927.6
445.555	950
446.014	946.1
446.473	920.3
446.932	919.1
447.391	940.3
447.849	949.15
448.308	944.95
448.767	958.45
449.226	977.15
449.685	987.4
450.143	1024.55
450.602	1031.1
451.061	979.4
451.519	995.05
451.978	1012.45
452.436	1033.1
452.895	995.1
453.353	978.7
453.812	993.7
454.27	981.55
454.729	956.8
455.187	962.25
455.646	969.2
456.104	977.3
456.562	972.25
457.021	957.1
457.479	934.25
457.937	961.25
458.395	986.05
458.854	970.05
459.312	958.8
459.77	969.25
460.228	977.5
460.686	995.05
461.144	992.35
461.602	980.25
462.06	988.9
462.518	1002.8
462.976	1005.6
463.434	1020.95
463.892	1026.5
464.35	1048.65
464.808	1067
465.266	1072.75
465.724	1083.25
466.181	1089.55
466.639	1089.55
467.097	1127.9
467.555	1171
468.012	1155.25
468.47	1167.5
468.928	1207.8
469.385	1230.55
469.843	1252.6
470.3	1237.7
470.758	1289.7
471.215	1306.65
471.673	1344.05
472.13	1375.45
472.588	1408.45
473.045	1401.6
473.503	1430.95
473.96	1487.4
474.417	1505.55
474.875	1580.45
475.332	1628.85
475.789	1660.25
476.246	1711.05
476.704	1789.9
477.161	1839.4
477.618	1899.65
478.075	2003.7
478.532	2160.9
478.989	2341.55
479.446	2591.9
479.903	2741.25
480.36	3017.6
480.817	3210.3
481.274	3457.95
481.731	3818.55
482.188	4098.05
482.645	4436.6
483.102	4704.25
483.558	5054.15
484.015	5305.35
484.472	5296.8
484.929	5105.2
485.385	4898.65
485.842	4762.3
486.299	4524.05
486.755	4087.8
487.212	3641.75
487.668	3261.85
488.125	3019.05
488.582	2791.75
489.038	2656.5
489.494	2569.15
489.951	2475.4
490.407	2411.25
490.864	2372.35
491.32	2315.05
491.776	2272.75
492.233	2291.55
492.689	2247.65
493.145	2205.6
493.602	2185.95
494.058	2215.65
494.514	2253.3
494.97	2261.6
495.426	2276.9
495.882	2299.05
496.338	2298
496.794	2376.9
497.251	2373.55
497.707	2378.15
498.163	2392.15
498.618	2388.8
499.074	2400.45
499.53	2440.35
499.986	2474.05
500.442	2509.8
500.898	2508
501.354	2545.05
501.809	2546.3
502.265	2584.6
502.721	2694.6
503.177	2750.2
503.632	2636.35
504.088	2662.5
504.543	2875.95
504.999	2723.05
505.455	2442.15
505.91	2333.7
506.366	2323.7
506.821	2315.65
507.277	2294.45
507.732	2297.45
508.187	2308.7
508.643	2328.35
509.098	2325.85
509.553	2356
510.009	2386.35
510.464	2426.55
510.919	2452.1
511.375	2478.3
511.83	2504.85
512.285	2558.3
512.74	2613
513.195	2647.65
513.65	2683.35
514.105	2742.7
514.56	2738.9
515.015	2798.85
515.47	2827.8
515.925	2800.55
516.38	2797.15
516.835	2790.2
517.29	2775.2
517.745	2792
518.2	2737.35
518.655	2661.95
519.109	2629.9
519.564	2602.35
520.019	2583.2
520.474	2558.7
520.928	2540
521.383	2527
521.838	2519.85
522.292	2487.25
522.747	2454.85
523.201	2467.25
523.656	2436.2
524.11	2420.95
524.565	2408.8
525.019	2430.45
525.474	2432.9
525.928	2418.9
526.382	2394.55
526.837	2386.8
527.291	2398.2
527.745	2381.85
528.2	2372.65
528.654	2354.75
529.108	2356.8
529.562	2355.95
530.016	2361.45
530.47	2371.55
530.925	2364.9
531.379	2383.6
531.833	2414.6
532.287	2383.3
532.741	2389.6
533.195	2382.3
533.649	2373.05
534.103	2381.7
534.556	2364.4
535.01	2382
535.464	2382.45
535.918	2389
536.372	2402.95
536.826	2392.5
537.279	2362.95
537.733	2376.75
538.187	2382.3
538.64	2381.85
539.094	2409.45
539.548	2452.1
540.001	2425.4
540.455	2447.5
540.908	2455.05
541.362	2481.65
541.815	2499.85
542.269	2547.45
542.722	2543.55
543.175	2555.6
543.629	2582.55
544.082	2605.35
544.536	2630.75
544.989	2638.85
545.442	2642.4
545.895	2644.45
546.349	2645.25
546.802	2648.7
547.255	2661.15
547.708	2656.2
548.161	2699.25
548.614	2710.4
549.067	2709.1
549.52	2692.1
549.973	2657.55
550.426	2645.2
550.879	2618.75
551.332	2628.15
551.785	2649.05
552.238	2673.35
552.691	2671.35
553.144	2712.15
553.596	2744.8
554.049	2779.25
554.502	2852.35
554.955	2898.5
555.407	2936.4
555.86	2894.85
556.313	2867.15
556.765	2840.8
557.218	2793.35
557.67	2800.35
558.123	2764.25
558.576	2757.05
559.028	2746.2
559.48	2781.55
559.933	2753.85
560.385	2678.2
560.838	2586.45
561.29	2510.1
561.742	2505.3
562.195	2454.65
562.647	2441.1
563.099	2444.35
563.551	2427.3
564.004	2435.95
564.456	2425.45
564.908	2379.65
565.36	2318.9
565.812	2269.65
566.264	2262.55
566.716	2226.1
567.168	2201.35
567.62	2203.55
568.072	2188.4
568.524	2162.1
568.976	2151.55
569.428	2131.25
569.88	2117.55
570.332	2135.7
570.784	2131.4
571.235	2115.9
571.687	2147.65
572.139	2136.1
572.59	2163.6
573.042	2177.1
573.494	2167.85
573.945	2147.6
574.397	2093.15
574.849	2091.35
575.3	2094.35
575.752	2071.75
576.203	2060.15
576.655	2074.5
577.106	2032.85
577.557	2027.85
578.009	2014.7
578.46	2010.3
578.912	2008
579.363	2013
579.814	2004.65
580.265	2003.6
580.717	2010.95
581.168	2011.45
581.619	2018.05
582.07	2037.6
582.521	2034.3
582.972	2020.05
583.423	2044.55
583.875	2082.6
584.326	2177.7
584.777	2350.9
585.227	2554.5
585.678	2708.9
586.129	2752.35
586.58	2815.25
587.031	2834.3
587.482	3004.65
587.933	3472.55
588.384	3210.95
588.834	2706.2
589.285	2351.7
589.736	2299.1
590.186	2282.45
590.637	2278.7
591.088	2217.95
591.538	2204.75
591.989	2173.2
592.439	2152.8
592.89	2137.5
593.34	2140.4
593.791	2161.2
594.241	2155.55
594.692	2180.25
595.142	2158.05
595.593	2120.05
596.043	2129.45
596.493	2168.7
596.943	2208.1
597.394	2183.95
597.844	2178.85
598.294	2200
598.744	2287.05
599.195	2388.5
599.645	2520.4
600.095	2651.95
600.545	2775.9
600.995	2902.9
601.445	3004.5
601.895	3142.75
602.345	3243.75
602.795	3187.1
603.245	3050.3
603.695	2873.45
604.145	2713.45
604.594	2581.6
605.044	2445.45
605.494	2298.05
605.944	2169.8
606.393	2129.9
606.843	2103.5
607.293	2107.3
607.743	2097.85
608.192	2112.15
608.642	2118.75
609.091	2123.7
609.541	2119.6
609.99	2119.35
610.44	2071.85
610.889	2043.75
611.339	2023.8
611.788	2008.7
612.238	2034.35
612.687	2044.5
613.136	2066.85
613.586	2107.2
614.035	2085.7
614.484	2122.65
614.933	2125
615.383	2078.85
615.832	2024.2
616.281	1977.5
616.73	1925.45
617.179	1872.05
617.628	1830.4
618.077	1808.75
618.526	1781.1
618.975	1757.3
619.424	1736.05
619.873	1744.35
620.322	1733.6
620.771	1726.8
621.22	1705.45
621.669	1678.8
622.118	1661.25
622.567	1638.7
623.015	1606.35
623.464	1613.7
623.913	1586.3
624.361	1590
624.81	1594.85
625.259	1576.55
625.707	1557.6
626.156	1573.7
626.604	1585.55
627.053	1598.1
627.501	1593.4
627.95	1597.1
628.398	1621.5
628.847	1604.1
629.295	1608.1
629.744	1636.8
630.192	1660.1
630.64	1753.75
631.089	1906.85
631.537	1980.3
631.985	1983.2
632.433	2049.05
632.881	2042.4
633.33	2416.75
633.778	2619.6
634.226	1901.95
634.674	1791.55
635.122	1775.8
635.57	1797.05
636.018	2065.8
636.466	1722.5
636.914	1556.55
637.362	1562.85
637.81	1585.35
638.258	1623.65
638.705	1644.4
639.153	1690.2
639.601	1704.9
640.049	1731.15
640.497	1789.45
640.944	1825.25
641.392	1742.65
641.84	1640.05
642.287	1579
642.735	1546.8
643.182	1534.45
643.63	1547.55
644.078	1556.45
644.525	1579.9
644.973	1619
645.42	1647.35
645.867	1671.15
646.315	1709.8
646.762	1771.65
647.21	1826
647.657	1918.7
648.104	2019.75
648.551	2084
648.999	2275.65
649.446	2510.4
649.893	2841.9
650.34	3380.6
650.787	4205.55
651.234	5496.3
651.682	7634.3
652.129	10973
652.576	15136.15
653.023	15537.3
653.47	15540.5
653.917	15540.55
654.363	15540.45
654.81	15537.45
655.257	15538.1
655.704	15541.9
656.151	11848.55
656.598	7676.4
657.044	5452.75
657.491	4262.65
657.938	3410.65
658.385	2872.5
658.831	2511.25
659.278	2235.75
659.724	2045.55
660.171	1904
660.618	1757.85
661.064	1652.5
661.511	1585.9
661.957	1533.7
662.404	1497.45
662.85	1480.5
663.296	1450.15
663.743	1413.5
664.189	1397.75
664.635	1391.55
665.082	1365.55
665.528	1346.45
665.974	1309.7
666.42	1299.6
666.867	1307.1
667.313	1299.45
667.759	1353.15
668.205	1352.25
668.651	1359.4
669.097	1326.45
669.543	1420.95
669.989	1358.2
670.435	1228.45
670.881	1214.45
671.327	1264.7
671.773	1342.35
672.219	1455.25
672.665	1545.25
673.11	1591.6
673.556	1619.65
674.002	1647.35
674.448	1653.8
674.893	1416.6
675.339	1234.35
675.785	1141.45
676.23	1085.5
676.676	1037.55
677.122	1014.1
677.567	983.9
678.013	960.45
678.458	965.7
678.904	951.45
679.349	939.85
679.794	930.4
680.24	933.85
680.685	929.2
681.131	936.35
681.576	931.4
682.021	938.25
682.466	945.3
682.912	951.05
683.357	1004.35
683.802	1090.3
684.247	1187.8
684.692	1267.55
685.137	1320.4
685.583	1336.1
686.028	1398.7
686.473	1331.6
686.918	1151.75
687.363	1054.5
687.807	1001.45
688.252	955.3
688.697	932.05
689.142	899.95
689.587	909
690.032	924.5
690.477	953
690.921	1001.45
691.366	1053.55
691.811	1097
692.255	1186.65
692.7	1444.15
693.145	2093.45
693.589	3191.95
694.034	3771.4
694.478	4011.65
694.923	3637.9
695.367	5201
695.812	3146.3
696.256	1331.9
696.701	979.9
697.145	908.5
697.59	882.5
698.034	863.3
698.478	875.65
698.922	877.5
699.367	898.6
699.811	937.65
700.255	1020
700.699	1116.85
701.143	1207.35
701.588	1265.5
702.032	1323.65
702.476	1367.5
702.92	1447.1
703.364	1919.25
703.808	2937.35
704.252	3648.3
704.696	3809.4
705.14	3570.8
705.584	4910.4
706.027	2706.55
706.471	1374.55
706.915	1024.35
707.359	923.95
707.803	862.95
708.246	830.4
708.69	832.45
709.134	818.95
709.577	818.85
710.021	820.35
710.465	815
710.908	811.9
711.352	850.3
711.795	938.55
712.239	1011.6
712.682	1035.4
713.126	1013.25
713.569	1138.5
714.012	938.2
714.456	838.1
714.899	768.25
715.342	727.45
715.786	708.15
716.229	687.5
716.672	670.25
717.115	668.6
717.558	677.8
718.002	704.9
718.445	731.95
718.888	769.55
719.331	780.35
719.774	792.65
720.217	773.7
720.66	737.4
721.103	693.6
721.546	662.8
721.989	645.7
722.432	639.25
722.874	630.3
723.317	644.45
723.76	699.3
724.203	867.15
724.645	1151.3
725.088	1341.8
725.531	1307.35
725.974	1425.6
726.416	1276.95
726.859	800.65
727.301	658.1
727.744	627.25
728.187	628.5
728.629	642.2
729.071	671.4
729.514	702.75
729.956	729.7
730.399	734.8
730.841	735.7
731.283	722.15
731.726	702.85
732.168	706.4
732.61	751.8
733.053	808.2
733.495	895.25
733.937	994.95
734.379	1180.45
734.821	1503.7
735.263	2407.7
735.705	4354.25
736.148	6288.9
736.59	6219.8
737.032	6723.05
737.474	5536
737.916	2125.9
738.357	1121.75
738.799	869.9
739.241	801.1
739.683	799.05
740.125	815.1
740.567	822.65
741.008	856.25
741.45	901.1
741.892	920.9
742.334	920.75
742.775	917.75
743.217	868.9
743.658	754.25
744.1	766.45
744.542	859.3
744.983	877.55
745.425	913
745.866	911.55
746.307	815.9
746.749	891.95
747.19	1304.15
747.632	2565.4
748.073	4742.75
748.514	6444.3
748.956	8543.55
749.397	9940.35
749.838	6824
750.279	6516.05
750.72	3349.65
751.162	1417.6
751.603	814.1
752.044	657.1
752.485	582.45
752.926	547.25
753.367	527.55
753.808	515.15
754.249	498.15
754.69	502.6
755.131	495.15
755.572	494.65
756.013	490.8
756.453	498.2
756.894	507
757.335	500.65
757.776	511.75
758.216	527.7
758.657	563.8
759.098	617.3
759.538	754.25
759.979	1099.65
760.42	2236
760.86	5763.75
761.301	11684.05
761.741	13421.6
762.182	15144.3
762.622	9966.35
763.063	3592.75
763.503	1571.5
763.943	1155.1
764.384	1221.65
764.824	1137.15
765.264	1138.1
765.705	819.35
766.145	606.1
766.585	544.85
767.025	577.65
767.465	726.75
767.906	874.85
768.346	908.55
768.786	956.55
769.226	1019.5
769.666	1812.55
770.106	3970.7
770.546	5506.8
770.986	6172.3
771.426	4652.5
771.866	1944.45
772.306	893.85
772.745	558.75
773.185	483.25
773.625	480.6
774.065	544.5
774.505	867.9
774.944	1686.75
775.384	2474.55
775.824	2790.9
776.263	2287.9
776.703	1147.8
777.142	610.2
777.582	427.85
778.021	392.95
778.461	369.9
778.9	364.65
779.34	343
779.779	319.6
780.219	319.2
780.658	317.25
781.097	306.3
781.537	299.1
781.976	295.85
782.415	292.55
782.855	299.05
783.294	295.05
783.733	292.65
784.172	297.9
784.611	291.6
785.05	300.9
785.489	310.65
785.928	310.65
786.367	326
786.806	339.7
787.245	373.4
787.684	376.45
788.123	374.45
788.562	360.95
789.001	348.4
789.44	330.4
789.879	335.3
790.317	342.35
790.756	361.95
791.195	415.75
791.634	560.7
792.072	1020.1
792.511	2508.4
792.95	4567.25
793.388	5441.7
793.827	3495.95
794.265	1618.05
794.704	779.9
795.142	473.65
795.581	396.9
796.019	361.2
796.458	354.7
796.896	369.6
797.334	427.55
797.773	571.9
798.211	1111.65
798.649	2276.45
799.087	3847.25
799.526	5374.85
799.964	5475.5
800.402	3738
800.84	1689.05
801.278	825.55
801.716	509.15
802.154	412.25
802.592	394.4
803.03	395.1
803.468	400.7
803.906	405.7
804.344	391.8
804.782	387.2
805.22	388.35
805.658	401.25
806.096	426.55
806.533	475.8
806.971	609.8
807.409	889.15
807.847	1794.65
808.284	4583.4
808.722	7887.85
809.16	11058.3
809.597	14751.4
810.035	15542.45
810.472	11754.45
810.91	5039.9
811.347	2253
811.785	1057.9
812.222	673.7
812.66	510.95
813.097	441.35
813.535	387.9
813.972	346.85
814.409	321.25
814.846	305.1
815.284	289.4
815.721	296.7
816.158	317.3
816.595	401.6
817.032	483.5
817.47	449.7
817.907	350.75
818.344	312.85
818.781	297.55
819.218	355.25
819.655	497.9
820.092	639.7
820.529	579
820.966	476.95
821.403	350.1
821.839	315.1
822.276	334.5
822.713	385.45
823.15	374.85
823.587	410.35
824.023	752.05
824.46	1870.3
824.897	3219.2
825.333	2449.9
825.77	1138.35
826.206	598.85
826.643	352.75
827.08	262.15
827.516	229.65
827.953	219.1
828.389	205.75
828.825	199.2
829.262	189.9
829.698	184.4
830.135	177.35
830.571	179.65
831.007	180.2
831.443	181.1
831.88	189.15
832.316	190.25
832.752	186.25
833.188	184.7
833.624	193.05
834.06	191.1
834.497	188.25
834.933	192.85
835.369	205.7
835.805	217.55
836.241	220.95
836.677	254.4
837.112	295.4
837.548	367.3
837.984	543.7
838.42	1176.5
838.856	3287
839.292	6387
839.727	4651.15
840.163	3189.6
840.599	4886.45
841.034	7327.2
841.47	3615.65
841.906	1776.45
842.341	987.15
842.777	825.35
843.212	925.5
843.648	557.6
844.083	358.9
844.519	255.5
844.954	211.6
845.39	185.1
845.825	176.25
846.261	168.95
846.696	163.8
847.131	152.65
847.566	156.9
848.002	158.95
848.437	174.6
848.872	175.7
849.307	222.8
849.742	412.2
850.177	1064.85
850.613	2258.8
851.048	1575.6
851.483	729.5
851.918	411.75
852.353	237.85
852.788	190.7
853.223	160.3
853.657	137.75
854.092	137.6
854.527	133.85
854.962	132.75
855.397	143.45
855.832	129.05
856.266	114.3
856.701	120.75
857.136	122.6
857.57	136.85
858.005	161.35
858.44	142
858.874	138.55
859.309	148.25
859.743	134.65
860.178	136.55
860.612	146.85
861.047	184.55
861.481	242.25
861.915	170.55
862.35	136.5
862.784	114
863.218	110.4
863.653	115.25
864.087	146.8
864.521	185.45
864.955	315.25
865.39	522.75
865.824	370.15
866.258	437.3
866.692	608.65
867.126	439.3
867.56	246
867.994	164.3
868.428	145.05
868.862	171.45
869.296	156.6
869.73	187.75
870.164	165.6
870.598	147.35
871.031	118.4
871.465	104.4
871.899	81.8
872.333	83.85
872.766	84.15
873.2	86.7
873.634	79.85
874.067	92.5
874.501	88.2
874.935	96.1
875.368	91.35
875.802	82.6
876.235	80.45
876.669	72.4
877.102	69.6
877.535	72
877.969	67.4
878.402	69.9
878.836	69.2
879.269	72.9
879.702	73.85
880.135	73.3
880.569	79.55
881.002	69.05
881.435	67.55
881.868	69.35
882.301	66.55
882.734	58.95
883.167	65.6
883.601	62.85
884.034	61.75
884.467	59.45
884.899	64.8
885.332	55.6
885.765	52.25
886.198	54.25
886.631	59.3
887.064	58.4
887.497	50.95
887.929	58.9
888.362	52.6
888.795	56.45
889.228	60.85
889.66	53.2
890.093	51.4
890.526	55.65
890.958	52.65
891.391	53.25
891.823	51.8
892.256	47.5
892.688	56.8
893.121	46
893.553	55.4
893.985	47.45
894.418	44.1
894.85	53.5
895.282	49.8
895.715	46.75
896.147	48.05
896.579	48.7
897.011	48.1
897.444	50.1
897.876	39.25
898.308	43.55
898.74	48
899.172	48.4
899.604	51.95
900.036	48.25
900.468	48.45
900.9	51.85
901.332	63.95
901.764	58.45
902.196	62.45
902.628	61.4
903.06	80.8
903.491	88.2
903.923	73.85
904.355	74.1
904.787	77.75
905.218	68.55
905.65	64.85
906.082	60.95
906.513	60.3
906.945	58
907.376	61.25
907.808	62.85
908.239	73.15
908.671	75.8
909.102	76.5
909.534	113.85
909.965	207.1
910.397	522.55
910.828	1505.1
911.259	900.25
911.691	487.9
912.122	282.1
912.553	141.35
912.984	80.75
913.415	72.9
913.847	66.8
914.278	64.4
914.709	56.5
915.14	55.1
915.571	51.85
916.002	55.1
916.433	45.55
916.864	49.8
917.295	51.5
917.726	55.4
918.157	73.3
918.587	77
919.018	69.25
919.449	63.15
919.88	79.9
920.311	116.65
920.741	320.05
921.172	553.3
921.603	271.05
922.033	177.8
922.464	111.35
922.895	76.05
923.325	56.95
923.756	55.75
924.186	72.7
924.617	108.95
925.047	167.75
925.478	154.85
925.908	111
926.338	77.4
926.769	57.8
927.199	52.7
927.629	48.5
928.06	51.8
928.49	45.35
928.92	41.85
929.35	38.1
929.78	32.5
930.21	29.75
930.641	25.7
931.071	25.35
931.501	26.4
931.931	26.55
932.361	29.1
932.791	33.75
933.221	35
933.651	51.15
934.08	70.75
934.51	49.1
934.94	39.1
935.37	30.9
935.8	26.25
936.229	25.95
936.659	25.25
937.089	36.8
937.519	51.3
937.948	70.5
938.378	43.8
938.807	29.35
939.237	24.7
939.666	26.8
940.096	16.8
940.525	12.25
940.955	17.55
941.384	15.25
941.814	14.8
942.243	15.05
942.672	15.7
943.102	11.15
943.531	12.6
943.96	14.9
944.39	15.1
944.819	12.4
945.248	12.15
945.677	10.4
946.106	11.25
946.535	12.25
946.964	14.1
947.393	11.65
947.822	8.65
948.251	20.8
948.68	15.95
949.109	16.5
949.538	8.9
949.967	10.4
950.396	12.05
950.825	14.2
951.254	20.05
951.682	11.1
952.111	8.4
952.54	9.7
952.969	12.05
953.397	5.7
953.826	12.45
954.254	14
954.683	8.3
955.112	9.45
955.54	8.35
955.969	10.35
956.397	13.4
956.826	13.55
957.254	6.75
957.682	10.1
958.111	10.3
958.539	13.1
958.967	12.25
959.396	11.9
959.824	10.55
960.252	8.7
960.68	7.45
961.109	13.85
961.537	13.1
961.965	6.15
962.393	10.8
962.821	12.2
963.249	16.35
963.677	24.2
964.105	97.6
964.533	154.75
964.961	77.3
965.389	45.75
965.817	28.3
966.245	14.95
966.672	6.6
967.1	10.7
967.528	5.45
967.956	7.5
968.383	12.6
968.811	5.45
969.239	6.6
969.666	7.35
970.094	3.75
970.522	7
970.949	5.7
971.377	3.1
971.804	4.65
972.232	9.15
972.659	10.55
973.087	6.6
973.514	5.1
973.941	3.05
974.369	2.8
974.796	5.4
975.223	7.85
975.651	7.2
976.078	9
976.505	15.15
976.932	37.25
977.359	48.5
977.786	32.25
978.214	23.9
978.641	8.75
979.068	12.35
979.495	4.5
979.922	10.2
980.349	8.6
980.776	11.15
981.202	8.4
981.629	9.3
982.056	5.05
982.483	1.8
982.91	6.7
983.337	3.35
983.763	3.6
984.19	11.95
984.617	3.75
985.043	6.95
985.47	6.95
985.897	5.45
986.323	7.5
986.75	6.05
987.176	9.65
987.603	6.3
988.029	4.7
988.456	7
988.882	5.45
989.308	1
989.735	2.1
990.161	3.15
990.587	6.7
991.014	1.9
991.44	6.2
991.866	5.5
992.292	0.35
992.719	5.7
993.145	4.05
993.571	3.6
993.997	5.2
994.423	4.35
994.849	-1.85
995.275	1.75
995.701	6.75
996.127	0.35
996.553	5.25
996.979	3.85
997.405	8.65
997.83	2.3
998.256	4.8
998.682	1.35
999.108	3.15
999.534	-0.75
999.959	-0.45
1000.385	7.95
1000.811	-1.55
1001.236	2.45
1001.662	5.7
1002.087	8.05
1002.513	2.6
1002.938	-4.1
1003.364	2.9
1003.789	6.7
1004.215	3
1004.64	5
1005.066	7.35
1005.491	3
1005.916	5.55
1006.342	4.15
1006.767	4.5
1007.192	6.6
1007.617	2.75
1008.042	6.4
1008.468	5.1
1008.893	5.05
1009.318	9.35
1009.743	15.9
1010.168	28.85
1010.593	21.05
1011.018	15.45
1011.443	9.05
1011.868	10.6
1012.293	8.95
1012.718	1.3
1013.143	4.9
1013.567	10.25
1013.992	5.15
1014.417	3.5
1014.842	5.35
1015.267	3.15
1015.691	5.1
1016.116	4.45
1016.541	5.65
1016.965	1.8
1017.39	5.05
1017.814	1.6
1018.239	-2.15
1018.663	-3.65
1019.088	-2.1
1019.512	4.8
1019.937	-3.3
1020.361	-0.75
1020.785	1.35
1021.21	-4.25
1021.634	-0.6
1022.058	2
1022.483	4.6
1022.907	0.45
1023.331	-0.5
1023.755	-2.45
1024.179	2.9
1024.604	5.1
1025.028	1.3
1025.452	4.75
1025.876	2.85
1026.3	1.1
1026.724	-1
1027.148	4.9
1027.572	0.55
1027.996	9.6
1028.42	-0.2
1028.843	-3.05
1029.267	-1.35
1029.691	3.35
1030.115	-1.4
1030.539	-2.55
1030.962	2.1
1031.386	-1.5
1031.81	1.95
1032.233	-2.6
1032.657	-6.9
1033.08	2.2
1033.504	0.35
1033.927	2.05
1034.351	-0.6
1034.774	-1.7
1035.198	1.8
1035.621	-1.05
1036.045	0.75
1036.468	5.3
1036.891	5.45
1037.315	2.3
1037.738	0.1
1038.161	-3.85
1038.584	-2.9
1039.008	-2.8
1039.431	-4.2
1039.854	-2.2
1040.277	4.9
1040.7	-1.35
1041.123	2.3
1041.546	1.95
1041.969	2.35
1042.392	3.2
1042.815	-4.75
1043.238	0.5
1043.661	4.9
1044.084	-4.3
1044.507	0.5
1044.93	1.25
1045.352	-0.15
1045.775	-1.6
1046.198	1.65
1046.621	1.15
1047.043	0.1
1047.466	4.8
1047.889	-4.25
1048.311	2.55
1048.734	-4.15
1049.156	1.85
1049.579	2.3
1050.001	1.75
1050.424	2.3
1050.846	-1.1
1051.269	-4.95
1051.691	-0.95
1052.113	1.6
1052.536	-0.3
1052.958	-5.7
1053.38	-2.9
1053.802	1.7
1054.225	1.8
1054.647	0.1
1055.069	-1.6
1055.491	3
1055.913	3.9
1056.335	-13.55
1056.757	-3.35
1057.179	-3.3
1057.601	-5.55
1058.023	3.9
1058.445	-5.2
1058.867	2.15
1059.289	-2.7
1059.711	1.2
1060.133	1.2
1060.555	0.55
1060.976	4.9
1061.398	0.55
1061.82	-4.65
1062.241	-0.45
1062.663	-1.4
1063.085	-3.2
1063.506	-0.45
1063.928	-7.7
1064.35	3.9
1064.771	1.55
1065.193	-4.25
1065.614	-0.95
1066.035	9.55
1066.457	6.8
1066.878	-0.55
1067.3	-2.25
1067.721	-2.45
1068.142	-0.65
1068.564	1.45
1068.985	-3.2
1069.406	-6.5
1069.827	3.75
1070.248	-2.8
1070.67	-1.9
1071.091	-1.95
1071.512	-1.25
1071.933	-5.5
1072.354	-7.35
1072.775	-1.9
1073.196	-0.55
1073.617	-7.1
1074.038	0
1074.459	-5.85
1074.88	-0.25
1075.3	-0.25
1075.721	1.5
1076.142	-1.85
1076.563	-2.75
1076.983	0.55
1077.404	-3.85
1077.825	3.95
1078.246	-2.75
1078.666	-1.3
1079.087	-1.4
1079.507	-4.8
1079.928	4.15
1080.348	-2.55
1080.769	-0.55
1081.189	1.55
1081.61	-5.55
1082.03	-1.95
1082.451	1.35
1082.871	-6.5
1083.291	-3.3
1083.711	-2.15
1084.132	-4.9
1084.552	-4.35
1084.972	-7.25
1085.392	-3.8
1085.813	0.3
1086.233	-3.35
1086.653	-1.85
1087.073	-3.65
1087.493	-0.4
1087.913	-6.95
1088.333	-2.45
1088.753	-5.75
1089.173	2.2
1089.593	-3.6
1090.013	-1.9
1090.433	-7.95
1090.852	-1.4
1091.272	-3.8
1091.692	4.65
1092.112	-0.95
1092.531	-6.3
1092.951	-4.05
1093.371	-5.1
1093.79	-1
1094.21	-3.5
1094.63	-0.7
1095.049	-1.35
1095.469	-12.15
1095.888	-1.45
1096.308	0.6
1096.727	-1.3
1097.146	-4.9
1097.566	-5.2
1097.985	-6.7
1098.405	-4.1
1098.824	-3.25
1099.243	-2.1
1099.662	-2
1100.082	-5.2
1100.501	1.4
1100.92	0.8
1101.339	-1.1
1101.758	1.85
