Data from MSPlasma+Separation6_Subt14_10-14-56-671.txt Node
Date: Fri Jul 21 10:14:56 EDT 2017
User: Ender
Spectrometer: HR+D1039
Trigger mode: 0
Integration Time (sec): 6.430000E-3
Scans to average: 20
Electric dark correction enabled: true
Nonlinearity correction enabled: false
Boxcar width: 0
XAxis mode: Wavelengths
Number of Pixels in Spectrum: 2048
>>>>>Begin Spectral Data<<<<<
187.836	0.49
188.309	0.49
188.782	0.49
189.255	-1.76
189.728	2.34
190.201	-0.76
190.674	1.34
191.147	-0.66
191.619	0.84
192.092	-0.41
192.565	-4.76
193.038	0.34
193.511	-2.51
193.984	1.24
194.456	-1.21
194.929	2.19
195.402	1.29
195.874	2.04
196.347	3.64
196.82	2.14
197.292	-2.26
197.765	1.89
198.237	-2.61
198.71	-2.56
199.182	0.59
199.655	6.94
200.127	3.39
200.6	2.79
201.072	4.14
201.544	1.39
202.017	4.34
202.489	2.49
202.961	-1.86
203.433	-0.06
203.906	0.89
204.378	2.34
204.85	4.54
205.322	5.49
205.794	6.74
206.266	3.74
206.739	3.54
207.211	2.74
207.683	3.94
208.155	4.09
208.627	5.09
209.099	5.54
209.57	8.79
210.042	7.04
210.514	5.14
210.986	16.04
211.458	25.29
211.93	10.84
212.402	5.49
212.873	0.89
213.345	2.64
213.817	6.24
214.288	3.14
214.76	3.09
215.232	1.19
215.703	4.49
216.175	4.59
216.646	5.04
217.118	3.69
217.589	3.04
218.061	7.04
218.532	4.19
219.004	11.74
219.475	18.54
219.946	33.34
220.418	40.59
220.889	26.49
221.36	17.04
221.832	13.54
222.303	10.44
222.774	10.34
223.245	6.29
223.717	6.19
224.188	7.94
224.659	8.34
225.13	4.39
225.601	3.89
226.072	4.04
226.543	12.89
227.014	6.29
227.485	11.39
227.956	14.64
228.427	17.74
228.898	8.99
229.369	12.64
229.839	12.79
230.31	14.54
230.781	15.94
231.252	19.14
231.722	27.84
232.193	39.24
232.664	41.69
233.135	60.64
233.605	67.24
234.076	49.44
234.546	41.19
235.017	52.54
235.487	48.79
235.958	44.99
236.428	72.04
236.899	109.49
237.369	116.94
237.84	88.24
238.31	111.84
238.78	115.14
239.251	118.29
239.721	114.59
240.191	90.09
240.662	51.69
241.132	41.49
241.602	51.44
242.072	79.69
242.542	94.44
243.013	66.14
243.483	57.44
243.953	41.09
244.423	42.99
244.893	53.39
245.363	65.69
245.833	56.49
246.303	63.89
246.773	84.59
247.243	81.79
247.712	94.64
248.182	111.24
248.652	117.99
249.122	177.39
249.592	324.19
250.061	485.69
250.531	766.99
251.001	595.24
251.471	489.64
251.94	378.14
252.41	203.49
252.879	138.04
253.349	107.79
253.818	90.39
254.288	77.19
254.757	74.14
255.227	98.74
255.696	84.29
256.166	75.09
256.635	84.34
257.105	100.49
257.574	133.84
258.043	130.79
258.513	239.89
258.982	301.19
259.451	214.09
259.92	212.54
260.389	193.34
260.859	142.14
261.328	163.89
261.797	246.49
262.266	216.44
262.735	100.19
263.204	59.69
263.673	61.34
264.142	50.99
264.611	58.69
265.08	64.99
265.549	64.34
266.018	59.34
266.487	53.99
266.955	54.84
267.424	65.94
267.893	59.59
268.362	59.24
268.83	59.84
269.299	63.64
269.768	72.59
270.236	84.29
270.705	88.24
271.174	90.14
271.642	102.39
272.111	113.29
272.579	182.54
273.048	288.44
273.516	365.94
273.985	371.99
274.453	287.54
274.922	170.19
275.39	114.59
275.858	102.34
276.327	81.34
276.795	89.24
277.263	96.64
277.731	129.79
278.2	255.04
278.668	331.29
279.136	255.09
279.604	162.84
280.072	103.94
280.54	95.04
281.008	86.44
281.477	90.79
281.945	99.79
282.413	95.69
282.881	100.54
283.348	91.34
283.816	98.94
284.284	110.04
284.752	105.89
285.22	107.59
285.688	117.29
286.156	193.59
286.623	521.14
287.091	1021.84
287.559	532.09
288.026	202.69
288.494	131.94
288.962	102.54
289.429	102.34
289.897	93.44
290.364	89.24
290.832	96.64
291.3	100.49
291.767	102.04
292.234	104.69
292.702	103.84
293.169	113.99
293.637	124.59
294.104	116.79
294.571	113.84
295.039	111.29
295.506	116.39
295.973	114.34
296.44	111.69
296.908	122.59
297.375	141.49
297.842	134.79
298.309	115.39
298.776	118.64
299.243	123.44
299.71	119.59
300.177	118.54
300.644	129.19
301.111	145.44
301.578	137.09
302.045	118.69
302.512	122.14
302.979	123.89
303.446	133.74
303.913	133.69
304.379	145.09
304.846	156.49
305.313	177.99
305.78	203.59
306.246	245.94
306.713	263.24
307.18	237.34
307.646	257.89
308.113	228.84
308.579	180.79
309.046	173.34
309.512	177.99
309.979	160.14
310.445	150.24
310.912	158.89
311.378	154.74
311.845	154.94
312.311	149.09
312.777	150.29
313.244	162.99
313.71	168.09
314.176	182.04
314.642	210.94
315.109	247.99
315.575	228.59
316.041	209.34
316.507	195.59
316.973	219.39
317.439	214.24
317.905	234.09
318.371	233.39
318.837	222.54
319.303	231.44
319.769	217.44
320.235	237.29
320.701	272.89
321.167	292.24
321.633	350.34
322.099	489.19
322.564	655.14
323.03	510.44
323.496	356.34
323.962	333.84
324.427	318.69
324.893	271.39
325.359	267.19
325.824	230.99
326.29	246.59
326.755	240.74
327.221	249.09
327.686	258.09
328.152	232.74
328.617	213.99
329.083	223.84
329.548	238.19
330.014	245.24
330.479	268.04
330.944	311.09
331.41	357.29
331.875	344.64
332.34	349.89
332.805	412.19
333.271	522.64
333.736	695.29
334.201	619.29
334.666	461.09
335.131	534.24
335.596	422.84
336.061	438.79
336.526	441.79
336.991	387.04
337.456	421.04
337.921	334.04
338.386	275.24
338.851	253.44
339.316	228.94
339.781	225.84
340.246	235.54
340.711	227.39
341.175	235.54
341.64	240.59
342.105	247.84
342.569	256.39
343.034	274.64
343.499	281.89
343.963	274.64
344.428	271.24
344.893	278.14
345.357	285.24
345.822	277.79
346.286	279.99
346.751	291.89
347.215	287.14
347.679	297.84
348.144	322.79
348.608	319.19
349.073	328.44
349.537	365.14
350.001	354.09
350.465	333.49
350.93	320.14
351.394	326.14
351.858	321.19
352.322	335.69
352.786	338.89
353.25	328.59
353.715	329.44
354.179	347.59
354.643	365.19
355.107	379.99
355.571	396.49
356.035	405.79
356.498	393.84
356.962	421.34
357.426	415.24
357.89	372.19
358.354	349.24
358.818	345.74
359.281	355.39
359.745	374.74
360.209	368.74
360.673	372.04
361.136	377.69
361.6	379.84
362.064	402.04
362.527	410.09
362.991	409.79
363.454	407.99
363.918	405.94
364.381	411.09
364.845	403.44
365.308	395.39
365.772	394.24
366.235	394.99
366.698	417.84
367.162	504.99
367.625	568.54
368.088	460.74
368.552	415.19
369.015	422.69
369.478	450.19
369.941	455.34
370.404	463.59
370.867	494.44
371.331	502.09
371.794	508.19
372.257	568.79
372.72	602.29
373.183	574.74
373.646	579.89
374.109	576.24
374.572	676.69
375.035	793.04
375.497	598.24
375.96	478.49
376.423	456.84
376.886	455.64
377.349	466.24
377.811	474.99
378.274	478.14
378.737	493.59
379.199	505.09
379.662	515.24
380.125	544.59
380.587	601.84
381.05	637.29
381.512	637.09
381.975	615.49
382.437	604.64
382.9	608.99
383.362	609.64
383.825	655.19
384.287	824.59
384.75	913.84
385.212	795.69
385.674	659.89
386.136	608.89
386.599	603.54
387.061	635.49
387.523	656.14
387.985	653.64
388.447	682.19
388.91	759.34
389.372	919.29
389.834	863.59
390.296	722.14
390.758	726.24
391.22	752.64
391.682	919.74
392.144	1424.59
392.606	1320.14
393.068	783.79
393.529	718.14
393.991	703.19
394.453	681.69
394.915	715.99
395.377	871.49
395.838	1072.69
396.3	764.04
396.762	597.24
397.224	568.14
397.685	555.94
398.147	562.79
398.608	572.04
399.07	571.99
399.531	561.84
399.993	580.29
400.454	584.29
400.916	580.54
401.377	606.79
401.839	600.89
402.3	604.59
402.762	626.09
403.223	700.84
403.684	709.79
404.145	651.29
404.607	635.59
405.068	640.44
405.529	655.64
405.99	657.39
406.451	665.89
406.913	657.74
407.374	661.99
407.835	665.79
408.296	685.99
408.757	692.94
409.218	717.74
409.679	725.24
410.14	735.24
410.601	770.39
411.062	797.69
411.522	905.89
411.983	1006.84
412.444	861.59
412.905	750.14
413.366	758.29
413.826	784.79
414.287	876.19
414.748	1037.14
415.208	1062.54
415.669	880.94
416.13	812.74
416.59	793.54
417.051	814.69
417.511	861.99
417.972	917.34
418.432	985.14
418.893	1096.49
419.353	1037.39
419.814	793.69
420.274	725.69
420.734	720.54
421.195	765.59
421.655	794.64
422.115	771.69
422.576	742.94
423.036	748.89
423.496	784.49
423.956	812.24
424.416	870.49
424.876	982.89
425.336	983.49
425.797	977.84
426.257	976.59
426.717	922.19
427.177	864.49
427.637	888.94
428.097	929.79
428.556	983.24
429.016	1069.64
429.476	1053.04
429.936	1011.54
430.396	980.39
430.856	997.54
431.315	1027.44
431.775	1100.19
432.235	1164.84
432.694	1182.84
433.154	1108.14
433.614	1082.04
434.073	1040.29
434.533	942.49
434.993	919.54
435.452	920.94
435.912	907.49
436.371	908.99
436.83	904.39
437.29	914.14
437.749	865.24
438.209	860.44
438.668	868.34
439.127	877.49
439.587	856.84
440.046	823.94
440.505	834.89
440.964	838.39
441.424	865.69
441.883	872.69
442.342	832.44
442.801	809.94
443.26	831.14
443.719	819.24
444.178	808.19
444.637	820.24
445.096	818.19
445.555	834.89
446.014	832.74
446.473	813.19
446.932	813.94
447.391	819.49
447.849	849.19
448.308	834.29
448.767	850.89
449.226	878.64
449.685	875.19
450.143	923.29
450.602	921.84
451.061	878.79
451.519	887.99
451.978	921.64
452.436	946.54
452.895	895.84
453.353	869.99
453.812	893.24
454.27	879.99
454.729	850.84
455.187	859.54
455.646	868.89
456.104	867.74
456.562	858.54
457.021	851.74
457.479	812.04
457.937	841.79
458.395	867.49
458.854	854.44
459.312	847.89
459.77	860.24
460.228	864.04
460.686	881.04
461.144	879.04
461.602	861.29
462.06	864.24
462.518	886.54
462.976	891.54
463.434	898.74
463.892	898.94
464.35	926.84
464.808	935.29
465.266	929.99
465.724	957.49
466.181	961.04
466.639	957.49
467.097	994.24
467.555	1029.09
468.012	1025.89
468.47	1038.04
468.928	1075.79
469.385	1086.89
469.843	1105.59
470.3	1097.69
470.758	1136.59
471.215	1149.74
471.673	1176.04
472.13	1211.49
472.588	1227.24
473.045	1217.19
473.503	1248.79
473.96	1300.24
474.417	1323.39
474.875	1391.04
475.332	1435.44
475.789	1450.04
476.246	1497.84
476.704	1564.89
477.161	1600.14
477.618	1654.29
478.075	1747.14
478.532	1874.79
478.989	2017.99
479.446	2221.74
479.903	2352.94
480.36	2594.99
480.817	2772.19
481.274	2953.64
481.731	3242.04
482.188	3499.64
482.645	3790.64
483.102	4005.69
483.558	4303.74
484.015	4501.54
484.472	4524.94
484.929	4382.64
485.385	4195.99
485.842	4077.84
486.299	3864.69
486.755	3498.79
487.212	3121.84
487.668	2821.99
488.125	2605.19
488.582	2405.19
489.038	2295.69
489.494	2234.14
489.951	2171.94
490.407	2106.39
490.864	2076.89
491.32	2032.14
491.776	2001.09
492.233	2004.04
492.689	1965.64
493.145	1943.94
493.602	1926.44
494.058	1974.04
494.514	2002.49
494.97	2006.99
495.426	2030.49
495.882	2033.64
496.338	2054.99
496.794	2127.99
497.251	2138.09
497.707	2125.54
498.163	2138.34
498.618	2139.89
499.074	2162.84
499.53	2196.69
499.986	2226.09
500.442	2253.29
500.898	2258.24
501.354	2297.89
501.809	2299.64
502.265	2322.39
502.721	2442.54
503.177	2508.59
503.632	2389.14
504.088	2394.14
504.543	2618.69
504.999	2461.19
505.455	2180.29
505.91	2076.39
506.366	2052.29
506.821	2050.24
507.277	2024.74
507.732	2026.14
508.187	2034.79
508.643	2044.59
509.098	2041.69
509.553	2065.84
510.009	2102.09
510.464	2133.64
510.919	2163.49
511.375	2188.24
511.83	2217.44
512.285	2261.39
512.74	2301.04
513.195	2343.54
513.65	2375.44
514.105	2412.34
514.56	2422.64
515.015	2465.19
515.47	2506.69
515.925	2485.74
516.38	2480.74
516.835	2469.94
517.29	2455.99
517.745	2479.64
518.2	2435.64
518.655	2365.39
519.109	2332.04
519.564	2300.99
520.019	2310.19
520.474	2263.49
520.928	2250.19
521.383	2252.64
521.838	2244.49
522.292	2198.64
522.747	2188.64
523.201	2172.99
523.656	2153.69
524.11	2162.99
524.565	2134.79
525.019	2134.74
525.474	2152.04
525.928	2151.49
526.382	2127.94
526.837	2107.89
527.291	2111.49
527.745	2104.04
528.2	2099.64
528.654	2088.39
529.108	2094.59
529.562	2095.69
530.016	2100.79
530.47	2112.69
530.925	2097.19
531.379	2097.39
531.833	2146.69
532.287	2115.44
532.741	2112.44
533.195	2105.74
533.649	2108.64
534.103	2102.54
534.556	2091.14
535.01	2112.94
535.464	2104.94
535.918	2115.64
536.372	2127.14
536.826	2115.49
537.279	2098.79
537.733	2090.59
538.187	2109.29
538.64	2106.79
539.094	2133.44
539.548	2164.79
540.001	2146.29
540.455	2173.34
540.908	2178.29
541.362	2196.44
541.815	2210.24
542.269	2262.99
542.722	2241.24
543.175	2277.34
543.629	2293.44
544.082	2309.69
544.536	2330.49
544.989	2332.09
545.442	2330.34
545.895	2335.39
546.349	2331.39
546.802	2343.14
547.255	2338.79
547.708	2357.89
548.161	2387.89
548.614	2392.64
549.067	2393.09
549.52	2389.74
549.973	2346.54
550.426	2345.69
550.879	2322.59
551.332	2305.34
551.785	2339.04
552.238	2360.29
552.691	2358.49
553.144	2401.19
553.596	2431.44
554.049	2457.79
554.502	2509.54
554.955	2557.04
555.407	2587.79
555.86	2562.44
556.313	2525.44
556.765	2508.94
557.218	2474.99
557.67	2484.14
558.123	2446.24
558.576	2445.84
559.028	2417.44
559.48	2459.04
559.933	2445.39
560.385	2373.14
560.838	2288.04
561.29	2229.09
561.742	2208.89
562.195	2162.64
562.647	2153.19
563.099	2147.79
563.551	2141.84
564.004	2165.44
564.456	2149.64
564.908	2100.44
565.36	2060.19
565.812	2016.39
566.264	1998.14
566.716	1977.54
567.168	1943.14
567.62	1949.34
568.072	1931.49
568.524	1913.79
568.976	1896.89
569.428	1891.34
569.88	1879.44
570.332	1893.69
570.784	1893.84
571.235	1877.99
571.687	1889.29
572.139	1897.84
572.59	1912.19
573.042	1924.59
573.494	1919.29
573.945	1889.14
574.397	1847.49
574.849	1856.69
575.3	1864.84
575.752	1831.59
576.203	1817.44
576.655	1824.69
577.106	1808.49
577.557	1784.69
578.009	1782.79
578.46	1789.64
578.912	1766.44
579.363	1791.34
579.814	1777.44
580.265	1772.99
580.717	1776.79
581.168	1776.89
581.619	1788.44
582.07	1808.34
582.521	1804.69
582.972	1787.39
583.423	1808.19
583.875	1861.94
584.326	1966.49
584.777	2128.34
585.227	2339.64
585.678	2508.54
586.129	2547.89
586.58	2589.59
587.031	2622.39
587.482	2795.39
587.933	3286.79
588.384	3007.49
588.834	2463.59
589.285	2070.94
589.736	2041.19
590.186	2037.34
590.637	2017.74
591.088	1972.19
591.538	1947.39
591.989	1927.54
592.439	1915.79
592.89	1898.49
593.34	1902.99
593.791	1924.59
594.241	1920.54
594.692	1952.09
595.142	1928.94
595.593	1893.99
596.043	1900.14
596.493	1926.14
596.943	1980.99
597.394	1952.69
597.844	1913.94
598.294	1954.04
598.744	2019.04
599.195	2113.64
599.645	2220.44
600.095	2340.79
600.545	2458.34
600.995	2554.54
601.445	2648.24
601.895	2783.84
602.345	2863.79
602.795	2809.14
603.245	2683.19
603.695	2534.74
604.145	2397.39
604.594	2288.24
605.044	2161.89
605.494	2041.74
605.944	1932.29
606.393	1895.34
606.843	1877.74
607.293	1865.59
607.743	1859.29
608.192	1876.64
608.642	1882.04
609.091	1883.54
609.541	1874.19
609.99	1881.44
610.44	1834.89
610.889	1822.64
611.339	1790.44
611.788	1777.69
612.238	1809.19
612.687	1834.79
613.136	1853.09
613.586	1879.64
614.035	1872.74
614.484	1908.29
614.933	1934.59
615.383	1873.39
615.832	1804.74
616.281	1784.59
616.73	1721.09
617.179	1679.84
617.628	1639.64
618.077	1602.39
618.526	1584.34
618.975	1571.49
619.424	1547.74
619.873	1555.09
620.322	1544.04
620.771	1531.19
621.22	1517.09
621.669	1484.54
622.118	1476.44
622.567	1466.39
623.015	1430.84
623.464	1440.54
623.913	1409.79
624.361	1410.79
624.81	1411.94
625.259	1410.49
625.707	1386.59
626.156	1394.09
626.604	1412.19
627.053	1423.14
627.501	1405.39
627.95	1420.39
628.398	1437.19
628.847	1430.59
629.295	1431.99
629.744	1446.19
630.192	1482.49
630.64	1589.04
631.089	1748.44
631.537	1834.14
631.985	1837.99
632.433	1906.89
632.881	1908.14
633.33	2280.19
633.778	2499.99
634.226	1748.39
634.674	1625.49
635.122	1608.44
635.57	1637.74
636.018	1908.39
636.466	1556.24
636.914	1383.74
637.362	1375.74
637.81	1391.64
638.258	1430.59
638.705	1443.19
639.153	1491.89
639.601	1492.84
640.049	1534.49
640.497	1566.34
640.944	1608.84
641.392	1532.79
641.84	1441.74
642.287	1397.49
642.735	1374.39
643.182	1356.29
643.63	1363.29
644.078	1362.99
644.525	1391.99
644.973	1426.39
645.42	1437.29
645.867	1460.74
646.315	1486.09
646.762	1546.49
647.21	1589.04
647.657	1651.44
648.104	1732.14
648.551	1800.14
648.999	1942.99
649.446	2143.44
649.893	2402.89
650.34	2824.89
650.787	3501.49
651.234	4575.84
651.682	6382.99
652.129	9132.74
652.576	13087.74
653.023	15535.84
653.47	15539.04
653.917	15539.09
654.363	15538.99
654.81	15535.99
655.257	15536.64
655.704	15512.09
656.151	9930.14
656.598	6451.94
657.044	4574.54
657.491	3568.24
657.938	2874.94
658.385	2430.59
658.831	2148.69
659.278	1913.99
659.724	1744.39
660.171	1626.94
660.618	1511.19
661.064	1427.59
661.511	1382.49
661.957	1323.89
662.404	1296.64
662.85	1286.19
663.296	1272.39
663.743	1239.74
664.189	1231.24
664.635	1228.54
665.082	1194.09
665.528	1190.04
665.974	1154.79
666.42	1153.44
666.867	1173.64
667.313	1173.84
667.759	1222.54
668.205	1227.59
668.651	1235.74
669.097	1206.44
669.543	1311.19
669.989	1229.04
670.435	1087.89
670.881	1083.74
671.327	1113.49
671.773	1188.69
672.219	1279.34
672.665	1358.84
673.11	1403.99
673.556	1415.54
674.002	1451.44
674.448	1463.99
674.893	1246.54
675.339	1091.59
675.785	1000.89
676.23	960.24
676.676	922.19
677.122	904.54
677.567	875.34
678.013	849.39
678.458	840.64
678.904	843.54
679.349	838.89
679.794	827.19
680.24	827.49
680.685	818.89
681.131	822.89
681.576	824.54
682.021	832.19
682.466	832.84
682.912	848.64
683.357	880.79
683.802	959.84
684.247	1054.79
684.692	1118.79
685.137	1162.49
685.583	1179.49
686.028	1237.59
686.473	1178.59
686.918	1010.94
687.363	932.54
687.807	887.94
688.252	842.19
688.697	824.69
689.142	788.39
689.587	797.54
690.032	816.79
690.477	843.69
690.921	883.84
691.366	931.14
691.811	964.49
692.255	1045.89
692.7	1272.39
693.145	1845.54
693.589	2795.69
694.034	3316.24
694.478	3523.79
694.923	3223.79
695.367	4586.19
695.812	2778.49
696.256	1178.44
696.701	868.64
697.145	799.79
697.59	777.04
698.034	772.04
698.478	770.74
698.922	774.74
699.367	792.49
699.811	838.79
700.255	904.84
700.699	985.34
701.143	1067.79
701.588	1120.59
702.032	1158.49
702.476	1200.54
702.92	1283.89
703.364	1675.34
703.808	2565.79
704.252	3189.19
704.696	3350.59
705.14	3157.19
705.584	4331.14
706.027	2405.74
706.471	1221.44
706.915	911.39
707.359	813.84
707.803	759.59
708.246	733.74
708.69	732.04
709.134	724.64
709.577	720.44
710.021	738.19
710.465	730.09
710.908	725.34
711.352	748.34
711.795	827.99
712.239	892.24
712.682	925.74
713.126	917.94
713.569	1017.54
714.012	844.24
714.456	749.54
714.899	696.99
715.342	657.34
715.786	623.39
716.229	605.49
716.672	595.34
717.115	597.64
717.558	605.24
718.002	618.74
718.445	641.24
718.888	679.19
719.331	694.29
719.774	716.74
720.217	694.04
720.66	648.39
721.103	611.64
721.546	580.79
721.989	567.79
722.432	561.39
722.874	563.74
723.317	566.64
723.76	624.44
724.203	765.14
724.645	1012.19
725.088	1193.34
725.531	1155.69
725.974	1266.14
726.416	1138.84
726.859	711.54
727.301	581.79
727.744	558.69
728.187	555.24
728.629	563.89
729.071	588.89
729.514	626.99
729.956	648.74
730.399	653.79
730.841	647.59
731.283	632.64
731.726	621.19
732.168	631.74
732.61	663.69
733.053	717.34
733.495	786.94
733.937	875.34
734.379	1030.34
734.821	1315.09
735.263	2111.14
735.705	3792.94
736.148	5555.09
736.59	5496.04
737.032	5979.14
737.474	4895.14
737.916	1872.79
738.357	993.04
738.799	767.34
739.241	713.74
739.683	714.74
740.125	721.64
740.567	728.99
741.008	764.39
741.45	792.84
741.892	827.24
742.334	820.59
742.775	813.09
743.217	774.79
743.658	674.49
744.1	676.09
744.542	763.09
744.983	779.99
745.425	820.44
745.866	815.09
746.307	723.84
746.749	784.69
747.19	1140.89
747.632	2236.49
748.073	4148.04
748.514	5690.84
748.956	7540.94
749.397	8758.24
749.838	6049.14
750.279	5754.14
750.72	2957.84
751.162	1249.74
751.603	725.64
752.044	587.14
752.485	521.84
752.926	486.54
753.367	468.49
753.808	447.39
754.249	446.64
754.69	439.64
755.131	430.44
755.572	430.69
756.013	434.69
756.453	433.04
756.894	450.59
757.335	446.54
757.776	451.74
758.216	466.74
758.657	496.94
759.098	552.64
759.538	666.44
759.979	962.59
760.42	1961.14
760.86	5043.89
761.301	10314.49
761.741	11993.49
762.182	13704.64
762.622	8869.79
763.063	3195.99
763.503	1414.09
763.943	1075.99
764.384	1162.69
764.824	1099.94
765.264	1102.84
765.705	780.14
766.145	557.44
766.585	493.29
767.025	526.84
767.465	691.04
767.906	837.89
768.346	876.49
768.786	901.94
769.226	937.49
769.666	1608.69
770.106	3499.69
770.546	4872.79
770.986	5481.49
771.426	4121.59
771.866	1730.79
772.306	793.49
772.745	500.74
773.185	432.69
773.625	438.79
774.065	509.34
774.505	838.19
774.944	1687.39
775.384	2529.04
775.824	2879.89
776.263	2340.09
776.703	1146.39
777.142	583.49
777.582	399.54
778.021	362.09
778.461	344.89
778.9	330.19
779.34	302.19
779.779	288.99
780.219	280.54
780.658	274.44
781.097	271.84
781.537	260.04
781.976	260.54
782.415	267.09
782.855	263.04
783.294	265.54
783.733	255.44
784.172	264.59
784.611	265.04
785.05	264.34
785.489	268.89
785.928	283.99
786.367	287.84
786.806	303.34
787.245	323.14
787.684	337.19
788.123	331.64
788.562	318.14
789.001	305.24
789.44	294.69
789.879	294.29
790.317	295.99
790.756	318.54
791.195	362.79
791.634	497.94
792.072	898.54
792.511	2214.69
792.95	4042.04
793.388	4856.84
793.827	3128.59
794.265	1439.29
794.704	685.29
795.142	421.94
795.581	352.64
796.019	315.64
796.458	319.09
796.896	325.34
797.334	368.79
797.773	501.39
798.211	971.54
798.649	2015.04
799.087	3367.99
799.526	4742.04
799.964	4869.19
800.402	3319.34
800.84	1494.79
801.278	733.09
801.716	448.54
802.154	366.74
802.592	344.74
803.03	341.39
803.468	350.84
803.906	349.84
804.344	350.49
804.782	343.44
805.22	339.49
805.658	346.64
806.096	376.39
806.533	419.29
806.971	536.29
807.409	785.49
807.847	1577.59
808.284	4029.99
808.722	6996.04
809.16	9822.09
809.597	13242.94
810.035	15488.84
810.472	10533.39
810.91	4490.29
811.347	1996.74
811.785	941.69
812.222	594.34
812.66	453.19
813.097	396.39
813.535	342.49
813.972	304.89
814.409	279.79
814.846	269.59
815.284	249.09
815.721	258.64
816.158	281.59
816.595	364.79
817.032	441.19
817.47	402.59
817.907	320.49
818.344	280.19
818.781	268.14
819.218	316.24
819.655	450.49
820.092	581.24
820.529	535.14
820.966	439.79
821.403	324.64
821.839	284.49
822.276	297.99
822.713	347.49
823.15	330.79
823.587	365.09
824.023	660.59
824.46	1644.14
824.897	2859.39
825.333	2198.29
825.77	1001.09
826.206	520.24
826.643	313.34
827.08	237.29
827.516	206.84
827.953	194.69
828.389	185.54
828.825	172.99
829.262	167.39
829.698	161.09
830.135	151.54
830.571	154.89
831.007	156.84
831.443	157.94
831.88	160.94
832.316	168.24
832.752	166.44
833.188	161.14
833.624	168.39
834.06	171.79
834.497	169.69
834.933	172.99
835.369	185.09
835.805	191.94
836.241	204.09
836.677	225.59
837.112	258.59
837.548	319.04
837.984	478.49
838.42	1040.24
838.856	2895.64
839.292	5685.84
839.727	4147.49
840.163	2819.29
840.599	4314.59
841.034	6548.19
841.47	3239.54
841.906	1591.74
842.341	902.44
842.777	780.09
843.212	917.54
843.648	540.99
844.083	338.24
844.519	238.39
844.954	188.99
845.39	159.84
845.825	157.99
846.261	145.99
846.696	146.79
847.131	137.04
847.566	141.24
848.002	143.94
848.437	155.39
848.872	158.54
849.307	204.29
849.742	359.89
850.177	931.59
850.613	2004.24
851.048	1412.49
851.483	653.54
851.918	367.59
852.353	213.44
852.788	165.59
853.223	138.34
853.657	127.64
854.092	118.04
854.527	115.94
854.962	123.04
855.397	129.29
855.832	115.84
856.266	104.79
856.701	99.99
857.136	108.29
857.57	122.99
858.005	143.74
858.44	127.94
858.874	123.74
859.309	122.59
859.743	130.19
860.178	122.39
860.612	126.84
861.047	162.99
861.481	213.24
861.915	147.54
862.35	119.09
862.784	100.74
863.218	92.44
863.653	104.44
864.087	125.49
864.521	169.94
864.955	280.04
865.39	462.19
865.824	336.74
866.258	392.34
866.692	561.49
867.126	404.09
867.56	223.09
867.994	146.74
868.428	135.29
868.862	156.39
869.296	142.99
869.73	172.04
870.164	154.04
870.598	137.84
871.031	107.39
871.465	96.69
871.899	78.94
872.333	69.19
872.766	73.74
873.2	76.09
873.634	75.99
874.067	85.09
874.501	80.59
874.935	78.34
875.368	83.29
875.802	74.54
876.235	71.99
876.669	68.89
877.102	63.94
877.535	66.99
877.969	59.64
878.402	63.04
878.836	63.09
879.269	61.14
879.702	65.39
880.135	66.54
880.569	71.04
881.002	62.49
881.435	57.39
881.868	56.99
882.301	55.84
882.734	55.24
883.167	57.79
883.601	56.09
884.034	53.34
884.467	48.59
884.899	53.59
885.332	47.04
885.765	49.34
886.198	53.19
886.631	51.54
887.064	49.24
887.497	41.84
887.929	52.69
888.362	47.54
888.795	48.09
889.228	53.69
889.66	50.09
890.093	44.89
890.526	52.24
890.958	47.19
891.391	45.79
891.823	44.19
892.256	45.94
892.688	47.84
893.121	42.79
893.553	47.54
893.985	43.14
894.418	39.14
894.85	52.94
895.282	47.74
895.715	43.04
896.147	44.79
896.579	38.19
897.011	48.09
897.444	44.49
897.876	37.64
898.308	41.59
898.74	41.84
899.172	39.19
899.604	44.34
900.036	38.14
900.468	40.09
900.9	44.09
901.332	53.89
901.764	54.79
902.196	55.24
902.628	54.04
903.06	69.89
903.491	78.34
903.923	65.39
904.355	65.34
904.787	70.29
905.218	62.74
905.65	58.29
906.082	58.09
906.513	51.89
906.945	53.69
907.376	55.54
907.808	58.09
908.239	67.74
908.671	68.24
909.102	69.54
909.534	103.64
909.965	189.54
910.397	469.14
910.828	1338.34
911.259	806.29
911.691	435.79
912.122	254.59
912.553	127.74
912.984	73.54
913.415	65.64
913.847	56.74
914.278	61.69
914.709	47.74
915.14	44.29
915.571	50.69
916.002	46.24
916.433	46.19
916.864	39.79
917.295	45.59
917.726	52.44
918.157	65.24
918.587	62.54
919.018	58.59
919.449	52.19
919.88	69.54
920.311	103.94
920.741	281.59
921.172	495.74
921.603	246.64
922.033	160.39
922.464	101.54
922.895	65.59
923.325	48.69
923.756	47.99
924.186	67.89
924.617	111.59
925.047	165.94
925.478	158.39
925.908	115.34
926.338	78.74
926.769	59.04
927.199	49.84
927.629	40.49
928.06	48.79
928.49	45.64
928.92	33.14
929.35	39.29
929.78	31.49
930.21	26.29
930.641	18.79
931.071	25.99
931.501	25.69
931.931	25.84
932.361	25.09
932.791	26.04
933.221	26.94
933.651	39.89
934.08	71.19
934.51	39.79
934.94	35.19
935.37	27.89
935.8	26.14
936.229	16.74
936.659	22.09
937.089	30.74
937.519	52.64
937.948	67.34
938.378	43.74
938.807	29.14
939.237	22.64
939.666	18.59
940.096	11.39
940.525	11.44
940.955	20.24
941.384	14.24
941.814	14.94
942.243	12.89
942.672	13.89
943.102	10.44
943.531	10.89
943.96	11.49
944.39	12.94
944.819	13.04
945.248	12.89
945.677	12.04
946.106	12.29
946.535	15.19
946.964	11.84
947.393	9.79
947.822	10.24
948.251	15.64
948.68	13.44
949.109	12.59
949.538	14.54
949.967	12.54
950.396	6.94
950.825	13.49
951.254	11.44
951.682	6.04
952.111	8.34
952.54	10.04
952.969	8.04
953.397	8.34
953.826	6.99
954.254	13.39
954.683	11.04
955.112	9.84
955.54	5.89
955.969	9.24
956.397	9.94
956.826	10.34
957.254	8.54
957.682	10.54
958.111	11.74
958.539	6.74
958.967	9.34
959.396	12.34
959.824	11.99
960.252	9.04
960.68	10.34
961.109	9.29
961.537	15.14
961.965	7.59
962.393	5.44
962.821	11.94
963.249	12.89
963.677	14.54
964.105	85.34
964.533	143.39
964.961	69.04
965.389	42.04
965.817	23.24
966.245	12.39
966.672	11.19
967.1	9.09
967.528	1.84
967.956	7.19
968.383	12.64
968.811	4.49
969.239	6.74
969.666	4.74
970.094	2.64
970.522	2.79
970.949	6.19
971.377	-0.41
971.804	0.54
972.232	4.44
972.659	3.04
973.087	5.84
973.514	4.84
973.941	1.64
974.369	4.94
974.796	5.44
975.223	6.04
975.651	3.74
976.078	3.64
976.505	13.14
976.932	35.29
977.359	43.89
977.786	25.29
978.214	18.44
978.641	9.94
979.068	8.04
979.495	3.59
979.922	5.99
980.349	7.99
980.776	7.09
981.202	9.79
981.629	9.94
982.056	10.09
982.483	1.44
982.91	11.79
983.337	1.19
983.763	5.04
984.19	7.09
984.617	0.24
985.043	4.44
985.47	8.14
985.897	6.44
986.323	10.39
986.75	0.49
987.176	1.14
987.603	2.44
988.029	8.89
988.456	6.29
988.882	3.14
989.308	-0.46
989.735	4.84
990.161	7.39
990.587	0.44
991.014	5.19
991.44	3.94
991.866	7.19
992.292	0.79
992.719	1.04
993.145	5.59
993.571	7.04
993.997	9.39
994.423	7.24
994.849	-1.06
995.275	5.24
995.701	3.74
996.127	-0.41
996.553	4.39
996.979	1.04
997.405	9.34
997.83	5.44
998.256	4.39
998.682	4.94
999.108	3.54
999.534	2.84
999.959	4.49
1000.385	13.59
1000.811	-0.41
1001.236	0.29
1001.662	-1.11
1002.087	9.94
1002.513	4.14
1002.938	-1.16
1003.364	4.64
1003.789	4.99
1004.215	2.04
1004.64	6.19
1005.066	6.39
1005.491	2.89
1005.916	3.19
1006.342	3.74
1006.767	5.09
1007.192	10.69
1007.617	6.34
1008.042	1.99
1008.468	3.94
1008.893	7.44
1009.318	13.74
1009.743	11.99
1010.168	23.99
1010.593	19.19
1011.018	16.89
1011.443	8.84
1011.868	6.24
1012.293	4.69
1012.718	2.54
1013.143	4.89
1013.567	10.24
1013.992	7.99
1014.417	2.44
1014.842	-0.31
1015.267	2.19
1015.691	5.99
1016.116	2.29
1016.541	4.19
1016.965	6.39
1017.39	4.94
1017.814	1.69
1018.239	-3.11
1018.663	-5.61
1019.088	-1.71
1019.512	8.54
1019.937	0.69
1020.361	1.39
1020.785	-2.06
1021.21	-5.81
1021.634	-0.01
1022.058	2.14
1022.483	-5.61
1022.907	-2.46
1023.331	1.79
1023.755	-0.26
1024.179	1.09
1024.604	1.59
1025.028	1.69
1025.452	2.54
1025.876	1.04
1026.3	4.64
1026.724	0.09
1027.148	2.79
1027.572	-2.71
1027.996	0.99
1028.42	1.39
1028.843	1.94
1029.267	-1.06
1029.691	-0.61
1030.115	-1.21
1030.539	0.99
1030.962	-1.66
1031.386	4.19
1031.81	0.54
1032.233	-2.01
1032.657	-8.01
1033.08	1.79
1033.504	1.74
1033.927	1.14
1034.351	-2.41
1034.774	0.54
1035.198	-6.61
1035.621	1.29
1036.045	-0.71
1036.468	4.94
1036.891	3.49
1037.315	7.49
1037.738	-0.01
1038.161	1.69
1038.584	2.94
1039.008	-4.86
1039.431	-3.06
1039.854	-3.56
1040.277	1.19
1040.7	3.64
1041.123	-5.61
1041.546	-0.41
1041.969	3.49
1042.392	5.49
1042.815	-9.31
1043.238	-1.36
1043.661	1.09
1044.084	4.49
1044.507	5.39
1044.93	-3.46
1045.352	2.54
1045.775	-1.31
1046.198	1.49
1046.621	6.64
1047.043	1.34
1047.466	0.54
1047.889	2.54
1048.311	3.89
1048.734	-0.11
1049.156	-0.46
1049.579	-2.06
1050.001	-0.76
1050.424	0.29
1050.846	-5.51
1051.269	0.84
1051.691	-4.06
1052.113	1.99
1052.536	0.29
1052.958	-1.96
1053.38	0.19
1053.802	1.64
1054.225	-0.56
1054.647	5.34
1055.069	-2.26
1055.491	1.64
1055.913	-2.01
1056.335	-8.96
1056.757	-1.06
1057.179	-4.16
1057.601	-2.11
1058.023	2.24
1058.445	-3.06
1058.867	8.49
1059.289	0.19
1059.711	3.74
1060.133	-0.81
1060.555	-0.21
1060.976	2.49
1061.398	-0.86
1061.82	1.69
1062.241	0.74
1062.663	0.04
1063.085	-3.16
1063.506	-6.61
1063.928	-3.36
1064.35	2.14
1064.771	1.14
1065.193	-2.36
1065.614	-2.76
1066.035	2.24
1066.457	4.04
1066.878	4.94
1067.3	0.49
1067.721	3.69
1068.142	6.64
1068.564	3.99
1068.985	1.24
1069.406	-6.36
1069.827	-0.46
1070.248	-3.11
1070.67	-3.46
1071.091	-6.91
1071.512	-2.51
1071.933	0.34
1072.354	-6.76
1072.775	-2.46
1073.196	4.09
1073.617	-2.21
1074.038	-3.01
1074.459	-3.66
1074.88	0.09
1075.3	-0.26
1075.721	-0.56
1076.142	-1.76
1076.563	-7.96
1076.983	1.54
1077.404	-7.76
1077.825	2.34
1078.246	-1.91
1078.666	-3.51
1079.087	-1.96
1079.507	-2.81
1079.928	-0.91
1080.348	-0.91
1080.769	4.79
1081.189	-0.91
1081.61	-1.96
1082.03	0.14
1082.451	1.39
1082.871	-6.11
1083.291	-0.21
1083.711	-3.16
1084.132	-0.91
1084.552	-4.31
1084.972	-4.61
1085.392	-4.16
1085.813	0.09
1086.233	-2.66
1086.653	-2.31
1087.073	-3.31
1087.493	-1.01
1087.913	-4.96
1088.333	-0.01
1088.753	2.14
1089.173	4.59
1089.593	2.19
1090.013	2.14
1090.433	-6.46
1090.852	3.14
1091.272	-6.11
1091.692	-3.46
1092.112	-2.66
1092.531	-4.16
1092.951	1.54
1093.371	-4.16
1093.79	-3.66
1094.21	-2.66
1094.63	0.99
1095.049	2.69
1095.469	-9.36
1095.888	2.54
1096.308	-1.31
1096.727	-4.41
1097.146	-4.61
1097.566	-3.01
1097.985	0.94
1098.405	2.69
1098.824	0.94
1099.243	-4.26
1099.662	-1.86
1100.082	-2.26
1100.501	-0.86
1100.92	3.84
1101.339	2.24
1101.758	1.99
