Data from MSPlasma+Separation6_Subt14_10-15-55-047.txt Node
Date: Fri Jul 21 10:15:55 EDT 2017
User: Ender
Spectrometer: HR+D1039
Trigger mode: 0
Integration Time (sec): 2.510000E-3
Scans to average: 20
Electric dark correction enabled: true
Nonlinearity correction enabled: false
Boxcar width: 0
XAxis mode: Wavelengths
Number of Pixels in Spectrum: 2048
>>>>>Begin Spectral Data<<<<<
187.836	-2.58
188.309	-2.58
188.782	-2.58
189.255	0.92
189.728	4.32
190.201	0.02
190.674	-1.13
191.147	-0.33
191.619	1.77
192.092	0.42
192.565	-4.23
193.038	5.57
193.511	2.27
193.984	-0.83
194.456	-0.78
194.929	-3.63
195.402	-4.03
195.874	2.22
196.347	2.87
196.82	1.97
197.292	-2.33
197.765	-3.18
198.237	0.32
198.71	-5.08
199.182	0.42
199.655	-0.58
200.127	-2.23
200.6	-1.88
201.072	3.32
201.544	1.82
202.017	-1.63
202.489	2.52
202.961	-3.73
203.433	-6.58
203.906	-1.68
204.378	3.22
204.85	0.42
205.322	-2.43
205.794	0.67
206.266	-4.18
206.739	4.92
207.211	-2.43
207.683	0.32
208.155	2.07
208.627	-3.08
209.099	3.72
209.57	4.92
210.042	4.12
210.514	2.67
210.986	1.47
211.458	7.62
211.93	0.82
212.402	5.27
212.873	-2.73
213.345	-3.58
213.817	-1.08
214.288	-3.43
214.76	4.42
215.232	-1.38
215.703	-1.58
216.175	1.87
216.646	4.02
217.118	-1.48
217.589	-1.83
218.061	-3.83
218.532	0.52
219.004	3.87
219.475	6.27
219.946	6.02
220.418	9.92
220.889	9.37
221.36	3.02
221.832	5.37
222.303	3.82
222.774	2.17
223.245	-2.48
223.717	-0.03
224.188	4.32
224.659	1.72
225.13	0.12
225.601	-0.13
226.072	0.22
226.543	-0.28
227.014	-2.63
227.485	7.27
227.956	2.77
228.427	6.57
228.898	0.77
229.369	1.02
229.839	3.87
230.31	7.42
230.781	5.82
231.252	6.87
231.722	8.67
232.193	10.22
232.664	15.37
233.135	19.67
233.605	19.87
234.076	19.72
234.546	14.02
235.017	17.82
235.487	15.37
235.958	13.47
236.428	23.77
236.899	30.42
237.369	42.87
237.84	37.52
238.31	42.72
238.78	36.87
239.251	37.27
239.721	39.92
240.191	32.12
240.662	17.37
241.132	11.77
241.602	16.02
242.072	24.97
242.542	29.17
243.013	18.32
243.483	20.17
243.953	12.17
244.423	14.77
244.893	18.02
245.363	21.52
245.833	17.42
246.303	20.17
246.773	29.27
247.243	26.67
247.712	34.92
248.182	40.02
248.652	38.92
249.122	65.87
249.592	124.12
250.061	180.62
250.531	283.47
251.001	217.77
251.471	186.42
251.94	142.92
252.41	73.67
252.879	48.52
253.349	37.12
253.818	30.52
254.288	30.22
254.757	25.07
255.227	36.12
255.696	29.27
256.166	28.77
256.635	33.47
257.105	34.02
257.574	48.07
258.043	51.17
258.513	94.92
258.982	111.32
259.451	79.82
259.92	79.62
260.389	73.47
260.859	59.02
261.328	60.97
261.797	97.47
262.266	84.27
262.735	39.22
263.204	19.32
263.673	20.72
264.142	15.67
264.611	20.42
265.08	23.52
265.549	24.32
266.018	21.47
266.487	25.57
266.955	14.87
267.424	22.62
267.893	25.32
268.362	24.47
268.83	22.17
269.299	26.32
269.768	26.47
270.236	34.77
270.705	37.77
271.174	35.67
271.642	35.82
272.111	43.22
272.579	81.57
273.048	116.22
273.516	157.62
273.985	156.82
274.453	117.12
274.922	71.32
275.39	37.92
275.858	39.97
276.327	33.67
276.795	32.37
277.263	40.12
277.731	55.27
278.2	105.07
278.668	135.82
279.136	108.67
279.604	69.22
280.072	42.52
280.54	40.52
281.008	35.92
281.477	38.87
281.945	36.47
282.413	41.17
282.881	39.62
283.348	39.62
283.816	43.47
284.284	42.67
284.752	42.27
285.22	46.97
285.688	50.47
286.156	87.02
286.623	229.47
287.091	448.77
287.559	233.07
288.026	87.27
288.494	51.82
288.962	46.92
289.429	42.42
289.897	41.62
290.364	38.97
290.832	38.67
291.3	36.22
291.767	45.57
292.234	45.82
292.702	42.62
293.169	51.52
293.637	52.02
294.104	50.47
294.571	48.07
295.039	48.77
295.506	44.12
295.973	49.12
296.44	46.12
296.908	53.97
297.375	59.22
297.842	59.97
298.309	50.77
298.776	48.27
299.243	49.12
299.71	48.07
300.177	46.02
300.644	54.77
301.111	61.57
301.578	60.37
302.045	49.57
302.512	48.97
302.979	51.02
303.446	56.97
303.913	58.02
304.379	62.92
304.846	68.17
305.313	79.77
305.78	90.12
306.246	111.77
306.713	115.42
307.18	100.17
307.646	114.67
308.113	97.17
308.579	74.87
309.046	80.57
309.512	79.77
309.979	71.27
310.445	63.07
310.912	69.27
311.378	69.87
311.845	65.92
312.311	59.62
312.777	62.92
313.244	70.37
313.71	72.22
314.176	84.52
314.642	91.47
315.109	104.77
315.575	101.97
316.041	89.77
316.507	86.77
316.973	99.37
317.439	96.12
317.905	105.52
318.371	101.37
318.837	95.67
319.303	99.47
319.769	92.42
320.235	108.92
320.701	123.12
321.167	128.37
321.633	159.12
322.099	212.92
322.564	287.42
323.03	224.02
323.496	156.62
323.962	150.07
324.427	139.52
324.893	122.77
325.359	119.82
325.824	103.32
326.29	112.92
326.755	106.02
327.221	106.27
327.686	118.17
328.152	105.92
328.617	101.12
329.083	100.92
329.548	106.97
330.014	108.82
330.479	118.27
330.944	138.47
331.41	162.27
331.875	152.07
332.34	153.12
332.805	181.17
333.271	235.37
333.736	309.12
334.201	275.67
334.666	208.12
335.131	235.67
335.596	188.77
336.061	195.07
336.526	196.37
336.991	169.82
337.456	182.07
337.921	144.72
338.386	124.57
338.851	112.02
339.316	104.42
339.781	99.72
340.246	100.77
340.711	105.72
341.175	108.27
341.64	103.07
342.105	109.27
342.569	113.92
343.034	120.87
343.499	124.47
343.963	121.92
344.428	122.52
344.893	128.12
345.357	125.77
345.822	127.52
346.286	128.27
346.751	136.57
347.215	127.47
347.679	136.92
348.144	145.52
348.608	143.37
349.073	150.62
349.537	166.62
350.001	164.57
350.465	151.27
350.93	142.47
351.394	143.67
351.858	143.07
352.322	151.02
352.786	151.62
353.25	155.27
353.715	151.02
354.179	163.12
354.643	166.62
355.107	169.77
355.571	178.97
356.035	182.42
356.498	179.17
356.962	192.42
357.426	186.47
357.89	167.77
358.354	161.62
358.818	161.17
359.281	164.42
359.745	170.62
360.209	164.32
360.673	168.37
361.136	177.57
361.6	170.97
362.064	182.67
362.527	185.22
362.991	184.32
363.454	193.52
363.918	193.22
364.381	184.22
364.845	176.32
365.308	177.57
365.772	175.42
366.235	181.57
366.698	187.17
367.162	229.22
367.625	256.52
368.088	209.87
368.552	191.32
369.015	193.27
369.478	204.32
369.941	210.82
370.404	215.97
370.867	222.47
371.331	222.07
371.794	231.72
372.257	255.87
372.72	266.97
373.183	258.27
373.646	263.27
374.109	259.42
374.572	300.87
375.035	361.72
375.497	274.62
375.96	220.17
376.423	205.82
376.886	209.27
377.349	215.87
377.811	210.27
378.274	217.82
378.737	221.77
379.199	230.42
379.662	232.22
380.125	255.12
380.587	276.22
381.05	291.02
381.512	286.57
381.975	279.87
382.437	277.62
382.9	271.87
383.362	275.87
383.825	295.27
384.287	373.87
384.75	426.67
385.212	379.92
385.674	308.22
386.136	277.47
386.599	284.82
387.061	286.67
387.523	301.27
387.985	302.27
388.447	315.12
388.91	357.32
389.372	425.27
389.834	402.07
390.296	330.72
390.758	335.47
391.22	347.22
391.682	420.57
392.144	639.87
392.606	594.07
393.068	361.67
393.529	330.42
393.991	320.02
394.453	314.27
394.915	332.82
395.377	395.67
395.838	483.62
396.3	346.92
396.762	269.07
397.224	258.27
397.685	253.27
398.147	259.92
398.608	255.92
399.07	264.12
399.531	262.02
399.993	267.67
400.454	262.32
400.916	267.52
401.377	274.37
401.839	274.72
402.3	274.02
402.762	287.72
403.223	318.82
403.684	318.37
404.145	298.82
404.607	292.57
405.068	293.22
405.529	301.52
405.99	297.97
406.451	310.62
406.913	304.17
407.374	310.92
407.835	309.97
408.296	325.72
408.757	323.87
409.218	335.92
409.679	328.37
410.14	342.17
410.601	351.82
411.062	366.07
411.522	424.47
411.983	470.07
412.444	399.27
412.905	354.97
413.366	347.07
413.826	357.77
414.287	398.27
414.748	468.82
415.208	476.57
415.669	404.37
416.13	361.42
416.59	357.72
417.051	381.72
417.511	389.52
417.972	419.57
418.432	448.52
418.893	495.82
419.353	473.02
419.814	369.72
420.274	326.02
420.734	332.67
421.195	347.52
421.655	361.02
422.115	351.27
422.576	339.57
423.036	343.02
423.496	356.67
423.956	372.42
424.416	400.47
424.876	452.37
425.336	446.57
425.797	442.52
426.257	448.32
426.717	421.42
427.177	399.47
427.637	412.17
428.097	432.82
428.556	450.17
429.016	491.42
429.476	488.22
429.936	473.72
430.396	463.42
430.856	474.27
431.315	478.92
431.775	510.82
432.235	533.27
432.694	547.77
433.154	516.37
433.614	498.67
434.073	487.82
434.533	442.72
434.993	427.57
435.452	426.07
435.912	421.42
436.371	414.67
436.83	416.67
437.29	417.17
437.749	398.22
438.209	390.32
438.668	400.92
439.127	394.92
439.587	394.47
440.046	374.17
440.505	377.97
440.964	373.87
441.424	394.22
441.883	400.12
442.342	377.87
442.801	365.17
443.26	382.07
443.719	376.22
444.178	362.47
444.637	372.02
445.096	371.82
445.555	373.32
446.014	382.07
446.473	372.32
446.932	367.02
447.391	372.92
447.849	377.47
448.308	375.07
448.767	379.17
449.226	393.67
449.685	393.32
450.143	413.82
450.602	409.12
451.061	393.37
451.519	400.72
451.978	406.57
452.436	421.57
452.895	400.27
453.353	389.42
453.812	395.12
454.27	391.02
454.729	381.92
455.187	386.12
455.646	391.87
456.104	389.02
456.562	395.57
457.021	383.32
457.479	368.37
457.937	383.72
458.395	388.22
458.854	386.82
459.312	378.02
459.77	383.97
460.228	396.47
460.686	390.87
461.144	403.97
461.602	386.57
462.06	390.17
462.518	403.07
462.976	398.42
463.434	405.67
463.892	406.22
464.35	415.47
464.808	415.82
465.266	426.32
465.724	432.17
466.181	429.62
466.639	424.82
467.097	448.27
467.555	462.07
468.012	459.87
468.47	460.42
468.928	478.92
469.385	494.02
469.843	494.17
470.3	497.67
470.758	514.42
471.215	521.22
471.673	531.57
472.13	543.37
472.588	555.22
473.045	550.32
473.503	558.47
473.96	588.77
474.417	594.67
474.875	630.27
475.332	647.22
475.789	659.07
476.246	682.37
476.704	715.62
477.161	729.17
477.618	752.17
478.075	799.97
478.532	862.92
478.989	939.37
479.446	1042.62
479.903	1100.87
480.36	1211.77
480.817	1299.17
481.274	1393.02
481.731	1534.57
482.188	1647.07
482.645	1779.22
483.102	1875.97
483.558	2030.97
484.015	2117.27
484.472	2122.17
484.929	2050.47
485.385	1969.82
485.842	1908.07
486.299	1807.77
486.755	1626.72
487.212	1459.52
487.668	1309.37
488.125	1197.02
488.582	1107.47
489.038	1049.47
489.494	1018.07
489.951	978.27
490.407	955.52
490.864	936.42
491.32	914.97
491.776	904.92
492.233	899.67
492.689	886.27
493.145	870.42
493.602	868.22
494.058	878.67
494.514	894.22
494.97	889.22
495.426	906.92
495.882	897.67
496.338	910.37
496.794	938.67
497.251	947.27
497.707	943.22
498.163	948.17
498.618	939.07
499.074	953.27
499.53	972.82
499.986	991.77
500.442	1000.62
500.898	1000.77
501.354	1014.62
501.809	1025.92
502.265	1034.67
502.721	1088.52
503.177	1118.27
503.632	1068.92
504.088	1067.47
504.543	1164.32
504.999	1084.72
505.455	966.82
505.91	915.57
506.366	897.77
506.821	904.47
507.277	893.52
507.732	898.47
508.187	894.27
508.643	904.52
509.098	911.42
509.553	917.97
510.009	925.57
510.464	942.67
510.919	959.22
511.375	964.42
511.83	974.02
512.285	999.27
512.74	1016.17
513.195	1033.52
513.65	1048.62
514.105	1062.42
514.56	1061.22
515.015	1091.42
515.47	1102.17
515.925	1091.02
516.38	1080.22
516.835	1079.97
517.29	1073.82
517.745	1091.17
518.2	1070.12
518.655	1037.62
519.109	1021.72
519.564	1009.62
520.019	1003.87
520.474	1001.12
520.928	990.37
521.383	990.07
521.838	983.82
522.292	980.87
522.747	958.07
523.201	960.22
523.656	945.92
524.11	951.62
524.565	942.77
525.019	951.47
525.474	950.97
525.928	950.52
526.382	930.52
526.837	928.67
527.291	938.62
527.745	930.92
528.2	932.97
528.654	909.17
529.108	923.32
529.562	923.27
530.016	921.87
530.47	937.72
530.925	926.17
531.379	929.92
531.833	947.52
532.287	930.92
532.741	928.12
533.195	929.02
533.649	928.97
534.103	923.77
534.556	912.87
535.01	930.37
535.464	927.47
535.918	931.47
536.372	933.82
536.826	925.47
537.279	928.97
537.733	927.92
538.187	927.22
538.64	925.32
539.094	931.82
539.548	955.87
540.001	939.82
540.455	954.22
540.908	960.27
541.362	964.32
541.815	975.27
542.269	1002.07
542.722	989.92
543.175	1002.52
543.629	1007.32
544.082	1016.67
544.536	1018.52
544.989	1022.92
545.442	1035.52
545.895	1030.77
546.349	1033.57
546.802	1036.52
547.255	1034.97
547.708	1035.72
548.161	1044.87
548.614	1042.27
549.067	1060.57
549.52	1049.22
549.973	1028.57
550.426	1024.67
550.879	1013.47
551.332	1017.67
551.785	1026.37
552.238	1037.12
552.691	1033.12
553.144	1048.82
553.596	1062.37
554.049	1082.57
554.502	1100.92
554.955	1120.12
555.407	1137.67
555.86	1122.72
556.313	1116.22
556.765	1091.42
557.218	1086.17
557.67	1083.87
558.123	1069.77
558.576	1059.47
559.028	1053.37
559.48	1084.52
559.933	1060.77
560.385	1033.32
560.838	999.27
561.29	981.42
561.742	977.47
562.195	959.27
562.647	952.87
563.099	947.82
563.551	942.67
564.004	951.87
564.456	947.17
564.908	929.47
565.36	907.72
565.812	893.17
566.264	881.77
566.716	871.47
567.168	852.92
567.62	861.47
568.072	855.92
568.524	845.02
568.976	837.07
569.428	838.82
569.88	837.27
570.332	839.97
570.784	836.62
571.235	830.57
571.687	834.52
572.139	837.17
572.59	833.07
573.042	850.67
573.494	846.32
573.945	832.62
574.397	816.67
574.849	822.07
575.3	816.97
575.752	809.57
576.203	806.67
576.655	804.47
577.106	787.92
577.557	787.02
578.009	790.57
578.46	789.22
578.912	782.22
579.363	788.32
579.814	782.12
580.265	787.32
580.717	785.22
581.168	777.52
581.619	786.27
582.07	790.87
582.521	794.52
582.972	794.17
583.423	803.52
583.875	826.12
584.326	861.92
584.777	934.07
585.227	1028.32
585.678	1098.82
586.129	1117.77
586.58	1127.87
587.031	1139.57
587.482	1217.42
587.933	1404.07
588.384	1303.27
588.834	1085.62
589.285	917.62
589.736	906.42
590.186	894.72
590.637	884.07
591.088	872.67
591.538	861.87
591.989	858.17
592.439	845.62
592.89	842.57
593.34	844.27
593.791	853.52
594.241	856.22
594.692	864.02
595.142	854.42
595.593	847.97
596.043	844.77
596.493	859.37
596.943	878.02
597.394	861.47
597.844	847.47
598.294	869.12
598.744	889.22
599.195	934.52
599.645	984.52
600.095	1026.07
600.545	1080.87
600.995	1123.67
601.445	1162.12
601.895	1210.87
602.345	1248.17
602.795	1231.57
603.245	1174.67
603.695	1104.67
604.145	1040.57
604.594	1000.37
605.044	950.27
605.494	886.92
605.944	851.17
606.393	835.72
606.843	824.92
607.293	829.07
607.743	819.22
608.192	832.37
608.642	834.82
609.091	832.42
609.541	828.52
609.99	825.57
610.44	817.07
610.889	805.67
611.339	806.17
611.788	788.57
612.238	797.12
612.687	809.57
613.136	821.52
613.586	834.87
614.035	833.12
614.484	838.12
614.933	850.27
615.383	832.47
615.832	803.17
616.281	790.67
616.73	764.97
617.179	739.02
617.628	726.92
618.077	717.07
618.526	707.82
618.975	702.77
619.424	689.67
619.873	687.77
620.322	685.37
620.771	684.62
621.22	678.12
621.669	667.52
622.118	655.22
622.567	649.57
623.015	637.97
623.464	639.67
623.913	627.52
624.361	636.42
624.81	631.67
625.259	623.92
625.707	613.57
626.156	626.62
626.604	629.12
627.053	634.17
627.501	628.72
627.95	633.92
628.398	649.37
628.847	632.37
629.295	641.27
629.744	644.62
630.192	658.77
630.64	717.97
631.089	786.42
631.537	820.42
631.985	828.62
632.433	864.02
632.881	856.62
633.33	1021.82
633.778	1125.97
634.226	792.67
634.674	731.32
635.122	728.77
635.57	736.17
636.018	862.67
636.466	700.07
636.914	621.57
637.362	611.62
637.81	629.42
638.258	651.17
638.705	650.97
639.153	669.87
639.601	670.32
640.049	675.57
640.497	704.87
640.944	725.32
641.392	689.82
641.84	654.32
642.287	628.62
642.735	628.62
643.182	614.92
643.63	615.47
644.078	626.72
644.525	625.67
644.973	641.97
645.42	660.57
645.867	663.77
646.315	685.97
646.762	702.67
647.21	721.42
647.657	777.42
648.104	808.17
648.551	833.02
648.999	911.22
649.446	1013.87
649.893	1149.77
650.34	1361.52
650.787	1695.07
651.234	2211.17
651.682	3089.52
652.129	4476.97
652.576	6480.22
653.023	8654.72
653.47	10055.52
653.917	10887.57
654.363	11246.32
654.81	11908.27
655.257	11938.87
655.704	8144.97
656.151	4772.47
656.598	3063.22
657.044	2188.47
657.491	1695.32
657.938	1371.02
658.385	1151.17
658.831	1010.67
659.278	901.12
659.724	812.62
660.171	758.52
660.618	699.02
661.064	657.57
661.511	638.47
661.957	614.02
662.404	601.77
662.85	595.62
663.296	581.67
663.743	568.72
664.189	559.52
664.635	546.27
665.082	542.22
665.528	540.67
665.974	524.77
666.42	522.37
666.867	529.82
667.313	536.67
667.759	564.52
668.205	559.42
668.651	552.27
669.097	541.62
669.543	591.22
669.989	556.92
670.435	494.52
670.881	485.42
671.327	510.82
671.773	539.47
672.219	584.47
672.665	608.97
673.11	630.32
673.556	632.37
674.002	643.62
674.448	649.67
674.893	560.97
675.339	491.12
675.785	455.07
676.23	433.82
676.676	413.97
677.122	405.17
677.567	399.42
678.013	379.12
678.458	385.82
678.904	385.22
679.349	370.32
679.794	378.22
680.24	380.32
680.685	368.62
681.131	372.92
681.576	370.92
682.021	374.97
682.466	380.07
682.912	377.87
683.357	397.42
683.802	432.02
684.247	469.92
684.692	499.52
685.137	518.17
685.583	524.87
686.028	554.02
686.473	532.77
686.918	453.67
687.363	417.87
687.807	397.12
688.252	377.67
688.697	367.72
689.142	351.87
689.587	358.07
690.032	371.67
690.477	382.92
690.921	395.37
691.366	417.67
691.811	433.77
692.255	467.27
692.7	564.52
693.145	824.82
693.589	1231.67
694.034	1442.62
694.478	1526.77
694.923	1380.12
695.367	1909.42
695.812	1202.92
696.256	531.32
696.701	391.32
697.145	360.92
697.59	348.72
698.034	346.77
698.478	349.22
698.922	349.37
699.367	362.77
699.811	376.92
700.255	412.12
700.699	446.07
701.143	479.82
701.588	501.47
702.032	519.82
702.476	529.12
702.92	572.77
703.364	748.87
703.808	1136.37
704.252	1390.42
704.696	1448.62
705.14	1358.72
705.584	1801.22
706.027	1051.77
706.471	544.57
706.915	406.82
707.359	360.97
707.803	344.67
708.246	332.97
708.69	331.32
709.134	323.97
709.577	324.52
710.021	329.87
710.465	330.27
710.908	326.72
711.352	339.12
711.795	373.72
712.239	399.92
712.682	412.17
713.126	406.72
713.569	442.07
714.012	376.77
714.456	329.67
714.899	315.57
715.342	286.22
715.786	281.82
716.229	275.32
716.672	266.12
717.115	264.62
717.558	268.22
718.002	276.42
718.445	288.67
718.888	303.27
719.331	310.37
719.774	316.22
720.217	309.77
720.66	289.12
721.103	282.17
721.546	261.17
721.989	256.47
722.432	252.72
722.874	251.77
723.317	259.57
723.76	281.92
724.203	352.52
724.645	453.72
725.088	530.27
725.531	511.02
725.974	554.47
726.416	506.17
726.859	316.02
727.301	261.77
727.744	246.42
728.187	246.47
728.629	257.22
729.071	267.72
729.514	282.27
729.956	287.92
730.399	293.62
730.841	293.22
731.283	284.47
731.726	271.17
732.168	279.17
732.61	300.77
733.053	318.12
733.495	352.47
733.937	399.42
734.379	464.77
734.821	588.02
735.263	946.87
735.705	1650.32
736.148	2344.42
736.59	2305.47
737.032	2460.07
737.474	2043.57
737.916	842.92
738.357	439.07
738.799	342.77
739.241	318.92
739.683	322.22
740.125	316.72
740.567	318.02
741.008	342.52
741.45	350.62
741.892	367.12
742.334	368.07
742.775	355.07
743.217	338.77
743.658	296.97
744.1	300.22
744.542	334.87
744.983	343.97
745.425	362.02
745.866	358.92
746.307	322.07
746.749	354.07
747.19	514.67
747.632	998.22
748.073	1786.12
748.514	2405.87
748.956	3179.97
749.397	3662.12
749.838	2539.67
750.279	2372.72
750.72	1289.57
751.162	560.42
751.603	326.17
752.044	261.27
752.485	229.72
752.926	216.32
753.367	205.97
753.808	202.17
754.249	199.27
754.69	203.47
755.131	195.52
755.572	193.52
756.013	193.52
756.453	190.92
756.894	197.17
757.335	201.07
757.776	201.57
758.216	212.62
758.657	221.22
759.098	242.27
759.538	292.77
759.979	442.22
760.42	878.77
760.86	2178.07
761.301	4395.92
761.741	5019.32
762.182	5670.82
762.622	3673.87
763.063	1420.12
763.503	635.67
763.943	498.57
764.384	535.47
764.824	498.27
765.264	500.37
765.705	360.52
766.145	258.32
766.585	224.37
767.025	239.27
767.465	315.62
767.906	383.62
768.346	400.97
768.786	412.47
769.226	430.07
769.666	721.82
770.106	1514.22
770.546	2050.47
770.986	2257.57
771.426	1728.42
771.866	757.67
772.306	355.07
772.745	228.42
773.185	191.17
773.625	197.32
774.065	229.32
774.505	382.27
774.944	739.97
775.384	1067.22
775.824	1197.47
776.263	984.72
776.703	498.82
777.142	259.17
777.582	175.07
778.021	167.22
778.461	155.62
778.9	156.12
779.34	138.67
779.779	133.77
780.219	126.32
780.658	122.87
781.097	124.72
781.537	117.07
781.976	119.17
782.415	117.12
782.855	122.97
783.294	122.47
783.733	117.37
784.172	120.27
784.611	112.17
785.05	118.02
785.489	122.32
785.928	124.27
786.367	130.37
786.806	132.22
787.245	142.42
787.684	147.92
788.123	147.92
788.562	140.12
789.001	136.52
789.44	133.97
789.879	136.02
790.317	134.77
790.756	141.97
791.195	165.97
791.634	224.22
792.072	407.52
792.511	983.42
792.95	1704.12
793.388	2003.87
793.827	1322.22
794.265	631.72
794.704	309.92
795.142	194.37
795.581	156.57
796.019	142.72
796.458	139.77
796.896	146.67
797.334	164.92
797.773	223.57
798.211	433.62
798.649	876.67
799.087	1438.17
799.526	1991.17
799.964	2027.42
800.402	1400.97
800.84	661.27
801.278	327.17
801.716	200.27
802.154	160.52
802.592	151.87
803.03	158.02
803.468	159.62
803.906	157.67
804.344	154.47
804.782	149.17
805.22	148.42
805.658	159.57
806.096	167.57
806.533	182.87
806.971	241.42
807.409	352.27
807.847	702.27
808.284	1733.12
808.722	2919.62
809.16	4098.22
809.597	5604.32
810.035	6745.67
810.472	4329.27
810.91	1932.57
811.347	885.77
811.785	419.27
812.222	260.62
812.66	204.32
813.097	175.37
813.535	155.07
813.972	136.52
814.409	123.97
814.846	121.77
815.284	114.72
815.721	121.07
816.158	122.27
816.595	156.77
817.032	190.07
817.47	174.17
817.907	137.07
818.344	122.37
818.781	116.32
819.218	137.87
819.655	196.57
820.092	242.52
820.529	227.52
820.966	185.47
821.403	141.02
821.839	128.27
822.276	135.17
822.713	150.32
823.15	145.42
823.587	160.67
824.023	295.57
824.46	721.02
824.897	1202.22
825.333	926.07
825.77	445.62
826.206	231.97
826.643	137.12
827.08	104.12
827.516	92.47
827.953	84.32
828.389	81.42
828.825	74.92
829.262	77.47
829.698	71.57
830.135	68.52
830.571	69.07
831.007	68.17
831.443	66.37
831.88	69.87
832.316	77.52
832.752	76.07
833.188	74.72
833.624	75.22
834.06	75.97
834.497	71.92
834.933	71.52
835.369	87.82
835.805	90.12
836.241	88.47
836.677	103.87
837.112	115.52
837.548	143.12
837.984	216.52
838.42	459.07
838.856	1240.87
839.292	2325.52
839.727	1728.17
840.163	1230.07
840.599	1827.77
841.034	2675.62
841.47	1373.92
841.906	694.52
842.341	396.07
842.777	346.97
843.212	390.42
843.648	225.77
844.083	151.77
844.519	102.97
844.954	79.62
845.39	70.47
845.825	65.12
846.261	68.97
846.696	63.27
847.131	58.77
847.566	64.92
848.002	63.07
848.437	68.07
848.872	71.87
849.307	89.12
849.742	161.77
850.177	414.87
850.613	846.27
851.048	605.12
851.483	286.72
851.918	163.22
852.353	96.27
852.788	76.02
853.223	62.77
853.657	55.77
854.092	52.67
854.527	58.57
854.962	52.17
855.397	58.62
855.832	47.27
856.266	46.12
856.701	44.27
857.136	45.92
857.57	51.87
858.005	60.87
858.44	56.12
858.874	48.37
859.309	54.07
859.743	55.02
860.178	51.67
860.612	50.27
861.047	70.42
861.481	91.97
861.915	63.32
862.35	55.17
862.784	41.47
863.218	42.62
863.653	47.02
864.087	55.62
864.521	73.77
864.955	120.77
865.39	202.67
865.824	148.92
866.258	165.07
866.692	235.07
867.126	170.97
867.56	93.52
867.994	62.32
868.428	52.12
868.862	67.57
869.296	58.92
869.73	76.67
870.164	65.12
870.598	53.57
871.031	45.82
871.465	39.32
871.899	36.12
872.333	30.02
872.766	34.77
873.2	34.67
873.634	31.72
874.067	42.17
874.501	38.27
874.935	33.47
875.368	37.02
875.802	31.42
876.235	26.02
876.669	30.02
877.102	24.87
877.535	27.72
877.969	28.12
878.402	27.02
878.836	24.57
879.269	24.97
879.702	28.07
880.135	28.82
880.569	33.37
881.002	24.32
881.435	25.52
881.868	27.12
882.301	27.37
882.734	21.02
883.167	26.37
883.601	25.47
884.034	27.32
884.467	21.42
884.899	21.82
885.332	17.97
885.765	20.27
886.198	17.32
886.631	23.27
887.064	22.12
887.497	18.72
887.929	21.32
888.362	19.27
888.795	24.62
889.228	23.97
889.66	23.87
890.093	18.47
890.526	23.07
890.958	20.42
891.391	21.97
891.823	22.17
892.256	21.32
892.688	18.12
893.121	17.47
893.553	21.92
893.985	15.77
894.418	17.37
894.85	20.32
895.282	20.52
895.715	19.42
896.147	14.42
896.579	15.77
897.011	22.37
897.444	19.87
897.876	14.62
898.308	16.32
898.74	17.82
899.172	18.97
899.604	19.07
900.036	22.32
900.468	11.77
900.9	23.02
901.332	23.62
901.764	23.22
902.196	19.77
902.628	23.22
903.06	29.72
903.491	30.07
903.923	25.92
904.355	31.87
904.787	24.62
905.218	25.22
905.65	21.02
906.082	26.32
906.513	23.02
906.945	23.42
907.376	28.07
907.808	26.37
908.239	27.62
908.671	25.52
909.102	25.12
909.534	41.12
909.965	78.92
910.397	201.47
910.828	567.62
911.259	344.87
911.691	187.62
912.122	107.62
912.553	57.22
912.984	27.42
913.415	28.17
913.847	22.37
914.278	20.12
914.709	20.67
915.14	21.37
915.571	19.97
916.002	20.72
916.433	17.07
916.864	17.87
917.295	16.67
917.726	24.62
918.157	25.72
918.587	23.97
919.018	22.27
919.449	18.77
919.88	22.07
920.311	39.52
920.741	123.67
921.172	207.27
921.603	104.37
922.033	61.57
922.464	42.07
922.895	26.22
923.325	21.27
923.756	18.47
924.186	26.52
924.617	41.72
925.047	68.87
925.478	65.17
925.908	45.72
926.338	30.52
926.769	23.27
927.199	18.77
927.629	18.97
928.06	17.57
928.49	18.22
928.92	16.27
929.35	17.12
929.78	11.52
930.21	10.82
930.641	5.22
931.071	11.32
931.501	7.12
931.931	6.92
932.361	7.72
932.791	13.97
933.221	10.97
933.651	18.62
934.08	25.02
934.51	13.32
934.94	15.57
935.37	10.67
935.8	6.77
936.229	6.37
936.659	9.62
937.089	6.82
937.519	16.17
937.948	28.17
938.378	16.67
938.807	8.72
939.237	6.32
939.666	8.47
940.096	4.07
940.525	4.37
940.955	5.02
941.384	1.52
941.814	3.42
942.243	6.82
942.672	2.57
943.102	1.52
943.531	2.47
943.96	3.27
944.39	6.02
944.819	4.92
945.248	-0.68
945.677	4.27
946.106	2.22
946.535	4.47
946.964	7.27
947.393	2.07
947.822	2.07
948.251	7.27
948.68	2.47
949.109	2.07
949.538	0.97
949.967	4.97
950.396	2.22
950.825	4.22
951.254	4.07
951.682	-0.63
952.111	1.07
952.54	3.57
952.969	1.32
953.397	-1.48
953.826	1.92
954.254	6.92
954.683	2.62
955.112	5.42
955.54	0.67
955.969	1.02
956.397	0.47
956.826	2.02
957.254	2.97
957.682	-0.93
958.111	3.62
958.539	4.77
958.967	0.07
959.396	6.22
959.824	3.02
960.252	3.12
960.68	3.42
961.109	2.37
961.537	10.02
961.965	-3.78
962.393	2.12
962.821	3.42
963.249	-0.68
963.677	4.22
964.105	32.12
964.533	62.62
964.961	26.97
965.389	12.02
965.817	8.37
966.245	3.57
966.672	1.97
967.1	1.47
967.528	-3.38
967.956	0.87
968.383	4.82
968.811	-1.23
969.239	-0.68
969.666	4.32
970.094	1.82
970.522	-4.73
970.949	1.17
971.377	-5.08
971.804	-3.48
972.232	3.62
972.659	0.67
973.087	4.27
973.514	-0.88
973.941	-5.13
974.369	-2.98
974.796	0.07
975.223	-3.93
975.651	5.07
976.078	1.32
976.505	1.57
976.932	13.62
977.359	15.92
977.786	10.17
978.214	7.87
978.641	-1.63
979.068	0.72
979.495	-3.38
979.922	2.27
980.349	2.47
980.776	0.42
981.202	-1.68
981.629	1.62
982.056	0.22
982.483	-2.78
982.91	5.17
983.337	-1.73
983.763	0.32
984.19	5.62
984.617	-3.23
985.043	-3.93
985.47	2.27
985.897	2.37
986.323	5.87
986.75	-0.38
987.176	0.02
987.603	2.67
988.029	2.47
988.456	2.67
988.882	-2.98
989.308	-0.83
989.735	0.17
990.161	-1.63
990.587	2.62
991.014	5.77
991.44	1.22
991.866	-0.58
992.292	-3.68
992.719	1.47
993.145	2.02
993.571	-0.78
993.997	0.92
994.423	3.27
994.849	-3.23
995.275	-3.73
995.701	4.02
996.127	-5.83
996.553	-1.33
996.979	-1.48
997.405	4.72
997.83	2.57
998.256	6.27
998.682	2.07
999.108	1.27
999.534	-6.48
999.959	-1.53
1000.385	3.82
1000.811	-4.63
1001.236	-4.03
1001.662	-1.98
1002.087	3.22
1002.513	3.37
1002.938	-1.28
1003.364	-0.33
1003.789	5.87
1004.215	1.42
1004.64	-2.88
1005.066	-0.28
1005.491	4.22
1005.916	2.67
1006.342	1.32
1006.767	1.02
1007.192	4.62
1007.617	-1.18
1008.042	1.27
1008.468	-1.53
1008.893	0.12
1009.318	2.82
1009.743	4.02
1010.168	8.67
1010.593	7.67
1011.018	7.32
1011.443	3.02
1011.868	3.92
1012.293	1.07
1012.718	0.12
1013.143	-3.53
1013.567	3.42
1013.992	-2.63
1014.417	1.82
1014.842	2.22
1015.267	-4.03
1015.691	-1.78
1016.116	0.82
1016.541	2.47
1016.965	2.82
1017.39	5.22
1017.814	-1.53
1018.239	-4.18
1018.663	-5.48
1019.088	-5.13
1019.512	7.97
1019.937	-3.88
1020.361	-2.18
1020.785	-3.38
1021.21	-7.28
1021.634	-4.73
1022.058	0.27
1022.483	-4.83
1022.907	-5.78
1023.331	-1.03
1023.755	-5.93
1024.179	1.12
1024.604	2.12
1025.028	-2.13
1025.452	3.02
1025.876	1.52
1026.3	-2.33
1026.724	-2.63
1027.148	1.87
1027.572	-1.98
1027.996	-2.03
1028.42	-0.53
1028.843	-2.08
1029.267	-1.48
1029.691	1.87
1030.115	-0.13
1030.539	0.02
1030.962	-0.83
1031.386	-1.83
1031.81	-0.63
1032.233	-0.38
1032.657	-5.28
1033.08	-1.43
1033.504	-3.48
1033.927	-4.58
1034.351	-2.33
1034.774	-5.23
1035.198	-2.78
1035.621	2.32
1036.045	0.82
1036.468	4.72
1036.891	-0.08
1037.315	3.87
1037.738	0.77
1038.161	-5.13
1038.584	-4.23
1039.008	-6.33
1039.431	-0.18
1039.854	-7.68
1040.277	0.82
1040.7	-2.43
1041.123	1.47
1041.546	-5.28
1041.969	0.27
1042.392	1.87
1042.815	-7.13
1043.238	-3.68
1043.661	-4.83
1044.084	-2.68
1044.507	-2.23
1044.93	-2.88
1045.352	-3.38
1045.775	-5.83
1046.198	1.92
1046.621	0.17
1047.043	-2.48
1047.466	1.32
1047.889	-4.43
1048.311	2.32
1048.734	-6.03
1049.156	-3.98
1049.579	-2.83
1050.001	-2.18
1050.424	-2.88
1050.846	-4.58
1051.269	-9.18
1051.691	-3.93
1052.113	-0.88
1052.536	-0.23
1052.958	-5.53
1053.38	-5.08
1053.802	2.02
1054.225	-0.23
1054.647	1.97
1055.069	3.07
1055.491	-1.68
1055.913	0.72
1056.335	-9.53
1056.757	-3.83
1057.179	0.72
1057.601	-5.18
1058.023	-2.68
1058.445	-6.78
1058.867	3.87
1059.289	-1.03
1059.711	-0.03
1060.133	-2.63
1060.555	-1.63
1060.976	-0.53
1061.398	0.22
1061.82	3.32
1062.241	-4.88
1062.663	-2.13
1063.085	-5.83
1063.506	-4.18
1063.928	-6.53
1064.35	-1.63
1064.771	-1.13
1065.193	-7.68
1065.614	-4.13
1066.035	-1.58
1066.457	0.02
1066.878	-2.63
1067.3	-2.93
1067.721	-1.73
1068.142	2.92
1068.564	0.97
1068.985	-0.38
1069.406	-6.63
1069.827	-1.13
1070.248	-5.53
1070.67	-7.18
1071.091	-8.98
1071.512	-5.08
1071.933	-1.18
1072.354	-4.38
1072.775	0.27
1073.196	-1.28
1073.617	-4.03
1074.038	-3.18
1074.459	-3.68
1074.88	-4.03
1075.3	-3.38
1075.721	1.87
1076.142	-4.03
1076.563	-6.88
1076.983	2.52
1077.404	-13.33
1077.825	3.42
1078.246	-6.08
1078.666	-1.23
1079.087	-4.98
1079.507	-3.78
1079.928	-0.98
1080.348	-4.33
1080.769	-1.78
1081.189	-2.63
1081.61	-8.53
1082.03	-1.18
1082.451	0.67
1082.871	-7.23
1083.291	-7.53
1083.711	-1.48
1084.132	-4.13
1084.552	-4.38
1084.972	-7.38
1085.392	-5.68
1085.813	-2.08
1086.233	-4.68
1086.653	1.92
1087.073	-4.93
1087.493	-1.03
1087.913	-2.53
1088.333	-1.18
1088.753	2.27
1089.173	3.57
1089.593	1.37
1090.013	-5.23
1090.433	-5.93
1090.852	0.87
1091.272	-5.88
1091.692	-3.58
1092.112	-3.28
1092.531	-5.48
1092.951	0.87
1093.371	-0.93
1093.79	-4.28
1094.21	-2.63
1094.63	-2.23
1095.049	-3.48
1095.469	-10.03
1095.888	-2.88
1096.308	0.77
1096.727	-4.03
1097.146	-3.98
1097.566	-1.53
1097.985	-1.83
1098.405	-0.48
1098.824	-1.83
1099.243	-3.58
1099.662	-3.28
1100.082	0.52
1100.501	-2.33
1100.92	1.62
1101.339	2.62
1101.758	-0.48
