Data from MSPlasma+Separation6_Subt14_10-14-47-413.txt Node
Date: Fri Jul 21 10:14:47 EDT 2017
User: Ender
Spectrometer: HR+D1039
Trigger mode: 0
Integration Time (sec): 6.430000E-3
Scans to average: 20
Electric dark correction enabled: true
Nonlinearity correction enabled: false
Boxcar width: 0
XAxis mode: Wavelengths
Number of Pixels in Spectrum: 2048
>>>>>Begin Spectral Data<<<<<
187.836	1.29
188.309	1.29
188.782	1.29
189.255	-0.11
189.728	4.59
190.201	-0.86
190.674	2.24
191.147	-2.01
191.619	1.04
192.092	-3.31
192.565	-5.51
193.038	2.34
193.511	1.79
193.984	0.69
194.456	-3.36
194.929	0.44
195.402	-1.11
195.874	1.79
196.347	4.94
196.82	1.94
197.292	-0.61
197.765	-1.56
198.237	1.89
198.71	-6.71
199.182	2.99
199.655	2.34
200.127	6.89
200.6	-1.26
201.072	1.19
201.544	-1.26
202.017	3.79
202.489	0.94
202.961	-2.46
203.433	-3.06
203.906	-0.11
204.378	4.59
204.85	0.99
205.322	1.79
205.794	3.54
206.266	0.09
206.739	4.69
207.211	4.14
207.683	2.34
208.155	4.09
208.627	-0.61
209.099	6.34
209.57	3.19
210.042	7.19
210.514	4.94
210.986	14.99
211.458	24.59
211.93	14.99
212.402	6.04
212.873	-0.56
213.345	1.04
213.817	1.99
214.288	0.39
214.76	2.79
215.232	1.34
215.703	5.79
216.175	1.94
216.646	5.04
217.118	5.84
217.589	1.34
218.061	7.09
218.532	4.54
219.004	5.19
219.475	13.89
219.946	31.64
220.418	41.04
220.889	28.19
221.36	11.74
221.832	10.14
222.303	12.29
222.774	7.94
223.245	4.54
223.717	6.04
224.188	6.29
224.659	4.94
225.13	4.19
225.601	4.24
226.072	8.44
226.543	12.39
227.014	7.64
227.485	10.89
227.956	16.49
228.427	18.19
228.898	12.54
229.369	14.04
229.839	12.49
230.31	14.54
230.781	14.59
231.252	22.64
231.722	26.79
232.193	39.64
232.664	46.09
233.135	65.34
233.605	73.39
234.076	54.94
234.546	43.54
235.017	49.59
235.487	49.24
235.958	44.89
236.428	72.34
236.899	117.94
237.369	127.04
237.84	95.44
238.31	120.14
238.78	126.09
239.251	125.34
239.721	121.99
240.191	93.39
240.662	57.39
241.132	40.59
241.602	54.54
242.072	78.54
242.542	99.29
243.013	66.84
243.483	57.99
243.953	47.19
244.423	45.34
244.893	58.94
245.363	66.79
245.833	65.39
246.303	72.19
246.773	86.04
247.243	96.74
247.712	104.04
248.182	120.24
248.652	118.44
249.122	183.34
249.592	345.34
250.061	519.79
250.531	835.34
251.001	631.84
251.471	528.84
251.94	399.89
252.41	218.14
252.879	148.99
253.349	112.29
253.818	97.74
254.288	76.54
254.757	84.69
255.227	109.09
255.696	92.09
256.166	73.24
256.635	84.69
257.105	102.79
257.574	138.39
258.043	142.29
258.513	251.79
258.982	324.39
259.451	219.29
259.92	226.19
260.389	208.64
260.859	149.69
261.328	176.64
261.797	264.29
262.266	227.09
262.735	104.39
263.204	60.69
263.673	57.64
264.142	47.29
264.611	50.59
265.08	58.89
265.549	67.49
266.018	60.24
266.487	58.39
266.955	55.79
267.424	61.79
267.893	65.74
268.362	64.39
268.83	56.99
269.299	60.04
269.768	74.89
270.236	91.84
270.705	98.39
271.174	94.54
271.642	108.89
272.111	120.34
272.579	192.14
273.048	303.79
273.516	394.04
273.985	394.19
274.453	300.84
274.922	182.84
275.39	115.29
275.858	108.14
276.327	82.89
276.795	87.19
277.263	99.39
277.731	135.14
278.2	283.04
278.668	373.44
279.136	286.09
279.604	178.04
280.072	108.09
280.54	86.99
281.008	88.74
281.477	87.74
281.945	93.19
282.413	95.64
282.881	99.94
283.348	99.89
283.816	103.84
284.284	108.24
284.752	102.89
285.22	109.59
285.688	118.89
286.156	195.49
286.623	536.44
287.091	1060.89
287.559	558.94
288.026	211.39
288.494	132.04
288.962	104.94
289.429	100.69
289.897	100.84
290.364	90.44
290.832	99.09
291.3	96.49
291.767	101.24
292.234	104.24
292.702	107.29
293.169	113.39
293.637	120.24
294.104	117.84
294.571	113.89
295.039	107.09
295.506	106.94
295.973	117.79
296.44	110.49
296.908	124.24
297.375	139.44
297.842	138.34
298.309	114.79
298.776	115.64
299.243	125.54
299.71	111.74
300.177	117.79
300.644	131.54
301.111	148.39
301.578	133.84
302.045	121.59
302.512	122.09
302.979	118.89
303.446	131.04
303.913	131.34
304.379	141.24
304.846	155.39
305.313	171.04
305.78	202.74
306.246	246.49
306.713	263.29
307.18	230.19
307.646	254.19
308.113	219.14
308.579	177.09
309.046	173.59
309.512	178.79
309.979	161.64
310.445	155.29
310.912	157.74
311.378	154.29
311.845	155.39
312.311	148.44
312.777	150.14
313.244	156.99
313.71	161.94
314.176	180.89
314.642	206.79
315.109	241.59
315.575	224.24
316.041	206.64
316.507	198.89
316.973	220.29
317.439	208.44
317.905	229.04
318.371	232.14
318.837	214.74
319.303	225.24
319.769	205.34
320.235	233.29
320.701	261.84
321.167	280.44
321.633	341.44
322.099	476.39
322.564	634.04
323.03	491.54
323.496	346.89
323.962	326.69
324.427	309.34
324.893	267.29
325.359	263.09
325.824	228.14
326.29	241.89
326.755	242.74
327.221	236.19
327.686	247.04
328.152	228.54
328.617	223.14
329.083	217.79
329.548	229.99
330.014	241.24
330.479	261.39
330.944	302.24
331.41	347.79
331.875	340.34
332.34	341.79
332.805	401.29
333.271	501.69
333.736	665.19
334.201	605.34
334.666	449.49
335.131	510.89
335.596	402.19
336.061	427.34
336.526	438.69
336.991	376.94
337.456	406.49
337.921	329.79
338.386	269.64
338.851	247.39
339.316	225.19
339.781	225.79
340.246	229.64
340.711	218.04
341.175	226.99
341.64	234.29
342.105	243.54
342.569	256.14
343.034	273.09
343.499	286.34
343.963	268.64
344.428	265.99
344.893	271.29
345.357	281.54
345.822	269.34
346.286	281.29
346.751	291.94
347.215	282.94
347.679	294.44
348.144	313.04
348.608	308.49
349.073	315.24
349.537	354.34
350.001	354.19
350.465	325.04
350.93	318.99
351.394	325.09
351.858	319.04
352.322	328.54
352.786	329.99
353.25	324.99
353.715	324.94
354.179	343.29
354.643	363.24
355.107	371.54
355.571	390.89
356.035	402.29
356.498	385.89
356.962	413.44
357.426	411.19
357.89	368.24
358.354	346.14
358.818	343.44
359.281	352.84
359.745	369.99
360.209	364.64
360.673	364.19
361.136	375.64
361.6	365.04
362.064	397.14
362.527	399.74
362.991	397.94
363.454	397.14
363.918	403.89
364.381	398.19
364.845	386.29
365.308	378.34
365.772	382.24
366.235	384.74
366.698	410.79
367.162	495.99
367.625	550.79
368.088	446.94
368.552	412.49
369.015	419.39
369.478	445.49
369.941	452.19
370.404	460.39
370.867	488.19
371.331	496.19
371.794	503.64
372.257	566.04
372.72	598.99
373.183	565.44
373.646	577.39
374.109	565.44
374.572	652.49
375.035	771.64
375.497	589.94
375.96	475.29
376.423	446.94
376.886	451.09
377.349	462.24
377.811	467.49
378.274	478.14
378.737	479.04
379.199	494.69
379.662	505.74
380.125	538.69
380.587	602.29
381.05	640.34
381.512	634.59
381.975	617.19
382.437	603.74
382.9	606.74
383.362	612.49
383.825	643.99
384.287	816.04
384.75	913.84
385.212	808.09
385.674	661.14
386.136	597.74
386.599	593.34
387.061	627.44
387.523	651.19
387.985	643.99
388.447	674.54
388.91	756.54
389.372	924.09
389.834	862.79
390.296	716.89
390.758	717.74
391.22	751.89
391.682	922.64
392.144	1442.69
392.606	1357.44
393.068	784.69
393.529	709.34
393.991	688.44
394.453	673.94
394.915	713.29
395.377	876.79
395.838	1086.04
396.3	761.69
396.762	580.29
397.224	552.84
397.685	544.69
398.147	549.24
398.608	557.24
399.07	560.19
399.531	553.54
399.993	561.64
400.454	568.04
400.916	570.49
401.377	584.19
401.839	594.14
402.3	588.09
402.762	618.34
403.223	685.84
403.684	704.39
404.145	643.89
404.607	616.24
405.068	623.89
405.529	638.79
405.99	644.64
406.451	657.79
406.913	643.94
407.374	646.79
407.835	660.99
408.296	676.04
408.757	681.39
409.218	703.84
409.679	710.99
410.14	717.69
410.601	750.74
411.062	780.09
411.522	905.59
411.983	990.59
412.444	851.09
412.905	742.14
413.366	742.39
413.826	761.39
414.287	854.34
414.748	1012.54
415.208	1042.29
415.669	867.64
416.13	794.24
416.59	778.04
417.051	797.79
417.511	839.29
417.972	898.19
418.432	965.29
418.893	1075.44
419.353	1016.54
419.814	783.39
420.274	708.69
420.734	706.34
421.195	751.24
421.655	780.34
422.115	760.39
422.576	729.34
423.036	740.99
423.496	762.64
423.956	795.39
424.416	850.54
424.876	964.79
425.336	966.34
425.797	958.04
426.257	957.59
426.717	898.54
427.177	837.49
427.637	870.94
428.097	907.44
428.556	955.09
429.016	1043.84
429.476	1043.39
429.936	1002.14
430.396	972.19
430.856	987.59
431.315	1018.54
431.775	1074.34
432.235	1140.14
432.694	1164.14
433.154	1096.69
433.614	1058.59
434.073	1025.94
434.533	934.69
434.993	904.19
435.452	913.44
435.912	894.89
436.371	891.99
436.83	889.99
437.29	904.94
437.749	856.89
438.209	842.89
438.668	852.69
439.127	845.74
439.587	837.89
440.046	801.19
440.505	820.39
440.964	817.74
441.424	847.99
441.883	860.39
442.342	818.29
442.801	785.04
443.26	803.49
443.719	801.04
444.178	791.19
444.637	800.44
445.096	802.84
445.555	815.84
446.014	814.84
446.473	789.44
446.932	791.39
447.391	808.24
447.849	826.74
448.308	815.89
448.767	832.54
449.226	850.89
449.685	858.39
450.143	893.84
450.602	904.64
451.061	861.49
451.519	871.94
451.978	895.29
452.436	924.09
452.895	881.24
453.353	850.79
453.812	862.69
454.27	861.09
454.729	825.84
455.187	834.09
455.646	838.09
456.104	852.79
456.562	838.84
457.021	835.39
457.479	800.79
457.937	824.39
458.395	846.34
458.854	837.49
459.312	821.24
459.77	838.49
460.228	841.69
460.686	859.69
461.144	862.19
461.602	847.74
462.06	853.44
462.518	867.69
462.976	867.19
463.434	881.79
463.892	891.94
464.35	902.24
464.808	918.69
465.266	932.04
465.724	943.14
466.181	940.49
466.639	933.74
467.097	975.69
467.555	1010.49
468.012	997.79
468.47	1011.89
468.928	1047.44
469.385	1075.49
469.843	1085.44
470.3	1077.84
470.758	1117.24
471.215	1133.69
471.673	1147.84
472.13	1183.24
472.588	1199.34
473.045	1201.09
473.503	1229.49
473.96	1277.84
474.417	1299.59
474.875	1354.34
475.332	1405.69
475.789	1433.99
476.246	1473.74
476.704	1529.79
477.161	1584.44
477.618	1634.39
478.075	1719.19
478.532	1862.14
478.989	2008.24
479.446	2217.84
479.903	2356.19
480.36	2591.09
480.817	2768.74
481.274	2969.74
481.731	3245.84
482.188	3518.34
482.645	3802.74
483.102	4050.14
483.558	4334.99
484.015	4572.09
484.472	4582.39
484.929	4434.84
485.385	4230.34
485.842	4124.19
486.299	3908.94
486.755	3514.89
487.212	3131.99
487.668	2819.39
488.125	2608.34
488.582	2399.94
489.038	2295.79
489.494	2216.74
489.951	2145.34
490.407	2089.44
490.864	2062.54
491.32	2018.69
491.776	1975.74
492.233	1980.14
492.689	1946.24
493.145	1924.89
493.602	1899.19
494.058	1947.09
494.514	1966.84
494.97	1975.04
495.426	2009.54
495.882	2008.29
496.338	2023.34
496.794	2089.69
497.251	2109.29
497.707	2110.44
498.163	2118.84
498.618	2125.44
499.074	2127.44
499.53	2173.54
499.986	2194.94
500.442	2233.74
500.898	2227.04
501.354	2257.79
501.809	2280.74
502.265	2309.69
502.721	2436.49
503.177	2494.09
503.632	2362.34
504.088	2391.29
504.543	2618.44
504.999	2448.69
505.455	2155.24
505.91	2039.69
506.366	2031.84
506.821	2027.44
507.277	2008.04
507.732	1998.44
508.187	1991.24
508.643	2030.29
509.098	2020.44
509.553	2048.04
510.009	2066.49
510.464	2111.29
510.919	2135.14
511.375	2165.19
511.83	2175.69
512.285	2227.04
512.74	2273.54
513.195	2311.44
513.65	2354.44
514.105	2379.04
514.56	2389.94
515.015	2446.39
515.47	2475.04
515.925	2472.44
516.38	2445.89
516.835	2436.74
517.29	2439.69
517.745	2456.84
518.2	2409.94
518.655	2339.34
519.109	2303.39
519.564	2277.74
520.019	2266.84
520.474	2234.94
520.928	2224.24
521.383	2216.69
521.838	2209.49
522.292	2192.09
522.747	2149.29
523.201	2158.24
523.656	2136.84
524.11	2104.64
524.565	2116.64
525.019	2119.19
525.474	2134.54
525.928	2130.04
526.382	2100.39
526.837	2081.64
527.291	2095.04
527.745	2084.09
528.2	2085.19
528.654	2064.14
529.108	2074.74
529.562	2068.14
530.016	2067.39
530.47	2082.74
530.925	2094.54
531.379	2091.79
531.833	2111.59
532.287	2089.14
532.741	2088.69
533.195	2091.99
533.649	2083.74
534.103	2085.29
534.556	2075.84
535.01	2096.24
535.464	2093.89
535.918	2096.54
536.372	2109.29
536.826	2088.29
537.279	2082.09
537.733	2087.24
538.187	2097.19
538.64	2078.94
539.094	2116.04
539.548	2142.84
540.001	2135.04
540.455	2148.49
540.908	2158.09
541.362	2176.19
541.815	2187.79
542.269	2229.64
542.722	2220.69
543.175	2257.74
543.629	2270.99
544.082	2279.89
544.536	2306.44
544.989	2303.59
545.442	2314.69
545.895	2322.39
546.349	2327.34
546.802	2335.34
547.255	2335.09
547.708	2336.29
548.161	2366.94
548.614	2359.99
549.067	2372.74
549.52	2364.29
549.973	2325.54
550.426	2332.94
550.879	2308.09
551.332	2285.29
551.785	2311.29
552.238	2338.19
552.691	2339.09
553.144	2374.94
553.596	2411.94
554.049	2434.44
554.502	2490.34
554.955	2524.54
555.407	2564.29
555.86	2541.84
556.313	2507.94
556.765	2490.99
557.218	2461.09
557.67	2460.59
558.123	2423.69
558.576	2412.19
559.028	2405.94
559.48	2433.49
559.933	2420.29
560.385	2359.99
560.838	2262.54
561.29	2202.19
561.742	2192.59
562.195	2145.94
562.647	2142.29
563.099	2125.89
563.551	2121.59
564.004	2139.04
564.456	2124.99
564.908	2097.29
565.36	2048.19
565.812	2010.79
566.264	1993.24
566.716	1954.44
567.168	1932.49
567.62	1939.04
568.072	1919.99
568.524	1894.89
568.976	1890.74
569.428	1864.59
569.88	1855.94
570.332	1879.39
570.784	1866.79
571.235	1858.74
571.687	1871.69
572.139	1883.59
572.59	1894.94
573.042	1913.69
573.494	1901.64
573.945	1882.79
574.397	1842.64
574.849	1839.14
575.3	1846.74
575.752	1821.69
576.203	1805.94
576.655	1821.29
577.106	1794.39
577.557	1774.79
578.009	1762.24
578.46	1776.44
578.912	1762.49
579.363	1771.89
579.814	1763.29
580.265	1764.84
580.717	1767.89
581.168	1770.94
581.619	1767.99
582.07	1804.44
582.521	1791.04
582.972	1783.64
583.423	1816.74
583.875	1862.34
584.326	1975.54
584.777	2181.89
585.227	2424.54
585.678	2619.74
586.129	2675.99
586.58	2728.04
587.031	2761.89
587.482	2948.64
587.933	3556.89
588.384	3208.14
588.834	2560.49
589.285	2090.04
589.736	2026.14
590.186	2025.19
590.637	2012.74
591.088	1950.44
591.538	1928.39
591.989	1914.89
592.439	1900.59
592.89	1897.99
593.34	1890.34
593.791	1921.74
594.241	1921.09
594.692	1953.99
595.142	1923.14
595.593	1896.19
596.043	1899.89
596.493	1930.29
596.943	1966.94
597.394	1945.59
597.844	1907.59
598.294	1942.19
598.744	1997.69
599.195	2090.34
599.645	2214.29
600.095	2314.34
600.545	2427.84
600.995	2539.94
601.445	2629.34
601.895	2761.29
602.345	2839.79
602.795	2802.54
603.245	2691.59
603.695	2518.64
604.145	2391.14
604.594	2258.84
605.044	2145.59
605.494	2014.19
605.944	1924.94
606.393	1879.84
606.843	1851.59
607.293	1859.44
607.743	1856.09
608.192	1854.64
608.642	1871.64
609.091	1886.79
609.541	1877.79
609.99	1863.49
610.44	1822.79
610.889	1807.09
611.339	1789.44
611.788	1778.49
612.238	1801.94
612.687	1827.84
613.136	1847.49
613.586	1876.74
614.035	1878.79
614.484	1903.04
614.933	1918.34
615.383	1871.29
615.832	1805.39
616.281	1764.84
616.73	1713.89
617.179	1667.09
617.628	1624.74
618.077	1598.99
618.526	1568.09
618.975	1559.89
619.424	1535.34
619.873	1538.39
620.322	1528.74
620.771	1523.34
621.22	1505.74
621.669	1483.44
622.118	1476.24
622.567	1449.14
623.015	1427.39
623.464	1424.89
623.913	1405.64
624.361	1416.14
624.81	1406.09
625.259	1398.09
625.707	1374.74
626.156	1390.29
626.604	1408.59
627.053	1404.79
627.501	1402.09
627.95	1415.14
628.398	1429.24
628.847	1413.39
629.295	1425.09
629.744	1438.59
630.192	1477.04
630.64	1591.49
631.089	1756.24
631.537	1843.34
631.985	1854.09
632.433	1943.24
632.881	1923.79
633.33	2332.54
633.778	2553.44
634.226	1780.79
634.674	1632.74
635.122	1626.04
635.57	1647.29
636.018	1933.09
636.466	1559.49
636.914	1374.39
637.362	1378.89
637.81	1383.49
638.258	1434.29
638.705	1436.49
639.153	1500.54
639.601	1489.49
640.049	1517.49
640.497	1571.89
640.944	1601.74
641.392	1531.49
641.84	1458.04
642.287	1392.69
642.735	1364.54
643.182	1355.44
643.63	1363.14
644.078	1367.49
644.525	1383.99
644.973	1425.69
645.42	1437.34
645.867	1461.14
646.315	1494.14
646.762	1557.69
647.21	1589.74
647.657	1677.79
648.104	1745.54
648.551	1805.74
648.999	1972.94
649.446	2172.29
649.893	2442.44
650.34	2877.09
650.787	3593.24
651.234	4704.14
651.682	6552.79
652.129	9421.59
652.576	13456.89
653.023	15534.79
653.47	15537.99
653.917	15538.04
654.363	15537.94
654.81	15534.94
655.257	15535.59
655.704	15539.39
656.151	10332.74
656.598	6679.94
657.044	4734.99
657.491	3682.09
657.938	2949.19
658.385	2483.34
658.831	2178.79
659.278	1937.24
659.724	1774.29
660.171	1653.54
660.618	1523.94
661.064	1434.79
661.511	1387.59
661.957	1337.19
662.404	1309.54
662.85	1287.99
663.296	1278.44
663.743	1242.69
664.189	1222.24
664.635	1225.04
665.082	1197.89
665.528	1188.24
665.974	1159.84
666.42	1145.99
666.867	1170.54
667.313	1181.74
667.759	1251.34
668.205	1235.99
668.651	1254.39
669.097	1216.99
669.543	1333.39
669.989	1247.79
670.435	1076.39
670.881	1061.19
671.327	1101.04
671.773	1181.09
672.219	1269.84
672.665	1355.44
673.11	1390.59
673.556	1412.99
674.002	1436.89
674.448	1467.39
674.893	1244.79
675.339	1081.29
675.785	998.89
676.23	960.59
676.676	917.19
677.122	901.79
677.567	875.89
678.013	852.69
678.458	841.99
678.904	835.79
679.349	823.59
679.794	829.69
680.24	819.44
680.685	818.24
681.131	818.64
681.576	822.74
682.021	831.89
682.466	832.14
682.912	845.34
683.357	885.59
683.802	965.14
684.247	1051.74
684.692	1108.79
685.137	1149.14
685.583	1177.49
686.028	1244.24
686.473	1173.24
686.918	1006.24
687.363	927.19
687.807	885.24
688.252	843.94
688.697	818.54
689.142	783.39
689.587	793.49
690.032	801.84
690.477	834.39
690.921	879.44
691.366	920.54
691.811	962.44
692.255	1042.84
692.7	1269.79
693.145	1820.24
693.589	2777.04
694.034	3282.19
694.478	3506.09
694.923	3202.49
695.367	4583.64
695.812	2769.84
696.256	1169.79
696.701	865.09
697.145	806.34
697.59	776.94
698.034	763.99
698.478	771.64
698.922	773.14
699.367	789.19
699.811	830.74
700.255	896.74
700.699	978.59
701.143	1056.99
701.588	1121.89
702.032	1159.54
702.476	1193.84
702.92	1270.69
703.364	1658.49
703.808	2540.94
704.252	3165.09
704.696	3333.49
705.14	3149.19
705.584	4332.29
706.027	2404.84
706.471	1206.14
706.915	902.09
707.359	805.74
707.803	758.99
708.246	733.44
708.69	727.59
709.134	727.79
709.577	720.84
710.021	730.64
710.465	725.69
710.908	717.99
711.352	749.59
711.795	832.79
712.239	881.59
712.682	920.69
713.126	911.24
713.569	1020.14
714.012	839.34
714.456	740.39
714.899	691.54
715.342	651.49
715.786	624.14
716.229	598.39
716.672	588.84
717.115	594.59
717.558	601.14
718.002	626.54
718.445	641.54
718.888	675.49
719.331	686.04
719.774	694.39
720.217	689.74
720.66	645.79
721.103	614.34
721.546	579.79
721.989	566.54
722.432	565.59
722.874	564.14
723.317	568.04
723.76	616.79
724.203	752.14
724.645	1011.44
725.088	1172.99
725.531	1150.94
725.974	1262.74
726.416	1130.69
726.859	709.59
727.301	583.84
727.744	556.79
728.187	550.84
728.629	565.54
729.071	596.84
729.514	619.54
729.956	640.59
730.399	651.44
730.841	648.44
731.283	636.64
731.726	617.74
732.168	626.74
732.61	668.54
733.053	710.99
733.495	787.84
733.937	875.79
734.379	1028.94
734.821	1308.54
735.263	2085.39
735.705	3746.84
736.148	5487.39
736.59	5462.49
737.032	5940.64
737.474	4908.04
737.916	1880.34
738.357	987.99
738.799	766.84
739.241	712.99
739.683	716.04
740.125	727.09
740.567	719.14
741.008	763.49
741.45	784.54
741.892	820.14
742.334	811.64
742.775	810.69
743.217	767.19
743.658	670.69
744.1	675.74
744.542	756.59
744.983	781.99
745.425	817.04
745.866	807.59
746.307	720.99
746.749	781.24
747.19	1124.74
747.632	2206.49
748.073	4100.79
748.514	5640.79
748.956	7489.94
749.397	8765.04
749.838	6021.29
750.279	5760.04
750.72	2953.39
751.162	1246.49
751.603	720.39
752.044	582.19
752.485	509.89
752.926	478.79
753.367	462.74
753.808	447.29
754.249	445.19
754.69	444.34
755.131	434.19
755.572	431.54
756.013	433.54
756.453	436.54
756.894	447.79
757.335	445.54
757.776	450.34
758.216	469.74
758.657	492.64
759.098	551.19
759.538	662.29
759.979	949.64
760.42	1940.39
760.86	4980.24
761.301	10231.04
761.741	11964.14
762.182	13720.54
762.622	8897.54
763.063	3200.59
763.503	1409.79
763.943	1099.09
764.384	1197.84
764.824	1129.89
765.264	1139.49
765.705	795.44
766.145	567.44
766.585	492.84
767.025	527.49
767.465	694.59
767.906	856.44
768.346	885.14
768.786	928.94
769.226	924.14
769.666	1581.99
770.106	3448.14
770.546	4862.54
770.986	5488.19
771.426	4119.44
771.866	1720.19
772.306	786.29
772.745	496.49
773.185	430.84
773.625	437.69
774.065	518.89
774.505	856.54
774.944	1725.64
775.384	2604.44
775.824	2981.84
776.263	2422.09
776.703	1183.79
777.142	586.34
777.582	412.19
778.021	357.74
778.461	344.94
778.9	332.69
779.34	304.54
779.779	283.94
780.219	282.69
780.658	276.49
781.097	271.99
781.537	269.99
781.976	263.24
782.415	258.14
782.855	260.39
783.294	260.59
783.733	256.64
784.172	266.29
784.611	262.44
785.05	265.04
785.489	267.94
785.928	276.54
786.367	282.14
786.806	300.54
787.245	326.54
787.684	333.19
788.123	335.04
788.562	319.89
789.001	304.14
789.44	296.49
789.879	293.74
790.317	302.74
790.756	317.04
791.195	361.99
791.634	491.99
792.072	890.04
792.511	2186.94
792.95	4026.54
793.388	4856.49
793.827	3131.74
794.265	1444.74
794.704	684.34
795.142	420.44
795.581	348.54
796.019	316.44
796.458	315.84
796.896	321.94
797.334	373.79
797.773	495.04
798.211	952.39
798.649	1995.64
799.087	3351.99
799.526	4711.49
799.964	4863.49
800.402	3335.34
800.84	1509.34
801.278	736.79
801.716	449.89
802.154	362.29
802.592	344.14
803.03	341.39
803.468	354.04
803.906	353.84
804.344	341.24
804.782	334.24
805.22	336.79
805.658	350.54
806.096	375.64
806.533	414.79
806.971	535.19
807.409	775.24
807.847	1556.59
808.284	3979.39
808.722	6979.29
809.16	9770.09
809.597	13193.14
810.035	15483.69
810.472	10622.19
810.91	4484.64
811.347	1992.89
811.785	936.89
812.222	593.09
812.66	455.29
813.097	389.24
813.535	339.64
813.972	307.74
814.409	284.74
814.846	265.44
815.284	253.64
815.721	259.79
816.158	287.19
816.595	360.34
817.032	450.44
817.47	418.34
817.907	326.24
818.344	286.54
818.781	271.89
819.218	313.49
819.655	446.49
820.092	578.64
820.529	536.59
820.966	443.29
821.403	328.14
821.839	290.94
822.276	302.14
822.713	344.54
823.15	325.94
823.587	360.19
824.023	655.69
824.46	1641.94
824.897	2851.59
825.333	2192.59
825.77	1006.59
826.206	526.84
826.643	305.09
827.08	229.09
827.516	203.59
827.953	194.19
828.389	178.04
828.825	173.44
829.262	166.54
829.698	161.14
830.135	157.69
830.571	153.54
831.007	159.84
831.443	161.59
831.88	160.39
832.316	165.24
832.752	162.24
833.188	164.74
833.624	158.69
834.06	168.84
834.497	166.69
834.933	169.24
835.369	180.64
835.805	196.39
836.241	202.69
836.677	220.69
837.112	259.34
837.548	322.59
837.984	477.64
838.42	1029.24
838.856	2875.89
839.292	5673.64
839.727	4165.84
840.163	2812.89
840.599	4284.64
841.034	6588.59
841.47	3241.84
841.906	1583.74
842.341	902.79
842.777	796.69
843.212	944.69
843.648	551.14
844.083	343.24
844.519	238.39
844.954	189.89
845.39	161.69
845.825	153.24
846.261	147.94
846.696	144.14
847.131	135.99
847.566	138.94
848.002	140.54
848.437	152.09
848.872	154.79
849.307	195.09
849.742	361.64
850.177	935.94
850.613	1998.14
851.048	1425.49
851.483	651.84
851.918	363.84
852.353	211.99
852.788	174.44
853.223	143.44
853.657	126.79
854.092	116.34
854.527	112.19
854.962	116.34
855.397	124.44
855.832	110.79
856.266	102.04
856.701	103.09
857.136	105.14
857.57	124.34
858.005	137.94
858.44	127.24
858.874	124.14
859.309	127.24
859.743	126.09
860.178	121.64
860.612	130.39
861.047	160.49
861.481	216.34
861.915	152.64
862.35	119.69
862.784	102.54
863.218	96.89
863.653	103.69
864.087	119.29
864.521	164.39
864.955	275.94
865.39	468.14
865.824	331.94
866.258	391.04
866.692	558.59
867.126	406.04
867.56	228.29
867.994	146.69
868.428	132.34
868.862	153.04
869.296	149.19
869.73	172.64
870.164	149.49
870.598	135.84
871.031	103.84
871.465	96.39
871.899	80.59
872.333	68.59
872.766	70.19
873.2	76.39
873.634	70.49
874.067	78.99
874.501	81.04
874.935	82.64
875.368	78.19
875.802	70.94
876.235	63.19
876.669	65.74
877.102	58.59
877.535	64.39
877.969	61.19
878.402	63.99
878.836	55.69
879.269	58.64
879.702	58.04
880.135	63.19
880.569	73.44
881.002	62.24
881.435	60.49
881.868	58.14
882.301	51.69
882.734	52.19
883.167	61.04
883.601	54.09
884.034	53.14
884.467	46.64
884.899	51.19
885.332	47.49
885.765	50.69
886.198	47.74
886.631	48.49
887.064	52.94
887.497	46.29
887.929	49.29
888.362	46.09
888.795	47.84
889.228	51.79
889.66	48.94
890.093	46.14
890.526	42.84
890.958	43.79
891.391	46.94
891.823	41.69
892.256	45.79
892.688	48.44
893.121	41.54
893.553	45.09
893.985	43.89
894.418	41.24
894.85	49.14
895.282	39.84
895.715	42.89
896.147	34.84
896.579	39.94
897.011	49.79
897.444	46.89
897.876	39.14
898.308	38.89
898.74	44.44
899.172	41.64
899.604	45.44
900.036	48.04
900.468	38.89
900.9	42.74
901.332	52.29
901.764	50.79
902.196	47.29
902.628	54.89
903.06	75.09
903.491	76.64
903.923	66.34
904.355	67.14
904.787	69.24
905.218	58.89
905.65	59.69
906.082	53.34
906.513	54.09
906.945	49.39
907.376	54.54
907.808	54.79
908.239	62.59
908.671	68.14
909.102	65.64
909.534	102.09
909.965	184.94
910.397	460.64
910.828	1345.09
911.259	812.24
911.691	441.14
912.122	252.84
912.553	128.64
912.984	71.14
913.415	64.99
913.847	57.84
914.278	53.24
914.709	45.69
915.14	45.54
915.571	51.04
916.002	43.59
916.433	42.04
916.864	45.49
917.295	47.19
917.726	52.79
918.157	70.84
918.587	65.04
919.018	56.84
919.449	54.64
919.88	69.09
920.311	104.04
920.741	275.84
921.172	494.99
921.603	244.74
922.033	158.44
922.464	102.09
922.895	68.49
923.325	51.39
923.756	48.04
924.186	70.19
924.617	110.69
925.047	176.89
925.478	162.19
925.908	109.59
926.338	76.09
926.769	55.69
927.199	50.84
927.629	40.29
928.06	43.34
928.49	38.89
928.92	38.64
929.35	35.84
929.78	29.89
930.21	25.29
930.641	20.09
931.071	22.89
931.501	21.59
931.931	20.84
932.361	22.99
932.791	27.99
933.221	28.79
933.651	39.64
934.08	65.44
934.51	42.24
934.94	35.64
935.37	24.69
935.8	24.04
936.229	21.74
936.659	20.79
937.089	34.34
937.519	51.54
937.948	63.69
938.378	39.29
938.807	30.64
939.237	20.34
939.666	20.54
940.096	14.59
940.525	12.69
940.955	17.44
941.384	14.04
941.814	15.29
942.243	9.89
942.672	11.94
943.102	8.04
943.531	4.34
943.96	10.59
944.39	14.19
944.819	13.09
945.248	12.49
945.677	10.99
946.106	9.04
946.535	14.64
946.964	11.94
947.393	11.19
947.822	9.49
948.251	18.79
948.68	13.39
949.109	12.04
949.538	15.09
949.967	12.84
950.396	10.74
950.825	14.19
951.254	14.34
951.682	5.84
952.111	3.74
952.54	5.69
952.969	7.74
953.397	6.99
953.826	6.54
954.254	13.39
954.683	12.09
955.112	14.24
955.54	8.54
955.969	8.99
956.397	8.39
956.826	3.69
957.254	7.14
957.682	4.54
958.111	9.74
958.539	6.99
958.967	7.64
959.396	8.54
959.824	9.19
960.252	6.64
960.68	7.84
961.109	10.09
961.537	10.04
961.965	5.04
962.393	6.69
962.821	12.59
963.249	10.24
963.677	15.04
964.105	84.49
964.533	144.69
964.961	73.29
965.389	40.29
965.817	25.29
966.245	10.94
966.672	10.59
967.1	9.79
967.528	2.44
967.956	4.44
968.383	9.04
968.811	4.09
969.239	4.14
969.666	5.69
970.094	4.14
970.522	3.44
970.949	5.54
971.377	1.39
971.804	4.14
972.232	3.39
972.659	4.94
973.087	7.09
973.514	6.64
973.941	-1.41
974.369	5.24
974.796	3.74
975.223	4.69
975.651	8.84
976.078	8.79
976.505	14.14
976.932	33.69
977.359	43.14
977.786	26.74
978.214	17.39
978.641	9.64
979.068	6.29
979.495	0.59
979.922	4.94
980.349	6.54
980.776	0.54
981.202	2.69
981.629	11.54
982.056	8.24
982.483	-1.41
982.91	7.89
983.337	1.39
983.763	8.19
984.19	6.09
984.617	-0.21
985.043	2.94
985.47	8.19
985.897	8.79
986.323	7.94
986.75	0.84
987.176	1.64
987.603	7.54
988.029	6.69
988.456	6.84
988.882	3.44
989.308	-0.96
989.735	5.09
990.161	2.69
990.587	3.09
991.014	5.44
991.44	5.74
991.866	3.84
992.292	3.64
992.719	5.84
993.145	7.14
993.571	0.94
993.997	5.39
994.423	2.29
994.849	3.74
995.275	5.94
995.701	5.19
996.127	0.89
996.553	1.04
996.979	3.04
997.405	8.09
997.83	5.14
998.256	5.99
998.682	3.64
999.108	3.69
999.534	-1.96
999.959	0.24
1000.385	7.79
1000.811	-0.16
1001.236	0.64
1001.662	1.14
1002.087	6.79
1002.513	6.24
1002.938	1.54
1003.364	4.64
1003.789	2.24
1004.215	6.74
1004.64	5.49
1005.066	6.54
1005.491	6.14
1005.916	-0.31
1006.342	3.94
1006.767	-0.31
1007.192	8.34
1007.617	2.79
1008.042	4.89
1008.468	6.64
1008.893	6.84
1009.318	13.54
1009.743	9.34
1010.168	20.69
1010.593	18.49
1011.018	16.74
1011.443	6.94
1011.868	10.54
1012.293	6.54
1012.718	1.14
1013.143	3.69
1013.567	5.04
1013.992	3.29
1014.417	3.14
1014.842	1.49
1015.267	1.54
1015.691	7.69
1016.116	0.24
1016.541	4.89
1016.965	1.69
1017.39	2.49
1017.814	-1.31
1018.239	-2.16
1018.663	-1.21
1019.088	0.44
1019.512	4.74
1019.937	-0.81
1020.361	-0.06
1020.785	1.69
1021.21	-2.66
1021.634	1.99
1022.058	0.89
1022.483	-2.86
1022.907	-1.06
1023.331	0.69
1023.755	-0.31
1024.179	0.34
1024.604	2.69
1025.028	-0.96
1025.452	6.04
1025.876	2.29
1026.3	0.04
1026.724	-4.86
1027.148	-0.86
1027.572	1.74
1027.996	3.69
1028.42	5.69
1028.843	-0.91
1029.267	4.64
1029.691	3.24
1030.115	0.59
1030.539	-2.06
1030.962	-1.16
1031.386	2.59
1031.81	0.44
1032.233	-0.71
1032.657	-6.46
1033.08	1.54
1033.504	-4.16
1033.927	-3.01
1034.351	1.29
1034.774	-1.31
1035.198	-2.81
1035.621	2.64
1036.045	0.29
1036.468	7.54
1036.891	-1.51
1037.315	3.69
1037.738	-0.61
1038.161	1.59
1038.584	-0.96
1039.008	-5.16
1039.431	-2.01
1039.854	-1.01
1040.277	-0.76
1040.7	0.14
1041.123	-0.91
1041.546	-0.46
1041.969	4.59
1042.392	4.09
1042.815	-4.91
1043.238	-1.11
1043.661	0.29
1044.084	-1.36
1044.507	-1.21
1044.93	-3.06
1045.352	4.29
1045.775	1.49
1046.198	-1.66
1046.621	4.74
1047.043	0.64
1047.466	3.09
1047.889	-3.86
1048.311	5.49
1048.734	0.49
1049.156	-6.11
1049.579	0.24
1050.001	-3.11
1050.424	-2.31
1050.846	-6.71
1051.269	-1.91
1051.691	-4.26
1052.113	3.29
1052.536	-1.71
1052.958	-9.21
1053.38	-1.06
1053.802	0.44
1054.225	1.49
1054.647	1.44
1055.069	1.34
1055.491	1.59
1055.913	2.74
1056.335	-6.66
1056.757	-4.86
1057.179	-2.91
1057.601	-0.71
1058.023	2.29
1058.445	-5.81
1058.867	1.94
1059.289	3.64
1059.711	0.89
1060.133	0.99
1060.555	1.29
1060.976	1.74
1061.398	-1.26
1061.82	5.14
1062.241	-1.51
1062.663	1.14
1063.085	-7.81
1063.506	-9.56
1063.928	-2.01
1064.35	0.09
1064.771	-2.61
1065.193	-0.11
1065.614	-1.86
1066.035	1.49
1066.457	3.24
1066.878	-1.76
1067.3	-0.41
1067.721	-0.16
1068.142	-0.11
1068.564	1.74
1068.985	-0.51
1069.406	-2.66
1069.827	0.54
1070.248	-2.51
1070.67	-4.01
1071.091	-2.46
1071.512	-1.41
1071.933	0.84
1072.354	-6.26
1072.775	0.09
1073.196	4.04
1073.617	-3.26
1074.038	-1.41
1074.459	-1.21
1074.88	-1.06
1075.3	-0.66
1075.721	1.84
1076.142	-1.96
1076.563	-4.61
1076.983	3.24
1077.404	-5.76
1077.825	-1.06
1078.246	-5.21
1078.666	-0.91
1079.087	-2.46
1079.507	-1.81
1079.928	0.89
1080.348	-0.36
1080.769	2.14
1081.189	-8.21
1081.61	-7.06
1082.03	3.29
1082.451	-1.71
1082.871	-4.91
1083.291	-1.21
1083.711	-0.46
1084.132	-2.11
1084.552	-4.71
1084.972	-5.61
1085.392	-3.16
1085.813	-5.01
1086.233	-6.26
1086.653	-1.11
1087.073	-4.61
1087.493	-1.61
1087.913	-7.26
1088.333	3.39
1088.753	-4.11
1089.173	-1.11
1089.593	-0.06
1090.013	-3.21
1090.433	-4.51
1090.852	2.49
1091.272	-6.96
1091.692	0.94
1092.112	-0.41
1092.531	-2.71
1092.951	0.74
1093.371	-2.76
1093.79	-2.01
1094.21	-2.66
1094.63	-0.21
1095.049	-0.26
1095.469	-11.26
1095.888	-2.81
1096.308	-2.36
1096.727	-6.26
1097.146	-6.26
1097.566	-1.56
1097.985	-6.51
1098.405	-1.66
1098.824	5.89
1099.243	-6.31
1099.662	-0.46
1100.082	-2.21
1100.501	-2.86
1100.92	3.59
1101.339	-1.51
1101.758	0.64
