Data from MSPlasma+Separation6_Subt14_10-15-52-030.txt Node
Date: Fri Jul 21 10:15:52 EDT 2017
User: Ender
Spectrometer: HR+D1039
Trigger mode: 0
Integration Time (sec): 2.510000E-3
Scans to average: 20
Electric dark correction enabled: true
Nonlinearity correction enabled: false
Boxcar width: 0
XAxis mode: Wavelengths
Number of Pixels in Spectrum: 2048
>>>>>Begin Spectral Data<<<<<
187.836	2.78
188.309	2.78
188.782	2.78
189.255	2.98
189.728	4.68
190.201	0.08
190.674	-0.12
191.147	0.43
191.619	0.13
192.092	-0.17
192.565	-5.27
193.038	-0.02
193.511	-0.02
193.984	-2.57
194.456	-2.97
194.929	-0.67
195.402	-1.72
195.874	2.48
196.347	4.88
196.82	0.63
197.292	2.23
197.765	-1.77
198.237	-1.22
198.71	-3.87
199.182	2.88
199.655	2.23
200.127	-2.72
200.6	-0.57
201.072	2.38
201.544	-1.17
202.017	1.38
202.489	-1.27
202.961	-0.27
203.433	-5.72
203.906	-3.02
204.378	-1.37
204.85	-1.22
205.322	-2.37
205.794	4.68
206.266	-3.17
206.739	2.88
207.211	-1.32
207.683	-0.72
208.155	6.33
208.627	-0.17
209.099	4.23
209.57	-1.72
210.042	4.68
210.514	0.08
210.986	2.73
211.458	7.63
211.93	5.23
212.402	0.88
212.873	-7.72
213.345	-1.77
213.817	3.73
214.288	0.23
214.76	4.63
215.232	-4.22
215.703	-1.12
216.175	-3.77
216.646	3.48
217.118	2.58
217.589	-4.17
218.061	-0.82
218.532	-6.07
219.004	2.13
219.475	1.43
219.946	10.58
220.418	13.63
220.889	8.98
221.36	2.48
221.832	3.68
222.303	-0.92
222.774	0.68
223.245	-0.27
223.717	-0.97
224.188	4.53
224.659	-1.92
225.13	0.28
225.601	-0.92
226.072	0.93
226.543	1.93
227.014	-0.17
227.485	1.58
227.956	3.33
228.427	6.73
228.898	2.23
229.369	2.78
229.839	1.63
230.31	4.83
230.781	2.13
231.252	8.38
231.722	8.63
232.193	6.68
232.664	14.13
233.135	18.38
233.605	24.58
234.076	19.28
234.546	13.33
235.017	15.53
235.487	17.28
235.958	15.08
236.428	23.33
236.899	36.58
237.369	40.93
237.84	30.58
238.31	37.13
238.78	37.58
239.251	37.03
239.721	41.98
240.191	28.33
240.662	17.58
241.132	12.83
241.602	13.68
242.072	27.83
242.542	29.53
243.013	20.83
243.483	21.73
243.953	12.73
244.423	16.68
244.893	16.48
245.363	20.48
245.833	13.88
246.303	19.78
246.773	29.43
247.243	27.58
247.712	33.33
248.182	39.73
248.652	45.93
249.122	63.33
249.592	124.03
250.061	186.28
250.531	298.43
251.001	226.58
251.471	186.28
251.94	141.08
252.41	77.98
252.879	53.33
253.349	43.13
253.818	29.78
254.288	28.13
254.757	33.88
255.227	38.38
255.696	27.03
256.166	34.03
256.635	29.93
257.105	39.33
257.574	44.98
258.043	47.23
258.513	93.58
258.982	118.73
259.451	87.18
259.92	78.28
260.389	75.18
260.859	53.63
261.328	65.78
261.797	99.43
262.266	86.58
262.735	39.58
263.204	22.18
263.673	25.53
264.142	20.33
264.611	18.38
265.08	22.18
265.549	26.63
266.018	23.63
266.487	18.88
266.955	18.23
267.424	25.13
267.893	24.48
268.362	22.58
268.83	25.33
269.299	22.48
269.768	31.58
270.236	33.73
270.705	40.43
271.174	32.38
271.642	41.18
272.111	49.23
272.579	81.53
273.048	122.13
273.516	158.08
273.985	162.93
274.453	122.03
274.922	71.83
275.39	43.33
275.858	40.98
276.327	31.98
276.795	31.78
277.263	40.08
277.731	52.03
278.2	108.23
278.668	139.58
279.136	113.13
279.604	70.28
280.072	38.03
280.54	31.63
281.008	41.08
281.477	36.23
281.945	39.63
282.413	35.58
282.881	36.18
283.348	39.38
283.816	42.18
284.284	43.18
284.752	42.83
285.22	42.73
285.688	54.43
286.156	86.48
286.623	232.48
287.091	452.58
287.559	233.58
288.026	91.73
288.494	54.63
288.962	44.88
289.429	45.13
289.897	41.18
290.364	33.83
290.832	36.78
291.3	38.63
291.767	41.93
292.234	44.08
292.702	42.63
293.169	48.53
293.637	52.68
294.104	47.18
294.571	43.13
295.039	44.03
295.506	39.83
295.973	45.68
296.44	45.73
296.908	52.78
297.375	61.78
297.842	59.68
298.309	49.73
298.776	44.03
299.243	50.68
299.71	49.88
300.177	48.93
300.644	52.43
301.111	55.98
301.578	53.88
302.045	48.08
302.512	46.58
302.979	52.48
303.446	56.23
303.913	56.68
304.379	61.13
304.846	70.68
305.313	73.38
305.78	94.58
306.246	108.98
306.713	123.18
307.18	103.38
307.646	112.38
308.113	97.68
308.579	79.28
309.046	80.03
309.512	76.78
309.979	69.48
310.445	60.58
310.912	67.73
311.378	70.13
311.845	68.18
312.311	65.18
312.777	66.48
313.244	74.13
313.71	70.28
314.176	81.23
314.642	91.33
315.109	107.83
315.575	100.33
316.041	92.08
316.507	87.28
316.973	99.78
317.439	94.63
317.905	104.43
318.371	101.68
318.837	99.78
319.303	95.43
319.769	90.63
320.235	106.73
320.701	124.88
321.167	129.93
321.633	162.18
322.099	215.68
322.564	297.28
323.03	227.78
323.496	157.83
323.962	152.53
324.427	142.73
324.893	120.53
325.359	115.78
325.824	107.53
326.29	109.98
326.755	110.78
327.221	107.68
327.686	118.38
328.152	105.63
328.617	96.58
329.083	103.28
329.548	107.58
330.014	108.08
330.479	118.78
330.944	139.73
331.41	158.23
331.875	149.98
332.34	158.93
332.805	187.68
333.271	234.78
333.736	305.78
334.201	277.68
334.666	208.83
335.131	230.18
335.596	181.78
336.061	190.13
336.526	200.13
336.991	169.48
337.456	184.13
337.921	144.88
338.386	117.33
338.851	108.83
339.316	101.48
339.781	95.08
340.246	101.63
340.711	99.68
341.175	102.43
341.64	106.93
342.105	107.38
342.569	117.53
343.034	118.53
343.499	125.98
343.963	122.43
344.428	120.53
344.893	125.63
345.357	126.58
345.822	128.63
346.286	123.13
346.751	132.58
347.215	128.38
347.679	134.18
348.144	146.43
348.608	143.43
349.073	147.03
349.537	163.28
350.001	160.28
350.465	150.48
350.93	142.13
351.394	144.13
351.858	147.48
352.322	153.83
352.786	139.93
353.25	149.73
353.715	149.38
354.179	157.73
354.643	164.23
355.107	165.73
355.571	173.13
356.035	175.93
356.498	181.03
356.962	183.98
357.426	183.93
357.89	167.18
358.354	159.13
358.818	152.33
359.281	161.33
359.745	169.03
360.209	162.98
360.673	163.13
361.136	170.93
361.6	168.58
362.064	173.58
362.527	184.88
362.991	182.98
363.454	182.13
363.918	184.13
364.381	181.98
364.845	176.88
365.308	173.43
365.772	175.53
366.235	179.58
366.698	184.63
367.162	219.78
367.625	257.13
368.088	208.23
368.552	186.28
369.015	192.03
369.478	200.58
369.941	203.28
370.404	208.38
370.867	220.98
371.331	222.13
371.794	226.73
372.257	252.03
372.72	267.33
373.183	256.23
373.646	254.28
374.109	256.88
374.572	295.43
375.035	353.33
375.497	263.88
375.96	216.08
376.423	201.43
376.886	205.13
377.349	208.58
377.811	212.73
378.274	216.03
378.737	217.18
379.199	227.58
379.662	224.08
380.125	248.93
380.587	271.68
381.05	287.83
381.512	283.18
381.975	274.63
382.437	274.63
382.9	274.13
383.362	271.88
383.825	294.28
384.287	368.48
384.75	413.63
385.212	367.53
385.674	304.78
386.136	271.58
386.599	274.88
387.061	274.98
387.523	295.43
387.985	295.28
388.447	311.63
388.91	345.13
389.372	416.38
389.834	397.23
390.296	325.78
390.758	331.78
391.22	342.78
391.682	422.28
392.144	638.38
392.606	600.58
393.068	358.03
393.529	322.13
393.991	313.03
394.453	301.48
394.915	325.88
395.377	392.13
395.838	482.03
396.3	342.88
396.762	261.98
397.224	254.63
397.685	247.23
398.147	254.68
398.608	252.38
399.07	254.48
399.531	248.93
399.993	258.08
400.454	262.88
400.916	260.13
401.377	270.53
401.839	274.83
402.3	270.23
402.762	280.58
403.223	319.18
403.684	317.88
404.145	294.28
404.607	289.23
405.068	284.38
405.529	290.03
405.99	293.33
406.451	300.53
406.913	291.08
407.374	296.68
407.835	300.23
408.296	312.03
408.757	317.53
409.218	325.48
409.679	326.53
410.14	327.23
410.601	348.98
411.062	360.03
411.522	414.23
411.983	456.63
412.444	387.53
412.905	338.68
413.366	337.13
413.826	346.18
414.287	386.38
414.748	462.98
415.208	467.48
415.669	395.38
416.13	360.83
416.59	349.18
417.051	369.28
417.511	381.28
417.972	403.58
418.432	435.88
418.893	481.98
419.353	456.83
419.814	358.18
420.274	326.93
420.734	322.63
421.195	344.38
421.655	362.18
422.115	345.33
422.576	335.28
423.036	335.18
423.496	351.38
423.956	367.18
424.416	396.43
424.876	435.68
425.336	440.78
425.797	433.13
426.257	434.78
426.717	411.38
427.177	391.48
427.637	400.18
428.097	422.23
428.556	433.63
429.016	475.98
429.476	476.08
429.936	464.13
430.396	450.88
430.856	457.28
431.315	467.98
431.775	499.18
432.235	530.68
432.694	537.13
433.154	508.13
433.614	498.48
434.073	471.83
434.533	429.28
434.993	416.13
435.452	427.38
435.912	407.93
436.371	405.13
436.83	406.53
437.29	410.78
437.749	391.18
438.209	386.93
438.668	395.33
439.127	392.18
439.587	384.83
440.046	364.53
440.505	374.28
440.964	374.23
441.424	388.63
441.883	390.48
442.342	374.13
442.801	352.68
443.26	364.68
443.719	368.18
444.178	360.08
444.637	363.13
445.096	363.98
445.555	367.23
446.014	368.68
446.473	368.48
446.932	360.38
447.391	366.18
447.849	374.43
448.308	368.38
448.767	376.43
449.226	386.78
449.685	385.93
450.143	407.78
450.602	406.28
451.061	386.28
451.519	392.28
451.978	399.43
452.436	415.43
452.895	399.83
453.353	386.03
453.812	385.58
454.27	381.68
454.729	372.68
455.187	373.63
455.646	382.98
456.104	380.58
456.562	379.48
457.021	377.43
457.479	362.68
457.937	375.48
458.395	383.33
458.854	382.63
459.312	374.83
459.77	375.83
460.228	384.43
460.686	389.78
461.144	389.38
461.602	383.58
462.06	391.83
462.518	396.78
462.976	397.88
463.434	401.93
463.892	401.03
464.35	406.68
464.808	413.53
465.266	421.38
465.724	428.98
466.181	422.88
466.639	421.38
467.097	440.03
467.555	451.88
468.012	452.18
468.47	455.88
468.928	468.53
469.385	477.73
469.843	486.98
470.3	485.68
470.758	499.33
471.215	503.03
471.673	516.43
472.13	535.18
472.588	540.73
473.045	545.28
473.503	558.98
473.96	581.38
474.417	589.53
474.875	617.33
475.332	629.38
475.789	646.98
476.246	668.33
476.704	698.48
477.161	717.98
477.618	743.53
478.075	779.88
478.532	853.43
478.989	921.23
479.446	1018.33
479.903	1072.73
480.36	1188.33
480.817	1270.28
481.274	1361.73
481.731	1502.23
482.188	1617.73
482.645	1748.28
483.102	1849.28
483.558	1978.43
484.015	2082.23
484.472	2067.33
484.929	2008.23
485.385	1918.43
485.842	1873.38
486.299	1770.68
486.755	1595.58
487.212	1430.28
487.668	1280.93
488.125	1170.38
488.582	1081.58
489.038	1035.68
489.494	997.18
489.951	964.08
490.407	936.38
490.864	923.28
491.32	896.83
491.776	889.93
492.233	879.33
492.689	873.73
493.145	861.23
493.602	856.08
494.058	863.48
494.514	882.43
494.97	877.13
495.426	892.88
495.882	890.08
496.338	892.23
496.794	929.18
497.251	930.68
497.707	932.83
498.163	937.93
498.618	928.28
499.074	938.58
499.53	956.83
499.986	980.28
500.442	988.03
500.898	986.83
501.354	1004.88
501.809	1007.63
502.265	1028.68
502.721	1067.68
503.177	1103.38
503.632	1038.58
504.088	1062.83
504.543	1150.08
504.999	1072.98
505.455	955.18
505.91	908.28
506.366	887.28
506.821	900.08
507.277	889.13
507.732	889.83
508.187	894.08
508.643	894.08
509.098	897.28
509.553	906.28
510.009	924.33
510.464	932.93
510.919	943.83
511.375	951.38
511.83	966.28
512.285	982.13
512.74	1004.78
513.195	1015.88
513.65	1039.48
514.105	1055.78
514.56	1046.83
515.015	1071.33
515.47	1075.58
515.925	1071.88
516.38	1071.08
516.835	1066.78
517.29	1069.13
517.745	1073.33
518.2	1053.13
518.655	1026.13
519.109	1013.18
519.564	994.13
520.019	996.28
520.474	985.13
520.928	977.93
521.383	976.58
521.838	971.23
522.292	966.18
522.747	950.63
523.201	953.13
523.656	930.93
524.11	931.28
524.565	936.28
525.019	939.23
525.474	941.83
525.928	929.13
526.382	924.68
526.837	926.13
527.291	921.33
527.745	922.28
528.2	918.23
528.654	901.08
529.108	912.83
529.562	918.28
530.016	915.03
530.47	913.33
530.925	913.43
531.379	914.73
531.833	925.53
532.287	921.28
532.741	916.98
533.195	908.33
533.649	915.08
534.103	917.88
534.556	907.18
535.01	909.78
535.464	916.58
535.918	912.08
536.372	923.98
536.826	919.43
537.279	914.33
537.733	916.83
538.187	908.28
538.64	917.28
539.094	931.83
539.548	936.08
540.001	934.78
540.455	931.58
540.908	949.63
541.362	954.23
541.815	962.28
542.269	995.28
542.722	973.83
543.175	991.18
543.629	992.18
544.082	994.53
544.536	1004.13
544.989	1006.73
545.442	1015.78
545.895	1011.93
546.349	1015.43
546.802	1017.43
547.255	1025.83
547.708	1027.63
548.161	1035.73
548.614	1025.78
549.067	1036.33
549.52	1023.23
549.973	1017.93
550.426	1017.98
550.879	1011.33
551.332	1006.78
551.785	1015.38
552.238	1015.68
552.691	1013.73
553.144	1035.48
553.596	1058.48
554.049	1064.68
554.502	1082.83
554.955	1101.18
555.407	1113.33
555.86	1110.08
556.313	1096.13
556.765	1090.08
557.218	1063.48
557.67	1070.53
558.123	1054.73
558.576	1058.78
559.028	1049.28
559.48	1059.28
559.933	1050.13
560.385	1020.33
560.838	995.98
561.29	962.58
561.742	969.28
562.195	946.28
562.647	933.63
563.099	944.23
563.551	937.68
564.004	944.83
564.456	934.13
564.908	911.48
565.36	899.13
565.812	881.78
566.264	878.18
566.716	865.53
567.168	845.63
567.62	854.33
568.072	844.08
568.524	833.93
568.976	829.48
569.428	826.43
569.88	820.48
570.332	833.98
570.784	830.63
571.235	814.13
571.687	819.68
572.139	828.18
572.59	837.88
573.042	839.58
573.494	836.28
573.945	818.88
574.397	801.98
574.849	802.28
575.3	811.23
575.752	799.43
576.203	797.43
576.655	801.58
577.106	789.78
577.557	791.63
578.009	777.23
578.46	785.58
578.912	772.58
579.363	775.18
579.814	782.58
580.265	773.68
580.717	778.03
581.168	776.73
581.619	779.73
582.07	787.58
582.521	783.48
582.972	788.23
583.423	787.63
583.875	810.03
584.326	856.58
584.777	918.13
585.227	1008.48
585.678	1072.48
586.129	1086.53
586.58	1120.38
587.031	1130.08
587.482	1197.23
587.933	1387.58
588.384	1286.13
588.834	1068.08
589.285	908.08
589.736	888.28
590.186	890.73
590.637	881.03
591.088	851.48
591.538	846.83
591.989	836.73
592.439	836.63
592.89	832.48
593.34	827.63
593.791	834.88
594.241	847.03
594.692	852.83
595.142	847.38
595.593	825.38
596.043	836.58
596.493	844.58
596.943	868.58
597.394	855.13
597.844	844.58
598.294	859.33
598.744	878.23
599.195	924.58
599.645	973.98
600.095	1024.38
600.545	1066.93
600.995	1105.68
601.445	1151.08
601.895	1198.78
602.345	1235.93
602.795	1214.03
603.245	1174.23
603.695	1087.38
604.145	1035.38
604.594	988.18
605.044	932.58
605.494	888.88
605.944	842.43
606.393	830.23
606.843	820.43
607.293	817.98
607.743	810.43
608.192	821.83
608.642	816.88
609.091	831.53
609.541	818.73
609.99	819.88
610.44	800.18
610.889	793.18
611.339	784.98
611.788	774.88
612.238	782.48
612.687	790.98
613.136	817.08
613.586	820.18
614.035	819.58
614.484	834.63
614.933	828.68
615.383	825.73
615.832	784.73
616.281	778.83
616.73	747.23
617.179	724.53
617.628	716.18
618.077	705.23
618.526	696.23
618.975	692.43
619.424	681.28
619.873	681.18
620.322	678.13
620.771	680.23
621.22	668.73
621.669	656.18
622.118	645.33
622.567	649.63
623.015	636.13
623.464	631.73
623.913	618.93
624.361	624.33
624.81	617.83
625.259	617.63
625.707	613.58
626.156	612.03
626.604	629.28
627.053	626.98
627.501	628.23
627.95	623.98
628.398	635.08
628.847	627.23
629.295	628.23
629.744	640.13
630.192	657.78
630.64	710.53
631.089	781.53
631.537	815.78
631.985	828.98
632.433	860.68
632.881	850.18
633.33	1014.48
633.778	1111.63
634.226	791.73
634.674	730.63
635.122	724.08
635.57	731.53
636.018	845.38
636.466	693.13
636.914	615.93
637.362	609.23
637.81	621.33
638.258	632.13
638.705	642.83
639.153	669.18
639.601	667.33
640.049	672.88
640.497	700.98
640.944	712.83
641.392	682.23
641.84	650.68
642.287	625.18
642.735	618.28
643.182	617.58
643.63	612.43
644.078	611.33
644.525	618.93
644.973	638.18
645.42	650.33
645.867	658.68
646.315	675.33
646.762	703.23
647.21	710.68
647.657	758.73
648.104	797.73
648.551	827.03
648.999	899.43
649.446	999.18
649.893	1134.38
650.34	1342.58
650.787	1662.33
651.234	2155.08
651.682	3029.78
652.129	4383.73
652.576	6336.48
653.023	8447.38
653.47	9849.73
653.917	10640.33
654.363	11017.28
654.81	11667.03
655.257	11710.13
655.704	7989.08
656.151	4683.98
656.598	3011.63
657.044	2149.08
657.491	1660.83
657.938	1339.78
658.385	1125.58
658.831	999.73
659.278	890.83
659.724	800.28
660.171	753.08
660.618	694.43
661.064	656.93
661.511	632.88
661.957	613.73
662.404	595.98
662.85	581.63
663.296	579.83
663.743	558.33
664.189	555.33
664.635	547.13
665.082	534.53
665.528	537.73
665.974	516.03
666.42	518.68
666.867	523.78
667.313	520.58
667.759	552.18
668.205	551.08
668.651	555.03
669.097	536.63
669.543	576.48
669.989	556.98
670.435	485.48
670.881	485.53
671.327	502.18
671.773	528.78
672.219	572.28
672.665	603.38
673.11	620.38
673.556	628.08
674.002	638.23
674.448	640.48
674.893	552.08
675.339	486.33
675.785	442.93
676.23	425.63
676.676	411.63
677.122	403.73
677.567	387.48
678.013	382.83
678.458	381.68
678.904	374.58
679.349	371.58
679.794	376.33
680.24	372.98
680.685	364.83
681.131	371.33
681.576	369.03
682.021	374.63
682.466	374.68
682.912	380.83
683.357	396.48
683.802	424.13
684.247	465.13
684.692	491.18
685.137	511.48
685.583	520.18
686.028	546.68
686.473	514.13
686.918	445.13
687.363	413.38
687.807	396.93
688.252	380.83
688.697	363.38
689.142	352.93
689.587	358.23
690.032	369.88
690.477	375.53
690.921	394.78
691.366	412.03
691.811	426.93
692.255	466.53
692.7	571.78
693.145	815.18
693.589	1213.33
694.034	1434.48
694.478	1501.18
694.923	1365.13
695.367	1881.83
695.812	1189.63
696.256	518.83
696.701	387.78
697.145	363.83
697.59	349.28
698.034	343.48
698.478	336.58
698.922	346.83
699.367	356.98
699.811	375.68
700.255	409.33
700.699	438.43
701.143	471.48
701.588	496.28
702.032	514.98
702.476	526.33
702.92	558.13
703.364	740.13
703.808	1116.23
704.252	1372.43
704.696	1434.43
705.14	1332.03
705.584	1781.03
706.027	1049.18
706.471	534.93
706.915	401.08
707.359	359.48
707.803	334.13
708.246	324.53
708.69	330.43
709.134	317.53
709.577	318.83
710.021	328.08
710.465	324.98
710.908	319.18
711.352	336.43
711.795	371.93
712.239	393.13
712.682	404.68
713.126	402.23
713.569	450.18
714.012	372.43
714.456	327.68
714.899	306.43
715.342	283.53
715.786	276.93
716.229	268.98
716.672	265.18
717.115	264.53
717.558	269.68
718.002	276.08
718.445	287.93
718.888	297.73
719.331	310.43
719.774	310.18
720.217	305.13
720.66	284.43
721.103	276.43
721.546	260.28
721.989	250.83
722.432	251.53
722.874	246.53
723.317	256.93
723.76	284.58
724.203	344.28
724.645	448.48
725.088	518.78
725.531	497.48
725.974	546.88
726.416	498.58
726.859	311.43
727.301	264.78
727.744	251.88
728.187	248.93
728.629	246.73
729.071	265.78
729.514	281.38
729.956	281.38
730.399	288.33
730.841	286.73
731.283	278.83
731.726	272.33
732.168	280.53
732.61	295.38
733.053	319.18
733.495	347.68
733.937	390.78
734.379	459.13
734.821	593.08
735.263	927.13
735.705	1619.03
736.148	2323.83
736.59	2287.53
737.032	2455.28
737.474	2035.68
737.916	830.38
738.357	442.63
738.799	336.33
739.241	319.23
739.683	315.98
740.125	318.78
740.567	318.53
741.008	334.93
741.45	348.68
741.892	360.93
742.334	360.93
742.775	350.23
743.217	335.38
743.658	289.53
744.1	296.58
744.542	332.23
744.983	343.68
745.425	359.73
745.866	355.23
746.307	319.13
746.749	344.63
747.19	507.93
747.632	984.43
748.073	1770.33
748.514	2376.23
748.956	3140.48
749.397	3623.98
749.838	2519.93
750.279	2365.08
750.72	1273.53
751.162	548.88
751.603	320.58
752.044	255.48
752.485	229.48
752.926	216.53
753.367	208.63
753.808	201.83
754.249	197.43
754.69	193.23
755.131	190.33
755.572	192.68
756.013	194.83
756.453	190.83
756.894	196.83
757.335	193.83
757.776	198.18
758.216	211.08
758.657	221.68
759.098	241.43
759.538	302.83
759.979	424.63
760.42	866.78
760.86	2147.93
761.301	4355.83
761.741	4981.88
762.182	5640.18
762.622	3668.93
763.063	1406.83
763.503	619.63
763.943	474.48
764.384	509.53
764.824	479.78
765.264	483.08
765.705	345.38
766.145	250.93
766.585	220.28
767.025	228.68
767.465	306.08
767.906	363.68
768.346	380.83
768.786	395.13
769.226	413.93
769.666	713.23
770.106	1485.68
770.546	2029.43
770.986	2231.78
771.426	1715.33
771.866	753.13
772.306	357.03
772.745	219.18
773.185	190.48
773.625	191.23
774.065	223.68
774.505	368.03
774.944	711.18
775.384	1051.33
775.824	1160.08
776.263	962.13
776.703	486.13
777.142	252.93
777.582	175.33
778.021	160.23
778.461	148.38
778.9	148.73
779.34	137.23
779.779	131.58
780.219	130.03
780.658	122.03
781.097	123.38
781.537	117.28
781.976	118.53
782.415	118.68
782.855	113.98
783.294	117.23
783.733	109.53
784.172	116.73
784.611	112.28
785.05	120.33
785.489	120.63
785.928	121.83
786.367	127.03
786.806	133.03
787.245	143.78
787.684	142.78
788.123	143.88
788.562	140.38
789.001	134.88
789.44	128.88
789.879	128.93
790.317	131.48
790.756	134.38
791.195	162.23
791.634	219.78
792.072	402.63
792.511	966.68
792.95	1693.43
793.388	1978.33
793.827	1316.28
794.265	630.68
794.704	307.68
795.142	186.78
795.581	151.98
796.019	141.13
796.458	140.88
796.896	145.48
797.334	165.73
797.773	222.08
798.211	436.48
798.649	870.18
799.087	1424.33
799.526	1963.93
799.964	1994.28
800.402	1388.23
800.84	658.78
801.278	323.88
801.716	204.33
802.154	162.58
802.592	156.48
803.03	152.63
803.468	152.23
803.906	161.38
804.344	156.58
804.782	145.23
805.22	147.33
805.658	154.53
806.096	163.83
806.533	183.63
806.971	238.53
807.409	343.13
807.847	697.73
808.284	1698.58
808.722	2894.33
809.16	4057.78
809.597	5557.08
810.035	6701.38
810.472	4285.43
810.91	1918.68
811.347	883.33
811.785	413.03
812.222	258.88
812.66	200.68
813.097	171.83
813.535	150.98
813.972	136.63
814.409	124.53
814.846	122.08
815.284	110.43
815.721	116.83
816.158	125.68
816.595	158.08
817.032	187.73
817.47	170.93
817.907	136.88
818.344	116.43
818.781	119.18
819.218	137.58
819.655	195.48
820.092	243.18
820.529	225.38
820.966	189.53
821.403	139.58
821.839	122.13
822.276	132.98
822.713	146.43
823.15	142.43
823.587	156.48
824.023	284.38
824.46	712.58
824.897	1190.98
825.333	921.28
825.77	441.63
826.206	231.83
826.643	139.03
827.08	106.08
827.516	93.23
827.953	85.23
828.389	78.03
828.825	80.88
829.262	73.23
829.698	70.48
830.135	68.03
830.571	61.28
831.007	70.18
831.443	67.43
831.88	68.88
832.316	73.78
832.752	71.08
833.188	69.53
833.624	71.23
834.06	73.28
834.497	74.23
834.933	76.78
835.369	84.73
835.805	91.58
836.241	89.08
836.677	99.38
837.112	113.43
837.548	143.83
837.984	210.18
838.42	455.63
838.856	1223.73
839.292	2291.63
839.727	1712.28
840.163	1214.13
840.599	1807.93
841.034	2646.73
841.47	1370.78
841.906	689.03
842.341	396.08
842.777	332.48
843.212	380.68
843.648	225.58
844.083	140.93
844.519	101.73
844.954	80.63
845.39	64.88
845.825	64.98
846.261	62.33
846.696	60.18
847.131	53.83
847.566	59.08
848.002	60.33
848.437	67.58
848.872	66.13
849.307	90.73
849.742	156.33
850.177	410.43
850.613	847.23
851.048	599.88
851.483	282.23
851.918	159.43
852.353	90.53
852.788	71.33
853.223	62.73
853.657	58.83
854.092	53.28
854.527	49.68
854.962	49.78
855.397	56.13
855.832	43.23
856.266	45.88
856.701	43.58
857.136	43.18
857.57	48.08
858.005	62.63
858.44	55.98
858.874	47.33
859.309	54.13
859.743	51.68
860.178	51.23
860.612	59.78
861.047	70.73
861.481	89.63
861.915	60.78
862.35	51.33
862.784	35.98
863.218	44.73
863.653	45.48
864.087	56.93
864.521	69.78
864.955	121.63
865.39	201.88
865.824	144.28
866.258	163.33
866.692	236.18
867.126	169.13
867.56	93.28
867.994	59.83
868.428	56.28
868.862	66.78
869.296	60.98
869.73	72.28
870.164	62.68
870.598	51.98
871.031	44.78
871.465	41.23
871.899	34.23
872.333	31.63
872.766	34.53
873.2	34.43
873.634	31.33
874.067	40.73
874.501	35.83
874.935	31.88
875.368	31.63
875.802	30.48
876.235	29.18
876.669	29.08
877.102	22.33
877.535	25.93
877.969	24.38
878.402	25.48
878.836	28.08
879.269	21.08
879.702	23.33
880.135	27.73
880.569	29.43
881.002	24.73
881.435	28.33
881.868	26.43
882.301	23.23
882.734	25.98
883.167	27.43
883.601	24.98
884.034	26.68
884.467	19.03
884.899	21.53
885.332	16.03
885.765	21.43
886.198	18.98
886.631	21.68
887.064	21.48
887.497	18.03
887.929	24.48
888.362	19.23
888.795	24.18
889.228	21.38
889.66	21.03
890.093	19.03
890.526	24.18
890.958	16.43
891.391	23.28
891.823	21.48
892.256	19.83
892.688	20.28
893.121	15.83
893.553	24.88
893.985	15.98
894.418	16.48
894.85	21.93
895.282	19.03
895.715	16.98
896.147	12.58
896.579	14.58
897.011	23.73
897.444	23.38
897.876	13.88
898.308	15.73
898.74	16.88
899.172	19.83
899.604	19.73
900.036	16.28
900.468	14.48
900.9	23.28
901.332	23.98
901.764	23.33
902.196	20.98
902.628	18.73
903.06	31.58
903.491	27.83
903.923	25.28
904.355	30.18
904.787	24.48
905.218	20.08
905.65	22.23
906.082	25.13
906.513	20.83
906.945	23.38
907.376	26.13
907.808	22.83
908.239	27.18
908.671	26.58
909.102	27.93
909.534	40.63
909.965	81.88
910.397	201.63
910.828	554.73
911.259	341.13
911.691	181.63
912.122	110.03
912.553	55.83
912.984	30.33
913.415	26.03
913.847	20.08
914.278	20.33
914.709	18.58
915.14	20.18
915.571	20.33
916.002	23.43
916.433	17.53
916.864	14.93
917.295	15.98
917.726	17.78
918.157	26.98
918.587	25.78
919.018	26.88
919.449	21.73
919.88	22.73
920.311	37.88
920.741	120.78
921.172	206.33
921.603	104.83
922.033	62.38
922.464	40.78
922.895	26.28
923.325	17.93
923.756	21.93
924.186	27.38
924.617	45.78
925.047	68.13
925.478	60.68
925.908	43.48
926.338	31.23
926.769	23.73
927.199	20.43
927.629	16.83
928.06	13.18
928.49	15.23
928.92	17.63
929.35	12.63
929.78	9.18
930.21	7.88
930.641	7.73
931.071	10.28
931.501	7.18
931.931	3.53
932.361	4.98
932.791	10.98
933.221	9.58
933.651	19.88
934.08	25.18
934.51	16.53
934.94	13.43
935.37	13.98
935.8	7.08
936.229	8.63
936.659	9.48
937.089	8.18
937.519	15.03
937.948	25.13
938.378	21.13
938.807	9.43
939.237	7.28
939.666	8.78
940.096	4.28
940.525	-0.72
940.955	6.98
941.384	4.73
941.814	3.03
942.243	2.88
942.672	3.13
943.102	2.38
943.531	-1.37
943.96	3.43
944.39	2.43
944.819	-1.22
945.248	3.53
945.677	2.38
946.106	4.08
946.535	6.58
946.964	7.58
947.393	2.63
947.822	1.33
948.251	4.23
948.68	3.68
949.109	4.88
949.538	4.13
949.967	5.38
950.396	3.38
950.825	2.53
951.254	2.08
951.682	-0.37
952.111	-1.12
952.54	-0.22
952.969	1.58
953.397	-1.87
953.826	-0.77
954.254	2.38
954.683	6.68
955.112	3.53
955.54	3.63
955.969	2.98
956.397	2.18
956.826	0.98
957.254	0.68
957.682	4.18
958.111	8.28
958.539	4.18
958.967	3.68
959.396	6.83
959.824	1.73
960.252	-0.07
960.68	6.13
961.109	2.73
961.537	8.28
961.965	-0.67
962.393	0.78
962.821	-0.17
963.249	1.68
963.677	6.83
964.105	34.38
964.533	61.13
964.961	25.38
965.389	18.33
965.817	10.48
966.245	6.28
966.672	1.98
967.1	5.38
967.528	2.68
967.956	1.28
968.383	3.43
968.811	2.13
969.239	0.38
969.666	2.63
970.094	-2.47
970.522	-3.22
970.949	2.43
971.377	-1.07
971.804	-1.52
972.232	2.03
972.659	0.28
973.087	3.58
973.514	-0.82
973.941	-3.07
974.369	-3.62
974.796	-3.62
975.223	0.53
975.651	1.58
976.078	-0.12
976.505	7.28
976.932	12.48
977.359	13.33
977.786	10.33
978.214	8.08
978.641	1.88
979.068	0.73
979.495	0.03
979.922	3.48
980.349	5.98
980.776	5.93
981.202	0.18
981.629	0.88
982.056	1.78
982.483	-5.32
982.91	3.33
983.337	-3.72
983.763	3.08
984.19	5.58
984.617	-2.07
985.043	1.28
985.47	2.93
985.897	3.13
986.323	4.23
986.75	-1.77
987.176	-2.22
987.603	4.53
988.029	3.18
988.456	1.08
988.882	1.93
989.308	-0.82
989.735	0.83
990.161	3.03
990.587	1.48
991.014	3.98
991.44	3.53
991.866	2.08
992.292	0.58
992.719	1.13
993.145	-1.32
993.571	0.23
993.997	4.83
994.423	3.63
994.849	-4.82
995.275	-0.57
995.701	-0.37
996.127	-7.12
996.553	-0.97
996.979	-5.67
997.405	5.48
997.83	1.03
998.256	3.38
998.682	0.73
999.108	3.48
999.534	-1.97
999.959	1.33
1000.385	2.88
1000.811	-4.62
1001.236	-2.52
1001.662	-1.12
1002.087	10.33
1002.513	2.23
1002.938	-2.52
1003.364	-1.12
1003.789	0.78
1004.215	-2.42
1004.64	-2.27
1005.066	0.63
1005.491	4.98
1005.916	1.13
1006.342	-0.17
1006.767	1.78
1007.192	1.13
1007.617	0.53
1008.042	2.58
1008.468	2.38
1008.893	4.48
1009.318	1.18
1009.743	2.83
1010.168	9.48
1010.593	9.08
1011.018	3.93
1011.443	0.33
1011.868	2.83
1012.293	2.78
1012.718	-3.67
1013.143	-0.82
1013.567	2.48
1013.992	1.98
1014.417	4.98
1014.842	-0.72
1015.267	-2.67
1015.691	1.23
1016.116	-0.32
1016.541	1.68
1016.965	2.93
1017.39	1.63
1017.814	-6.27
1018.239	-3.17
1018.663	-4.62
1019.088	-3.52
1019.512	5.78
1019.937	-2.77
1020.361	2.28
1020.785	-2.92
1021.21	-6.17
1021.634	-2.82
1022.058	2.03
1022.483	-2.67
1022.907	-6.72
1023.331	0.28
1023.755	-3.22
1024.179	0.38
1024.604	-0.32
1025.028	1.28
1025.452	-0.42
1025.876	2.08
1026.3	-0.52
1026.724	-3.37
1027.148	4.18
1027.572	-0.77
1027.996	-0.12
1028.42	-0.22
1028.843	-1.17
1029.267	-1.97
1029.691	3.58
1030.115	-0.62
1030.539	-6.12
1030.962	-0.57
1031.386	-2.77
1031.81	-1.77
1032.233	-2.62
1032.657	-4.02
1033.08	-2.17
1033.504	-3.07
1033.927	0.53
1034.351	-6.52
1034.774	0.33
1035.198	-0.92
1035.621	-0.02
1036.045	-2.72
1036.468	3.88
1036.891	2.88
1037.315	0.23
1037.738	1.58
1038.161	-0.22
1038.584	-0.97
1039.008	-2.82
1039.431	-2.57
1039.854	-5.32
1040.277	-0.57
1040.7	-1.72
1041.123	-3.02
1041.546	-4.57
1041.969	-0.62
1042.392	-0.47
1042.815	-4.37
1043.238	-0.27
1043.661	0.63
1044.084	-2.62
1044.507	-2.67
1044.93	-0.77
1045.352	2.23
1045.775	-2.57
1046.198	-1.72
1046.621	-0.02
1047.043	-3.87
1047.466	0.93
1047.889	-6.07
1048.311	6.68
1048.734	-2.52
1049.156	-0.02
1049.579	-3.57
1050.001	-4.62
1050.424	-2.72
1050.846	-5.27
1051.269	-3.07
1051.691	-1.12
1052.113	-0.17
1052.536	-5.12
1052.958	0.18
1053.38	-3.22
1053.802	-2.32
1054.225	2.38
1054.647	-1.02
1055.069	-3.17
1055.491	-0.12
1055.913	-1.47
1056.335	-8.02
1056.757	-2.87
1057.179	-1.97
1057.601	-1.92
1058.023	2.18
1058.445	-5.52
1058.867	-0.62
1059.289	-3.72
1059.711	-3.02
1060.133	0.23
1060.555	0.28
1060.976	-2.57
1061.398	-2.82
1061.82	-4.67
1062.241	-2.12
1062.663	-1.42
1063.085	-4.47
1063.506	-4.82
1063.928	-5.17
1064.35	-0.27
1064.771	-3.72
1065.193	-5.12
1065.614	-2.17
1066.035	2.33
1066.457	0.93
1066.878	-6.37
1067.3	-0.97
1067.721	1.08
1068.142	3.78
1068.564	-1.22
1068.985	-3.52
1069.406	-5.87
1069.827	-2.72
1070.248	-2.32
1070.67	-5.87
1071.091	-3.67
1071.512	-5.17
1071.933	-4.67
1072.354	-7.67
1072.775	-2.92
1073.196	1.58
1073.617	-6.62
1074.038	3.88
1074.459	-9.47
1074.88	-4.17
1075.3	-4.02
1075.721	-0.62
1076.142	-4.47
1076.563	-7.72
1076.983	1.73
1077.404	-7.02
1077.825	-0.22
1078.246	-8.27
1078.666	-3.77
1079.087	-4.37
1079.507	-3.77
1079.928	-0.77
1080.348	-2.87
1080.769	1.23
1081.189	-0.97
1081.61	-4.32
1082.03	2.48
1082.451	2.13
1082.871	-3.62
1083.291	-3.67
1083.711	-0.32
1084.132	-3.52
1084.552	-6.12
1084.972	-10.27
1085.392	-4.67
1085.813	-2.37
1086.233	-6.77
1086.653	-2.12
1087.073	-1.27
1087.493	-1.67
1087.913	-8.47
1088.333	-3.92
1088.753	-1.42
1089.173	-2.17
1089.593	-2.92
1090.013	-4.02
1090.433	-5.42
1090.852	0.73
1091.272	-3.27
1091.692	-1.57
1092.112	-1.12
1092.531	-8.02
1092.951	0.03
1093.371	-5.52
1093.79	-4.62
1094.21	-5.87
1094.63	-2.82
1095.049	-2.37
1095.469	-13.12
1095.888	3.13
1096.308	4.08
1096.727	-3.02
1097.146	-8.67
1097.566	2.13
1097.985	-5.17
1098.405	-2.37
1098.824	0.98
1099.243	-5.82
1099.662	-0.42
1100.082	-7.57
1100.501	3.13
1100.92	3.28
1101.339	2.23
1101.758	1.13
