Data from MSPlasma+Separation6_Subt14_10-15-37-177.txt Node
Date: Fri Jul 21 10:15:37 EDT 2017
User: Ender
Spectrometer: HR+D1039
Trigger mode: 0
Integration Time (sec): 2.510000E-3
Scans to average: 20
Electric dark correction enabled: true
Nonlinearity correction enabled: false
Boxcar width: 0
XAxis mode: Wavelengths
Number of Pixels in Spectrum: 2048
>>>>>Begin Spectral Data<<<<<
187.836	-1.4
188.309	-1.4
188.782	-1.4
189.255	2.7
189.728	3.45
190.201	2.85
190.674	-3.6
191.147	-0.2
191.619	2
192.092	-5.4
192.565	-3.6
193.038	1.6
193.511	3.55
193.984	0.3
194.456	-0.55
194.929	1.85
195.402	-5.45
195.874	1.9
196.347	3.45
196.82	3.45
197.292	-3.9
197.765	0.55
198.237	-2.7
198.71	-2.5
199.182	0.25
199.655	-1.1
200.127	0.35
200.6	-2.05
201.072	2.5
201.544	-3.5
202.017	2.75
202.489	0.15
202.961	1.65
203.433	-3.4
203.906	1.4
204.378	3.1
204.85	-2.95
205.322	-1.15
205.794	-0.7
206.266	1.5
206.739	1.2
207.211	-1.75
207.683	-1.45
208.155	0.05
208.627	3.4
209.099	0.4
209.57	1.95
210.042	-1
210.514	5.3
210.986	4.8
211.458	3.95
211.93	4.45
212.402	0.4
212.873	-1.6
213.345	-6.7
213.817	5
214.288	-3.2
214.76	2.25
215.232	0.75
215.703	-0.4
216.175	1.8
216.646	0.2
217.118	6.65
217.589	-7.45
218.061	-2.8
218.532	-2.1
219.004	4.3
219.475	3.2
219.946	6.65
220.418	17.8
220.889	6.05
221.36	5.45
221.832	-1.65
222.303	6.55
222.774	1.2
223.245	1.15
223.717	-1.95
224.188	2.45
224.659	3.25
225.13	-2.2
225.601	2.25
226.072	1.6
226.543	4.9
227.014	1.8
227.485	0.55
227.956	3.55
228.427	4.35
228.898	5.9
229.369	5.2
229.839	4
230.31	1.55
230.781	3
231.252	8
231.722	8.15
232.193	10.6
232.664	12.45
233.135	19.3
233.605	18.15
234.076	21.35
234.546	11
235.017	18.3
235.487	15.95
235.958	14.8
236.428	29.3
236.899	38.5
237.369	40.25
237.84	31.5
238.31	45.4
238.78	34.3
239.251	36.45
239.721	37.9
240.191	25.85
240.662	20.05
241.132	12.8
241.602	21.3
242.072	23.4
242.542	32.5
243.013	23.4
243.483	19.25
243.953	14.05
244.423	14.4
244.893	20.1
245.363	22.25
245.833	22.55
246.303	19.75
246.773	32.55
247.243	27.05
247.712	39.8
248.182	39.1
248.652	39.7
249.122	71.5
249.592	124.15
250.061	193.2
250.531	297.95
251.001	235.95
251.471	188.05
251.94	143.35
252.41	75.05
252.879	52.8
253.349	45.2
253.818	29.85
254.288	28.45
254.757	31.05
255.227	37.7
255.696	31.1
256.166	31.6
256.635	31.2
257.105	33.85
257.574	53.1
258.043	44.9
258.513	96.1
258.982	111.25
259.451	85.3
259.92	84.15
260.389	79.65
260.859	53
261.328	62.35
261.797	95.75
262.266	81.4
262.735	42.2
263.204	20.95
263.673	24.9
264.142	15.05
264.611	14.2
265.08	22.35
265.549	17.2
266.018	21.9
266.487	21.6
266.955	21.1
267.424	23
267.893	26.25
268.362	23.8
268.83	20.85
269.299	23.45
269.768	25.05
270.236	34.35
270.705	34.05
271.174	39.3
271.642	38.05
272.111	49
272.579	76.85
273.048	118.05
273.516	155.55
273.985	154.2
274.453	120.45
274.922	65.55
275.39	39.45
275.858	37.75
276.327	31
276.795	35.05
277.263	36.6
277.731	51.85
278.2	105
278.668	141.6
279.136	105.75
279.604	66.15
280.072	39.45
280.54	32.3
281.008	39.4
281.477	33.1
281.945	41.05
282.413	33.95
282.881	35.4
283.348	39.6
283.816	40.5
284.284	44.45
284.752	39.6
285.22	41.05
285.688	46.2
286.156	89.55
286.623	226.95
287.091	443.6
287.559	227.95
288.026	87.6
288.494	51.8
288.962	38.1
289.429	43.2
289.897	33.4
290.364	35.35
290.832	35.25
291.3	39.05
291.767	40.15
292.234	41.85
292.702	41.25
293.169	38.95
293.637	54.1
294.104	44.85
294.571	45.8
295.039	43.95
295.506	44.3
295.973	42.9
296.44	40.7
296.908	51.75
297.375	57.35
297.842	57.95
298.309	46.55
298.776	45.85
299.243	45.35
299.71	50.15
300.177	46.55
300.644	48.05
301.111	58.05
301.578	48.45
302.045	46.05
302.512	43.4
302.979	51.9
303.446	52.45
303.913	56.8
304.379	60.15
304.846	65.95
305.313	75.45
305.78	88.2
306.246	111.25
306.713	118.1
307.18	105.65
307.646	112.3
308.113	90.2
308.579	75.8
309.046	74.85
309.512	75.1
309.979	70.95
310.445	62.05
310.912	64.5
311.378	66.25
311.845	63.05
312.311	56
312.777	58.6
313.244	63.7
313.71	67
314.176	75.7
314.642	90.8
315.109	96.8
315.575	96.75
316.041	85.3
316.507	81.6
316.973	92.35
317.439	90.6
317.905	102.75
318.371	93.4
318.837	95.6
319.303	96.55
319.769	91.9
320.235	98.55
320.701	116.6
321.167	128.25
321.633	152.2
322.099	213.5
322.564	290.7
323.03	223.05
323.496	149.5
323.962	146.15
324.427	138
324.893	119.2
325.359	112.6
325.824	93.35
326.29	106.6
326.755	95.5
327.221	98.55
327.686	107.1
328.152	93.45
328.617	93.2
329.083	98.8
329.548	103.3
330.014	99.95
330.479	115.8
330.944	131
331.41	158.2
331.875	146.8
332.34	154.35
332.805	183
333.271	232.6
333.736	312.3
334.201	267.1
334.666	210.25
335.131	227.85
335.596	183.1
336.061	193.15
336.526	197.45
336.991	164.1
337.456	181.4
337.921	145.2
338.386	108.45
338.851	100.45
339.316	96.2
339.781	95.45
340.246	91.1
340.711	91.15
341.175	94.95
341.64	97.55
342.105	99.15
342.569	108.55
343.034	112.35
343.499	118.9
343.963	114.75
344.428	114
344.893	112.45
345.357	118
345.822	112.65
346.286	117.05
346.751	120.3
347.215	120.75
347.679	124.8
348.144	137.4
348.608	130
349.073	136.85
349.537	156.3
350.001	147.7
350.465	141
350.93	128.2
351.394	135.7
351.858	134
352.322	138.8
352.786	139.95
353.25	135.55
353.715	137.95
354.179	144.7
354.643	154.8
355.107	151
355.571	163.6
356.035	170.75
356.498	163.1
356.962	174.9
357.426	171.1
357.89	157.2
358.354	140.9
358.818	147
359.281	143.4
359.745	156.5
360.209	151.1
360.673	154.2
361.136	159
361.6	153.2
362.064	167.75
362.527	166.45
362.991	173.75
363.454	172.3
363.918	176.45
364.381	167.8
364.845	160.55
365.308	163.45
365.772	164.55
366.235	165.55
366.698	180.25
367.162	217.7
367.625	238.75
368.088	197.25
368.552	168.5
369.015	172.2
369.478	191.35
369.941	190.7
370.404	200.3
370.867	208.5
371.331	218.35
371.794	218.45
372.257	237.5
372.72	257.4
373.183	246.4
373.646	250.95
374.109	248.3
374.572	291.6
375.035	344.55
375.497	252.9
375.96	203
376.423	193
376.886	187.35
377.349	194.65
377.811	201.6
378.274	203.15
378.737	205.1
379.199	205.1
379.662	216.15
380.125	233.9
380.587	254.9
381.05	272.3
381.512	270.7
381.975	264.55
382.437	258.8
382.9	261.45
383.362	254.6
383.825	277.35
384.287	354.8
384.75	397.85
385.212	355.7
385.674	284.4
386.136	259.15
386.599	256
387.061	275
387.523	280.8
387.985	286.2
388.447	293
388.91	336
389.372	410.85
389.834	378.8
390.296	306.6
390.758	313.25
391.22	324.35
391.682	391.35
392.144	608.5
392.606	567.8
393.068	343.7
393.529	301.75
393.991	292.35
394.453	285.6
394.915	303.95
395.377	371.3
395.838	458.9
396.3	325.4
396.762	247.85
397.224	237.65
397.685	230.6
398.147	230.8
398.608	237.75
399.07	235.25
399.531	233.45
399.993	246.1
400.454	245
400.916	241.2
401.377	243.1
401.839	253.95
402.3	241.6
402.762	264
403.223	286.75
403.684	295.4
404.145	270.8
404.607	266.05
405.068	265.55
405.529	271.9
405.99	281.75
406.451	284.85
406.913	275.2
407.374	278.15
407.835	285.3
408.296	290.6
408.757	292.55
409.218	303.45
409.679	301.85
410.14	310.8
410.601	319.75
411.062	337.2
411.522	391.45
411.983	429.35
412.444	364.4
412.905	315.55
413.366	313.55
413.826	312.4
414.287	361.45
414.748	423.25
415.208	432.2
415.669	369.75
416.13	335.3
416.59	323.2
417.051	339.2
417.511	352.7
417.972	380.25
418.432	405.75
418.893	443.95
419.353	426.35
419.814	331.85
420.274	294.5
420.734	297.1
421.195	316.7
421.655	326.95
422.115	324.65
422.576	312.45
423.036	301.15
423.496	325.1
423.956	340.7
424.416	364.3
424.876	408.2
425.336	410.05
425.797	409.15
426.257	409.15
426.717	381
427.177	366.4
427.637	379.9
428.097	399.35
428.556	423.95
429.016	454.65
429.476	459.55
429.936	445.55
430.396	427.05
430.856	438.7
431.315	446.55
431.775	473.65
432.235	499.65
432.694	517.3
433.154	483.3
433.614	462.25
434.073	450.8
434.533	408.25
434.993	394.1
435.452	394.55
435.912	385.2
436.371	385.55
436.83	380.8
437.29	388.4
437.749	365.5
438.209	368.35
438.668	362.1
439.127	364
439.587	356.75
440.046	338.95
440.505	345.4
440.964	344.75
441.424	357.55
441.883	364.05
442.342	348.2
442.801	325.7
443.26	346.45
443.719	337
444.178	335.85
444.637	337.55
445.096	335.2
445.555	340.2
446.014	339.45
446.473	334.85
446.932	334.05
447.391	340.4
447.849	339.4
448.308	337.05
448.767	352.55
449.226	362
449.685	365.75
450.143	376.4
450.602	382.6
451.061	361.85
451.519	372.5
451.978	379.4
452.436	394.3
452.895	375.85
453.353	356.65
453.812	365.4
454.27	352.25
454.729	355.4
455.187	348.3
455.646	350.85
456.104	354.1
456.562	353.8
457.021	349
457.479	330.7
457.937	344.95
458.395	355.85
458.854	354.45
459.312	338.45
459.77	348.95
460.228	360.15
460.686	354.85
461.144	363.45
461.602	354.85
462.06	358.35
462.518	360.25
462.976	360.4
463.434	367.45
463.892	368.65
464.35	379.95
464.808	381
465.266	387.85
465.724	392.1
466.181	392.6
466.639	387
467.097	413.6
467.555	421.05
468.012	419.5
468.47	413.2
468.928	436.05
469.385	451.45
469.843	452
470.3	453.1
470.758	464.4
471.215	479.8
471.673	480.55
472.13	496.95
472.588	503.75
473.045	500.35
473.503	518.85
473.96	539.05
474.417	553.35
474.875	574.25
475.332	592.05
475.789	604.8
476.246	621
476.704	649
477.161	672.15
477.618	703.5
478.075	735.5
478.532	804.2
478.989	873.9
479.446	967.75
479.903	1041.25
480.36	1141.55
480.817	1233.15
481.274	1328.35
481.731	1458.85
482.188	1572.85
482.645	1702.7
483.102	1812.95
483.558	1941.05
484.015	2038.8
484.472	2037.6
484.929	1971.75
485.385	1868.85
485.842	1832.55
486.299	1721.75
486.755	1536.75
487.212	1362.25
487.668	1220.8
488.125	1119.75
488.582	1024.3
489.038	979.4
489.494	941.1
489.951	907.95
490.407	868
490.864	862.7
491.32	842.3
491.776	828.25
492.233	827
492.689	817.4
493.145	797.95
493.602	791.95
494.058	808.3
494.514	822.05
494.97	818.65
495.426	822.2
495.882	839
496.338	838.65
496.794	869.5
497.251	884.3
497.707	875.4
498.163	886.8
498.618	878.4
499.074	891.3
499.53	903.9
499.986	926.6
500.442	922.9
500.898	931.9
501.354	949.9
501.809	949.95
502.265	969.15
502.721	1010.65
503.177	1041.25
503.632	984.25
504.088	987
504.543	1087.55
504.999	997.75
505.455	889.45
505.91	832.2
506.366	830.35
506.821	830.7
507.277	818.25
507.732	822.5
508.187	815.4
508.643	834.6
509.098	827.95
509.553	841.5
510.009	855.6
510.464	866.8
510.919	864.95
511.375	879.1
511.83	892.7
512.285	920.35
512.74	932.45
513.195	935.4
513.65	962.05
514.105	977.7
514.56	976.05
515.015	992.9
515.47	1005.95
515.925	994.7
516.38	1000.4
516.835	994.25
517.29	984.4
517.745	1000.75
518.2	981.75
518.655	955.45
519.109	941.75
519.564	935.3
520.019	930
520.474	913.6
520.928	912
521.383	906.25
521.838	906.9
522.292	885.45
522.747	877.25
523.201	880.4
523.656	870.25
524.11	860.15
524.565	863.55
525.019	868.75
525.474	867.2
525.928	869.65
526.382	855.7
526.837	862
527.291	856
527.745	848.75
528.2	846.05
528.654	844.7
529.108	856.45
529.562	842.55
530.016	845.9
530.47	853.6
530.925	854.2
531.379	852.25
531.833	863.5
532.287	862.55
532.741	844.95
533.195	850.85
533.649	858.05
534.103	851.25
534.556	845.05
535.01	854.5
535.464	847
535.918	852.8
536.372	862.35
536.826	849.35
537.279	858.9
537.733	840.45
538.187	852.7
538.64	846.6
539.094	853.7
539.548	870.2
540.001	870.85
540.455	873.15
540.908	878.3
541.362	886.45
541.815	894.55
542.269	918.65
542.722	908.35
543.175	919.4
543.629	930
544.082	934
544.536	947.55
544.989	937.85
545.442	957.65
545.895	943.85
546.349	946.3
546.802	951.2
547.255	953.75
547.708	951.25
548.161	955.7
548.614	961.95
549.067	960.7
549.52	960.1
549.973	942.2
550.426	947.3
550.879	939.2
551.332	938.05
551.785	942.65
552.238	948.2
552.691	948.95
553.144	960.6
553.596	988
554.049	983.9
554.502	1012.3
554.955	1022.55
555.407	1036.6
555.86	1025.2
556.313	1016.2
556.765	1003.65
557.218	986.35
557.67	1002.8
558.123	982.85
558.576	983.5
559.028	962.7
559.48	990.05
559.933	986.25
560.385	952.6
560.838	920.25
561.29	897.35
561.742	901.65
562.195	874.85
562.647	869.85
563.099	877.9
563.551	869.55
564.004	874.3
564.456	862.85
564.908	854.4
565.36	826.55
565.812	822.6
566.264	812.15
566.716	799.85
567.168	792.15
567.62	787
568.072	784.8
568.524	778.4
568.976	775.75
569.428	768.95
569.88	764.45
570.332	763.6
570.784	773.7
571.235	757.4
571.687	766.9
572.139	766.8
572.59	771.25
573.042	784
573.494	783.45
573.945	765.95
574.397	751.45
574.849	743.4
575.3	758.9
575.752	740.6
576.203	747.45
576.655	736.35
577.106	732
577.557	727.75
578.009	721.85
578.46	727.05
578.912	720.3
579.363	728.35
579.814	718.3
580.265	724.3
580.717	725.75
581.168	722.55
581.619	719.4
582.07	735.8
582.521	736
582.972	728.7
583.423	737.65
583.875	761.1
584.326	790.15
584.777	871.3
585.227	971.65
585.678	1037.15
586.129	1054.3
586.58	1079.05
587.031	1076.5
587.482	1155.8
587.933	1335.7
588.384	1245.95
588.834	1006.75
589.285	846
589.736	828.2
590.186	836.85
590.637	823.5
591.088	798.8
591.538	795.1
591.989	779.55
592.439	779.75
592.89	773.6
593.34	782.75
593.791	790
594.241	788.15
594.692	801
595.142	793.05
595.593	781.3
596.043	779.5
596.493	786.75
596.943	807.3
597.394	796.7
597.844	788.55
598.294	799.25
598.744	812.65
599.195	855.5
599.645	905.45
600.095	947.8
600.545	989.05
600.995	1027
601.445	1067.25
601.895	1116.9
602.345	1146.4
602.795	1126.35
603.245	1077.3
603.695	1020.45
604.145	953.65
604.594	926.4
605.044	872.9
605.494	823.1
605.944	785.05
606.393	768.25
606.843	762.5
607.293	761.1
607.743	757.55
608.192	763.4
608.642	776.45
609.091	770.5
609.541	762.7
609.99	764.3
610.44	747.75
610.889	745.5
611.339	735.6
611.788	740.35
612.238	743
612.687	759.35
613.136	765
613.586	775.1
614.035	776.75
614.484	786.25
614.933	796.1
615.383	774.2
615.832	749.45
616.281	727.25
616.73	702.75
617.179	689.85
617.628	676.4
618.077	669.3
618.526	653.4
618.975	653.6
619.424	640.35
619.873	642.3
620.322	627.25
620.771	633.3
621.22	625.95
621.669	613.35
622.118	605.65
622.567	601.85
623.015	595.95
623.464	600.15
623.913	590.6
624.361	585.2
624.81	576.6
625.259	575.1
625.707	573.35
626.156	578.5
626.604	577.4
627.053	591.25
627.501	576.5
627.95	588.15
628.398	586.5
628.847	586.45
629.295	589.45
629.744	597.8
630.192	614.25
630.64	672.15
631.089	755.55
631.537	788.8
631.985	792.35
632.433	830.3
632.881	821.3
633.33	983.35
633.778	1078.5
634.226	761.25
634.674	685.9
635.122	684.3
635.57	690.6
636.018	810.65
636.466	654.35
636.914	579.05
637.362	574.4
637.81	580.6
638.258	597.95
638.705	599.8
639.153	617.15
639.601	625.75
640.049	633.1
640.497	649.65
640.944	665.65
641.392	640.45
641.84	600.95
642.287	583.4
642.735	579
643.182	572.75
643.63	575.1
644.078	579.85
644.525	585.95
644.973	608.75
645.42	617.75
645.867	624.4
646.315	644.65
646.762	658.65
647.21	687.85
647.657	726.2
648.104	768.75
648.551	790.9
648.999	871.5
649.446	965.25
649.893	1095.4
650.34	1305.5
650.787	1637.8
651.234	2155.65
651.682	3020.35
652.129	4422.8
652.576	6413.65
653.023	8613
653.47	10033.55
653.917	10782.55
654.363	11154.3
654.81	11766.35
655.257	11825.6
655.704	8037.6
656.151	4669.8
656.598	2993.95
657.044	2117.7
657.491	1645.5
657.938	1318.45
658.385	1103.8
658.831	967.75
659.278	859.1
659.724	777.3
660.171	721.9
660.618	657.9
661.064	617.15
661.511	594.9
661.957	574.85
662.404	562.55
662.85	556.6
663.296	542.45
663.743	528.5
664.189	519.25
664.635	513
665.082	504.65
665.528	502.35
665.974	484.25
666.42	487.15
666.867	498.05
667.313	498.65
667.759	529.5
668.205	528.1
668.651	537.6
669.097	512.1
669.543	567.45
669.989	530.7
670.435	464.9
670.881	446.8
671.327	470.3
671.773	496.65
672.219	534.5
672.665	562.9
673.11	575.2
673.556	592.4
674.002	596.75
674.448	601.05
674.893	517.9
675.339	449
675.785	418.05
676.23	398.3
676.676	388.4
677.122	373.5
677.567	373.9
678.013	348.25
678.458	351.85
678.904	351.65
679.349	342.7
679.794	347.65
680.24	342.15
680.685	340.3
681.131	342
681.576	344.05
682.021	343.35
682.466	353.25
682.912	349.25
683.357	364.3
683.802	395.85
684.247	433.35
684.692	466.3
685.137	474.45
685.583	485.15
686.028	504.25
686.473	482.1
686.918	416.7
687.363	379.45
687.807	368.1
688.252	352.3
688.697	348.7
689.142	322.95
689.587	331.4
690.032	341
690.477	347.3
690.921	367.45
691.366	384.15
691.811	401.55
692.255	433
692.7	527.35
693.145	758.4
693.589	1129.05
694.034	1331.95
694.478	1403.1
694.923	1265.7
695.367	1732.6
695.812	1104.7
696.256	487.25
696.701	361.8
697.145	331.35
697.59	326.45
698.034	315.8
698.478	319.45
698.922	323.45
699.367	327.5
699.811	346
700.255	377.35
700.699	413.45
701.143	433.5
701.588	457.75
702.032	474.1
702.476	487.85
702.92	523.2
703.364	690.05
703.808	1042.6
704.252	1277.4
704.696	1333.7
705.14	1244.95
705.584	1650.55
706.027	969.55
706.471	500.05
706.915	374.2
707.359	340.8
707.803	319.05
708.246	304.1
708.69	307.8
709.134	294.75
709.577	296.3
710.021	302.15
710.465	302.9
710.908	301.95
711.352	312.45
711.795	348.35
712.239	372.2
712.682	380.65
713.126	378.85
713.569	415.3
714.012	349.05
714.456	301.05
714.899	292.55
715.342	268.4
715.786	266.95
716.229	249.9
716.672	244.8
717.115	245.35
717.558	253.9
718.002	254.5
718.445	263.85
718.888	283.35
719.331	285.45
719.774	295.6
720.217	282.45
720.66	266.85
721.103	252.4
721.546	240.6
721.989	237.6
722.432	235.85
722.874	236.65
723.317	235.35
723.76	265.05
724.203	319.4
724.645	422.95
725.088	483.75
725.531	470.35
725.974	507.7
726.416	461.6
726.859	295.15
727.301	239.6
727.744	232.75
728.187	230.35
728.629	239.9
729.071	251.65
729.514	256.7
729.956	264.75
730.399	267.75
730.841	270.2
731.283	256.95
731.726	247.45
732.168	255.9
732.61	273.45
733.053	293.45
733.495	320.05
733.937	363.05
734.379	422.35
734.821	547.7
735.263	865.35
735.705	1508.55
736.148	2155.9
736.59	2116.95
737.032	2241.2
737.474	1868.85
737.916	770.9
738.357	405.2
738.799	319.85
739.241	293.3
739.683	290.65
740.125	295.35
740.567	290.15
741.008	310.05
741.45	321.8
741.892	339.8
742.334	333.1
742.775	329.85
743.217	314.2
743.658	277.65
744.1	272.85
744.542	306.15
744.983	318.9
745.425	328.95
745.866	333.15
746.307	295.7
746.749	327.45
747.19	464.3
747.632	904.5
748.073	1634.9
748.514	2191.3
748.956	2900.25
749.397	3348.4
749.838	2329.95
750.279	2170.55
750.72	1183.55
751.162	510.55
751.603	297.05
752.044	237.6
752.485	214.9
752.926	201.25
753.367	186.45
753.808	186.55
754.249	182.05
754.69	186.6
755.131	181.15
755.572	177.1
756.013	181.35
756.453	173.1
756.894	185.5
757.335	181.7
757.776	186.85
758.216	187.1
758.657	205.25
759.098	221.9
759.538	276.2
759.979	399.5
760.42	809.85
760.86	1982
761.301	4015.15
761.741	4591.05
762.182	5174.7
762.622	3380.55
763.063	1306.9
763.503	588.55
763.943	465.9
764.384	507.4
764.824	485
765.264	486.5
765.705	345.7
766.145	237.5
766.585	213.7
767.025	222.45
767.465	302
767.906	371.55
768.346	384.55
768.786	400.55
769.226	401.4
769.666	659.25
770.106	1388.4
770.546	1879.5
770.986	2067.95
771.426	1586.5
771.866	706.8
772.306	324.3
772.745	211.1
773.185	178.25
773.625	189.65
774.065	218.85
774.505	380.6
774.944	744.15
775.384	1092.15
775.824	1217.5
776.263	995.1
776.703	507.15
777.142	251.2
777.582	172.8
778.021	156.05
778.461	142.95
778.9	146.85
779.34	129.1
779.779	121.6
780.219	114.85
780.658	114.25
781.097	113.3
781.537	109.45
781.976	112.25
782.415	110.35
782.855	111.2
783.294	106.15
783.733	108.1
784.172	109.4
784.611	110.15
785.05	109.6
785.489	117.4
785.928	113.4
786.367	117.65
786.806	125.55
787.245	134.5
787.684	140.8
788.123	137.2
788.562	135.1
789.001	129
789.44	120
789.879	127.75
790.317	124
790.756	133.7
791.195	154.15
791.634	207.5
792.072	372.9
792.511	900.95
792.95	1563.35
793.388	1843.8
793.827	1220.9
794.265	582.25
794.704	283
795.142	172.55
795.581	146.05
796.019	126.05
796.458	129.6
796.896	135.8
797.334	156.75
797.773	207.15
798.211	395.85
798.649	812
799.087	1311.15
799.526	1822.05
799.964	1840.8
800.402	1278.2
800.84	606.1
801.278	300.65
801.716	185.1
802.154	147.75
802.592	140.95
803.03	136.6
803.468	147.1
803.906	145.4
804.344	146.8
804.782	138.65
805.22	143.3
805.658	144.85
806.096	154
806.533	173.85
806.971	216.4
807.409	322.5
807.847	641.35
808.284	1570.75
808.722	2664.25
809.16	3734.9
809.597	5153.75
810.035	6183.75
810.472	3970.45
810.91	1773.8
811.347	809.4
811.785	378.9
812.222	240.2
812.66	187.4
813.097	157.65
813.535	141.4
813.972	121.1
814.409	117.85
814.846	110.55
815.284	106.25
815.721	109.6
816.158	115.85
816.595	143.7
817.032	172.15
817.47	158.05
817.907	124.15
818.344	111.5
818.781	106.5
819.218	124.15
819.655	177.05
820.092	222.2
820.529	207.2
820.966	172.4
821.403	133.55
821.839	115.75
822.276	118.3
822.713	134.7
823.15	133.85
823.587	147.65
824.023	268
824.46	656.65
824.897	1104.2
825.333	849.15
825.77	404.3
826.206	213.8
826.643	128.2
827.08	97.15
827.516	81.5
827.953	83.6
828.389	77.85
828.825	72.7
829.262	70.1
829.698	64.2
830.135	57.6
830.571	60.4
831.007	65
831.443	61.1
831.88	68.25
832.316	71.05
832.752	66.3
833.188	66
833.624	64.5
834.06	71.7
834.497	65.95
834.933	71.55
835.369	79.9
835.805	86.6
836.241	87.6
836.677	89.25
837.112	108.15
837.548	127.95
837.984	195.85
838.42	423.5
838.856	1137.25
839.292	2126.8
839.727	1578.7
840.163	1125.3
840.599	1668.9
841.034	2451.35
841.47	1274.75
841.906	647.15
842.341	366.05
842.777	330.65
843.212	391.95
843.648	224.7
844.083	144
844.519	97.2
844.954	79
845.39	62.75
845.825	62.4
846.261	61.45
846.696	61.65
847.131	57.35
847.566	52.1
848.002	62.7
848.437	66.45
848.872	64.2
849.307	84.95
849.742	152.65
850.177	376.15
850.613	775.45
851.048	556.25
851.483	263.2
851.918	148.75
852.353	84.15
852.788	66.05
853.223	63.05
853.657	52
854.092	47.15
854.527	48
854.962	47.1
855.397	53
855.832	45.35
856.266	35.65
856.701	41.6
857.136	43.05
857.57	52.55
858.005	50.85
858.44	48.85
858.874	45.75
859.309	46.3
859.743	51.4
860.178	41.8
860.612	52.5
861.047	65.6
861.481	84.55
861.915	58.3
862.35	47.1
862.784	41.25
863.218	39.95
863.653	44.4
864.087	44.2
864.521	73.1
864.955	107.35
865.39	182.75
865.824	132.3
866.258	149.4
866.692	214.8
867.126	150.95
867.56	91.95
867.994	56.15
868.428	56.55
868.862	60.25
869.296	58.55
869.73	67.45
870.164	57.4
870.598	54.4
871.031	38.05
871.465	36.5
871.899	32.2
872.333	30.5
872.766	31.25
873.2	34.4
873.634	32.3
874.067	34.35
874.501	31.65
874.935	24.7
875.368	33.95
875.802	27.15
876.235	28.85
876.669	28.7
877.102	23.3
877.535	21.1
877.969	18.5
878.402	28.05
878.836	20.35
879.269	27.2
879.702	22.75
880.135	26.95
880.569	27.75
881.002	22.7
881.435	31.2
881.868	23.3
882.301	26.9
882.734	14.75
883.167	24.15
883.601	23
884.034	25.1
884.467	21.75
884.899	17.75
885.332	16.5
885.765	13.45
886.198	20.2
886.631	15.3
887.064	25.9
887.497	17
887.929	21.05
888.362	18.55
888.795	19.5
889.228	23.95
889.66	15.7
890.093	20.7
890.526	15.1
890.958	20.25
891.391	22.1
891.823	17.1
892.256	18.7
892.688	24.55
893.121	20.05
893.553	18.7
893.985	19.25
894.418	12.8
894.85	20.95
895.282	16.45
895.715	15.05
896.147	16.55
896.579	19.4
897.011	22.5
897.444	23.1
897.876	15.4
898.308	12.55
898.74	21.25
899.172	18.2
899.604	19.3
900.036	21.5
900.468	9.05
900.9	19.45
901.332	21.95
901.764	24.65
902.196	22.35
902.628	18.9
903.06	26.8
903.491	24.5
903.923	23.15
904.355	30.55
904.787	28.15
905.218	22.15
905.65	25.65
906.082	22.5
906.513	20.4
906.945	24.6
907.376	21.3
907.808	24.35
908.239	26.4
908.671	30.65
909.102	26.8
909.534	37.1
909.965	70.4
910.397	188.35
910.828	514.55
911.259	313.1
911.691	175.5
912.122	98
912.553	48.8
912.984	30.05
913.415	25.2
913.847	21.6
914.278	20.95
914.709	20.15
915.14	12.8
915.571	21.55
916.002	11.75
916.433	20.5
916.864	16
917.295	17.15
917.726	18.65
918.157	26
918.587	21.75
919.018	24.25
919.449	24.75
919.88	21.3
920.311	42.5
920.741	115
921.172	193.2
921.603	95.2
922.033	60.55
922.464	37.65
922.895	26.5
923.325	17.4
923.756	16.7
924.186	28.8
924.617	42.95
925.047	74.1
925.478	65.9
925.908	45.35
926.338	31
926.769	21
927.199	21.6
927.629	16
928.06	21.8
928.49	15.8
928.92	15.15
929.35	16.85
929.78	10.85
930.21	8.35
930.641	7.4
931.071	13.15
931.501	11.4
931.931	6.7
932.361	9.45
932.791	12.3
933.221	13.65
933.651	15.25
934.08	27.2
934.51	9.25
934.94	13.6
935.37	8.95
935.8	10.05
936.229	7.85
936.659	5.65
937.089	12.05
937.519	14.3
937.948	25.75
938.378	13.9
938.807	11.3
939.237	4.95
939.666	9.8
940.096	5.95
940.525	0.8
940.955	6.5
941.384	6.1
941.814	3.95
942.243	3
942.672	4.2
943.102	0.4
943.531	3.5
943.96	1.1
944.39	6.55
944.819	5.7
945.248	1.35
945.677	2.1
946.106	1.9
946.535	6.2
946.964	1.9
947.393	2.8
947.822	1.8
948.251	3.3
948.68	8.7
949.109	1.95
949.538	2.7
949.967	0.95
950.396	6.35
950.825	4.6
951.254	-1.3
951.682	-2.05
952.111	-0.7
952.54	6.6
952.969	2.1
953.397	3.45
953.826	0.65
954.254	7.1
954.683	-1.25
955.112	4.45
955.54	2.65
955.969	-1.45
956.397	7.1
956.826	-0.85
957.254	4.05
957.682	-4.15
958.111	4.6
958.539	5.9
958.967	6.35
959.396	6.25
959.824	1
960.252	5.45
960.68	1.45
961.109	8.85
961.537	7.55
961.965	-1.95
962.393	1.4
962.821	0.75
963.249	4.2
963.677	3.05
964.105	32.85
964.533	54.7
964.961	25.6
965.389	9.15
965.817	6.3
966.245	3.25
966.672	2.3
967.1	4.4
967.528	-3.8
967.956	-2.4
968.383	1.35
968.811	2
969.239	-0.3
969.666	0
970.094	2
970.522	2
970.949	7.95
971.377	-5.4
971.804	2.2
972.232	-4.45
972.659	1.6
973.087	2.75
973.514	2.25
973.941	-2.65
974.369	-2.6
974.796	2.2
975.223	-3.95
975.651	4.95
976.078	-0.85
976.505	8.15
976.932	10.9
977.359	17.15
977.786	11
978.214	6.1
978.641	-3.8
979.068	-1
979.495	1.55
979.922	2.65
980.349	5.05
980.776	0.95
981.202	0.3
981.629	1.85
982.056	0.4
982.483	-2.1
982.91	2.15
983.337	-2.25
983.763	3.7
984.19	6.85
984.617	-0.65
985.043	1.5
985.47	5.8
985.897	2.65
986.323	8.9
986.75	2.35
987.176	1.55
987.603	1.2
988.029	5.1
988.456	7.6
988.882	0.85
989.308	0.15
989.735	-4.05
990.161	4.95
990.587	-0.65
991.014	2.95
991.44	4.65
991.866	4.15
992.292	-2.7
992.719	-2.75
993.145	0.3
993.571	-0.15
993.997	6
994.423	1.7
994.849	-2.75
995.275	3.75
995.701	1.5
996.127	-3.6
996.553	-0.9
996.979	1.15
997.405	2.5
997.83	-0.35
998.256	2.45
998.682	2.4
999.108	0.8
999.534	-4.9
999.959	0.4
1000.385	2.45
1000.811	-3.2
1001.236	-7.2
1001.662	2.5
1002.087	0.95
1002.513	1.1
1002.938	-4.85
1003.364	1.25
1003.789	0.05
1004.215	-0.85
1004.64	3.6
1005.066	1.2
1005.491	8.3
1005.916	2.45
1006.342	4.7
1006.767	1.65
1007.192	0.05
1007.617	3.9
1008.042	-3.7
1008.468	3.85
1008.893	0.65
1009.318	3
1009.743	1.45
1010.168	10.3
1010.593	8.2
1011.018	5
1011.443	4.3
1011.868	2.9
1012.293	1.55
1012.718	2.4
1013.143	2.35
1013.567	-1.9
1013.992	1.65
1014.417	-1.65
1014.842	-0.25
1015.267	-1.95
1015.691	0.05
1016.116	4.6
1016.541	2.85
1016.965	5.7
1017.39	-0.3
1017.814	-2.1
1018.239	0.8
1018.663	-5.8
1019.088	-0.65
1019.512	4.25
1019.937	2.8
1020.361	-0.7
1020.785	-1
1021.21	-6.75
1021.634	-0.65
1022.058	1.4
1022.483	-6.25
1022.907	2.5
1023.331	-4.6
1023.755	-0.75
1024.179	-1.7
1024.604	-2.2
1025.028	-2.4
1025.452	5.2
1025.876	1.2
1026.3	-0.55
1026.724	-0.15
1027.148	1.75
1027.572	-1.25
1027.996	-1.8
1028.42	-3.25
1028.843	-2.85
1029.267	-6.5
1029.691	4.85
1030.115	-0.05
1030.539	1.75
1030.962	-5.5
1031.386	-0.25
1031.81	-4.65
1032.233	-1
1032.657	-7.6
1033.08	-0.8
1033.504	-2.05
1033.927	-4.15
1034.351	-0.55
1034.774	-5.4
1035.198	-5.05
1035.621	1
1036.045	-0.65
1036.468	10.8
1036.891	0.2
1037.315	3
1037.738	-0.2
1038.161	2
1038.584	-9.05
1039.008	-1.15
1039.431	-1.45
1039.854	-2
1040.277	2.25
1040.7	-4.4
1041.123	-1.2
1041.546	-3.65
1041.969	4.75
1042.392	4.1
1042.815	-5.55
1043.238	-3.55
1043.661	-4.65
1044.084	-1.85
1044.507	-0.05
1044.93	3.25
1045.352	-2.65
1045.775	1.1
1046.198	4
1046.621	9.5
1047.043	-2.95
1047.466	-0.5
1047.889	-1.75
1048.311	-0.35
1048.734	0.35
1049.156	-4.15
1049.579	-0.75
1050.001	-6.75
1050.424	0.55
1050.846	-6.75
1051.269	-2.85
1051.691	-0.65
1052.113	-3.1
1052.536	-1.95
1052.958	-6.8
1053.38	2.05
1053.802	-1.05
1054.225	-0.25
1054.647	3.6
1055.069	-3.35
1055.491	0.95
1055.913	-3.25
1056.335	-3.5
1056.757	-5.8
1057.179	1.7
1057.601	0.2
1058.023	2.75
1058.445	-4.05
1058.867	-1.4
1059.289	3.65
1059.711	-4.5
1060.133	0.95
1060.555	-2.45
1060.976	3.2
1061.398	-3.75
1061.82	-2.1
1062.241	1.6
1062.663	-1.25
1063.085	-4.9
1063.506	-9.1
1063.928	-0.35
1064.35	-1.8
1064.771	0.55
1065.193	-4.35
1065.614	-3.1
1066.035	4.7
1066.457	5.45
1066.878	0.6
1067.3	-4.65
1067.721	2.6
1068.142	2
1068.564	0.65
1068.985	-1.05
1069.406	-7.9
1069.827	-0.05
1070.248	-8.1
1070.67	-1.85
1071.091	-6.1
1071.512	0.1
1071.933	-5.4
1072.354	-9.5
1072.775	-5.4
1073.196	-0.7
1073.617	-4.35
1074.038	-6.55
1074.459	-1.9
1074.88	-4.8
1075.3	1.45
1075.721	-0.5
1076.142	-0.95
1076.563	-2.8
1076.983	4.05
1077.404	-3.6
1077.825	-0.85
1078.246	-0.5
1078.666	-6.4
1079.087	-0.5
1079.507	-1.8
1079.928	1.25
1080.348	-0.55
1080.769	1.55
1081.189	-1.35
1081.61	-7.8
1082.03	6.75
1082.451	0.55
1082.871	-5.2
1083.291	-4.5
1083.711	1.55
1084.132	-4.05
1084.552	-4.95
1084.972	0.85
1085.392	-9
1085.813	2
1086.233	-2.15
1086.653	1.7
1087.073	-1.2
1087.493	-0.8
1087.913	-3.45
1088.333	-2.95
1088.753	2.6
1089.173	-0.45
1089.593	3.25
1090.013	-3.9
1090.433	-2.15
1090.852	5.9
1091.272	-3.05
1091.692	2.25
1092.112	0
1092.531	-3.95
1092.951	-4.6
1093.371	-2.7
1093.79	-0.2
1094.21	-1.65
1094.63	3.05
1095.049	-1.6
1095.469	-2.9
1095.888	-0.6
1096.308	5.9
1096.727	-1.9
1097.146	0.95
1097.566	-1.45
1097.985	-2.55
1098.405	2.4
1098.824	-2.2
1099.243	-3.5
1099.662	-3.2
1100.082	-0.65
1100.501	-3.2
1100.92	3.7
1101.339	0.2
1101.758	3.6
