Data from MSPlasma+Separation6_Subt14_10-15-12-153.txt Node
Date: Fri Jul 21 10:15:12 EDT 2017
User: Ender
Spectrometer: HR+D1039
Trigger mode: 0
Integration Time (sec): 6.430000E-3
Scans to average: 20
Electric dark correction enabled: true
Nonlinearity correction enabled: false
Boxcar width: 0
XAxis mode: Wavelengths
Number of Pixels in Spectrum: 2048
>>>>>Begin Spectral Data<<<<<
187.836	0.68
188.309	0.68
188.782	0.68
189.255	1.58
189.728	0.28
190.201	-1.07
190.674	0.13
191.147	-1.97
191.619	-2.87
192.092	0.63
192.565	-2.12
193.038	3.73
193.511	0.63
193.984	0.98
194.456	-0.72
194.929	-1.72
195.402	1.03
195.874	0.83
196.347	1.58
196.82	0.28
197.292	-3.42
197.765	-3.27
198.237	-3.87
198.71	-3.82
199.182	-0.02
199.655	1.98
200.127	-0.62
200.6	-1.97
201.072	1.58
201.544	0.83
202.017	7.63
202.489	0.53
202.961	1.13
203.433	-3.17
203.906	1.88
204.378	4.18
204.85	0.88
205.322	0.53
205.794	4.08
206.266	2.08
206.739	0.83
207.211	1.38
207.683	-0.32
208.155	1.83
208.627	2.98
209.099	4.58
209.57	6.53
210.042	4.23
210.514	6.43
210.986	13.53
211.458	20.83
211.93	12.78
212.402	4.18
212.873	1.28
213.345	-3.02
213.817	5.83
214.288	-2.62
214.76	2.68
215.232	-0.32
215.703	3.33
216.175	3.68
216.646	5.13
217.118	4.78
217.589	-3.57
218.061	4.63
218.532	0.38
219.004	6.13
219.475	11.88
219.946	28.88
220.418	35.33
220.889	26.43
221.36	12.98
221.832	10.08
222.303	4.13
222.774	1.78
223.245	1.73
223.717	3.68
224.188	6.83
224.659	8.83
225.13	5.03
225.601	5.38
226.072	5.18
226.543	12.93
227.014	3.43
227.485	11.43
227.956	11.43
228.427	16.03
228.898	13.48
229.369	10.53
229.839	13.38
230.31	16.58
230.781	16.28
231.252	15.68
231.722	29.98
232.193	31.58
232.664	40.13
233.135	57.33
233.605	60.08
234.076	48.53
234.546	36.63
235.017	51.18
235.487	39.53
235.958	47.43
236.428	57.58
236.899	106.38
237.369	114.28
237.84	84.53
238.31	109.03
238.78	106.88
239.251	106.38
239.721	105.48
240.191	84.63
240.662	52.53
241.132	36.53
241.602	48.93
242.072	71.73
242.542	82.38
243.013	58.58
243.483	55.58
243.953	43.48
244.423	43.48
244.893	51.08
245.363	57.13
245.833	54.33
246.303	58.88
246.773	77.08
247.243	82.83
247.712	92.03
248.182	102.93
248.652	111.38
249.122	160.78
249.592	306.63
250.061	469.13
250.531	749.13
251.001	575.03
251.471	477.88
251.94	356.28
252.41	192.98
252.879	133.53
253.349	102.33
253.818	86.68
254.288	76.28
254.757	76.38
255.227	98.38
255.696	80.98
256.166	71.58
256.635	77.88
257.105	102.38
257.574	118.78
258.043	132.63
258.513	229.68
258.982	290.88
259.451	201.13
259.92	197.58
260.389	191.78
260.859	139.23
261.328	157.33
261.797	237.83
262.266	210.48
262.735	100.73
263.204	59.08
263.673	60.43
264.142	49.68
264.611	56.58
265.08	55.23
265.549	59.78
266.018	57.18
266.487	53.18
266.955	50.68
267.424	62.38
267.893	60.53
268.362	63.03
268.83	60.93
269.299	62.63
269.768	78.38
270.236	91.68
270.705	96.68
271.174	86.48
271.642	96.58
272.111	117.73
272.579	189.18
273.048	288.68
273.516	364.78
273.985	369.28
274.453	276.63
274.922	173.83
275.39	113.08
275.858	101.98
276.327	86.03
276.795	87.73
277.263	100.43
277.731	128.33
278.2	251.23
278.668	321.53
279.136	250.78
279.604	160.93
280.072	104.83
280.54	95.73
281.008	90.73
281.477	89.53
281.945	93.08
282.413	97.83
282.881	104.03
283.348	97.48
283.816	108.33
284.284	111.78
284.752	105.28
285.22	109.68
285.688	123.33
286.156	198.03
286.623	528.73
287.091	1036.23
287.559	534.23
288.026	206.28
288.494	131.68
288.962	111.58
289.429	105.28
289.897	97.93
290.364	99.13
290.832	98.18
291.3	101.93
291.767	99.23
292.234	109.33
292.702	110.18
293.169	116.23
293.637	124.48
294.104	119.63
294.571	118.18
295.039	115.43
295.506	113.28
295.973	116.73
296.44	119.13
296.908	124.63
297.375	143.78
297.842	142.23
298.309	122.03
298.776	122.63
299.243	124.48
299.71	128.53
300.177	119.08
300.644	135.28
301.111	145.88
301.578	138.13
302.045	126.63
302.512	128.23
302.979	131.98
303.446	133.98
303.913	146.38
304.379	151.98
304.846	166.13
305.313	181.28
305.78	215.13
306.246	257.43
306.713	275.48
307.18	242.83
307.646	264.03
308.113	232.18
308.579	183.23
309.046	182.48
309.512	185.43
309.979	166.08
310.445	159.43
310.912	165.08
311.378	164.93
311.845	163.23
312.311	160.43
312.777	157.88
313.244	163.93
313.71	174.28
314.176	194.78
314.642	212.43
315.109	251.88
315.575	238.08
316.041	211.08
316.507	200.98
316.973	222.83
317.439	216.33
317.905	248.23
318.371	237.48
318.837	221.08
319.303	238.73
319.769	223.78
320.235	241.43
320.701	284.88
321.167	303.53
321.633	360.98
322.099	495.03
322.564	663.73
323.03	521.33
323.496	363.78
323.962	349.48
324.427	324.13
324.893	282.23
325.359	274.08
325.824	238.38
326.29	256.23
326.755	261.38
327.221	255.23
327.686	265.93
328.152	242.58
328.617	230.73
329.083	235.68
329.548	242.93
330.014	251.28
330.479	275.08
330.944	321.68
331.41	371.18
331.875	354.78
332.34	365.63
332.805	419.38
333.271	533.13
333.736	706.63
334.201	641.43
334.666	476.38
335.131	539.58
335.596	427.88
336.061	455.18
336.526	454.98
336.991	399.73
337.456	435.33
337.921	342.23
338.386	280.63
338.851	257.73
339.316	238.13
339.781	238.78
340.246	238.33
340.711	239.43
341.175	243.68
341.64	247.98
342.105	253.03
342.569	268.53
343.034	281.68
343.499	299.78
343.963	284.73
344.428	279.83
344.893	292.08
345.357	296.88
345.822	291.78
346.286	290.48
346.751	303.13
347.215	294.33
347.679	307.73
348.144	329.68
348.608	324.88
349.073	337.78
349.537	376.48
350.001	370.93
350.465	342.58
350.93	336.33
351.394	338.78
351.858	333.53
352.322	347.13
352.786	355.43
353.25	344.28
353.715	346.43
354.179	367.63
354.643	386.03
355.107	396.73
355.571	407.73
356.035	414.18
356.498	400.33
356.962	431.68
357.426	425.48
357.89	385.08
358.354	367.18
358.818	364.88
359.281	373.73
359.745	386.73
360.209	382.33
360.673	388.88
361.136	391.18
361.6	394.23
362.064	410.08
362.527	425.78
362.991	422.63
363.454	421.68
363.918	427.58
364.381	423.13
364.845	411.53
365.308	403.98
365.772	412.18
366.235	412.18
366.698	431.73
367.162	525.48
367.625	581.98
368.088	470.58
368.552	427.28
369.015	436.98
369.478	459.53
369.941	468.48
370.404	480.18
370.867	511.68
371.331	520.03
371.794	523.48
372.257	578.83
372.72	611.98
373.183	586.73
373.646	584.23
374.109	590.43
374.572	683.33
375.035	798.43
375.497	617.08
375.96	501.93
376.423	474.38
376.886	474.28
377.349	486.83
377.811	489.58
378.274	499.83
378.737	499.68
379.199	510.23
379.662	530.03
380.125	567.08
380.587	618.28
381.05	657.93
381.512	653.08
381.975	640.88
382.437	633.53
382.9	624.98
383.362	627.78
383.825	674.68
384.287	839.23
384.75	935.68
385.212	822.43
385.674	681.83
386.136	628.33
386.599	622.13
387.061	643.83
387.523	668.63
387.985	669.83
388.447	702.23
388.91	773.78
389.372	933.53
389.834	877.03
390.296	731.33
390.758	743.03
391.22	766.68
391.682	934.68
392.144	1431.23
392.606	1332.43
393.068	800.78
393.529	737.73
393.991	722.43
394.453	698.63
394.915	733.28
395.377	883.13
395.838	1078.83
396.3	776.18
396.762	614.73
397.224	583.13
397.685	571.13
398.147	585.43
398.608	592.68
399.07	594.53
399.531	584.88
399.993	603.28
400.454	611.28
400.916	606.93
401.377	623.33
401.839	622.93
402.3	624.88
402.762	656.73
403.223	720.13
403.684	738.08
404.145	678.28
404.607	659.03
405.068	658.78
405.529	676.28
405.99	687.18
406.451	694.23
406.913	676.38
407.374	686.98
407.835	691.28
408.296	714.38
408.757	713.38
409.218	733.88
409.679	749.33
410.14	753.93
410.601	785.73
411.062	818.93
411.522	935.13
411.983	1039.08
412.444	891.38
412.905	782.58
413.366	791.58
413.826	818.03
414.287	915.23
414.748	1090.48
415.208	1112.93
415.669	920.18
416.13	847.68
416.59	822.98
417.051	855.08
417.511	894.23
417.972	961.13
418.432	1029.13
418.893	1151.33
419.353	1087.63
419.814	842.68
420.274	755.18
420.734	751.13
421.195	800.98
421.655	829.28
422.115	807.98
422.576	780.33
423.036	779.78
423.496	813.93
423.956	850.63
424.416	916.73
424.876	1024.13
425.336	1025.48
425.797	1018.13
426.257	1020.28
426.717	956.13
427.177	893.83
427.637	915.73
428.097	961.63
428.556	1010.98
429.016	1101.38
429.476	1076.48
429.936	1032.93
430.396	1019.88
430.856	1036.48
431.315	1064.98
431.775	1140.38
432.235	1198.38
432.694	1216.98
433.154	1146.38
433.614	1117.28
434.073	1074.03
434.533	978.43
434.993	932.38
435.452	966.88
435.912	942.98
436.371	934.98
436.83	937.18
437.29	942.53
437.749	902.73
438.209	890.73
438.668	906.03
439.127	914.18
439.587	894.03
440.046	860.08
440.505	870.33
440.964	878.13
441.424	901.78
441.883	917.38
442.342	872.13
442.801	846.13
443.26	860.03
443.719	853.28
444.178	844.13
444.637	854.93
445.096	854.28
445.555	875.33
446.014	875.68
446.473	841.63
446.932	852.18
447.391	859.38
447.849	878.53
448.308	867.13
448.767	891.73
449.226	910.78
449.685	911.78
450.143	959.03
450.602	955.73
451.061	910.78
451.519	930.03
451.978	949.53
452.436	980.93
452.895	936.43
453.353	912.48
453.812	920.13
454.27	911.33
454.729	877.43
455.187	894.38
455.646	890.13
456.104	911.43
456.562	891.38
457.021	891.53
457.479	856.48
457.937	887.73
458.395	907.28
458.854	894.78
459.312	874.53
459.77	891.58
460.228	909.88
460.686	921.23
461.144	922.63
461.602	904.53
462.06	905.33
462.518	923.43
462.976	927.58
463.434	946.88
463.892	943.53
464.35	965.93
464.808	983.98
465.266	991.13
465.724	1002.53
466.181	1006.83
466.639	1000.53
467.097	1048.08
467.555	1079.63
468.012	1068.88
468.47	1072.23
468.928	1115.93
469.385	1142.63
469.843	1158.98
470.3	1148.78
470.758	1178.98
471.215	1198.38
471.673	1232.33
472.13	1260.18
472.588	1288.48
473.045	1277.08
473.503	1310.43
473.96	1364.08
474.417	1383.63
474.875	1445.63
475.332	1501.53
475.789	1515.63
476.246	1561.88
476.704	1624.58
477.161	1669.08
477.618	1719.58
478.075	1813.43
478.532	1938.63
478.989	2077.68
479.446	2298.03
479.903	2422.93
480.36	2648.13
480.817	2804.43
481.274	3014.93
481.731	3295.53
482.188	3539.53
482.645	3841.13
483.102	4042.63
483.558	4358.23
484.015	4557.78
484.472	4573.98
484.929	4442.43
485.385	4245.63
485.842	4133.98
486.299	3913.03
486.755	3583.28
487.212	3194.38
487.668	2883.98
488.125	2675.68
488.582	2473.43
489.038	2387.93
489.494	2313.53
489.951	2242.43
490.407	2186.23
490.864	2156.28
491.32	2116.43
491.776	2077.23
492.233	2088.43
492.689	2062.33
493.145	2023.68
493.602	2017.33
494.058	2050.88
494.514	2090.13
494.97	2085.33
495.426	2115.73
495.882	2123.53
496.338	2115.63
496.794	2218.68
497.251	2215.78
497.707	2220.53
498.163	2225.73
498.618	2231.78
499.074	2236.18
499.53	2279.28
499.986	2314.83
500.442	2348.13
500.898	2345.68
501.354	2386.13
501.809	2389.18
502.265	2425.68
502.721	2548.83
503.177	2609.03
503.632	2486.33
504.088	2488.48
504.543	2715.53
504.999	2553.13
505.455	2274.33
505.91	2173.93
506.366	2135.48
506.821	2138.23
507.277	2120.73
507.732	2134.48
508.187	2120.78
508.643	2134.28
509.098	2150.38
509.553	2162.78
510.009	2209.38
510.464	2245.78
510.919	2265.33
511.375	2289.58
511.83	2315.23
512.285	2364.93
512.74	2420.98
513.195	2451.08
513.65	2487.93
514.105	2542.83
514.56	2544.03
515.015	2590.43
515.47	2630.58
515.925	2608.88
516.38	2602.98
516.835	2582.93
517.29	2588.28
517.745	2596.13
518.2	2555.83
518.655	2483.23
519.109	2440.83
519.564	2412.23
520.019	2401.13
520.474	2368.08
520.928	2356.33
521.383	2353.68
521.838	2336.93
522.292	2310.33
522.747	2287.48
523.201	2275.53
523.656	2258.88
524.11	2239.63
524.565	2235.63
525.019	2244.78
525.474	2258.83
525.928	2248.93
526.382	2237.48
526.837	2213.93
527.291	2220.28
527.745	2199.53
528.2	2206.23
528.654	2186.03
529.108	2187.53
529.562	2197.43
530.016	2185.98
530.47	2203.73
530.925	2196.53
531.379	2212.53
531.833	2237.13
532.287	2226.68
532.741	2204.53
533.195	2213.88
533.649	2220.03
534.103	2205.23
534.556	2189.58
535.01	2211.78
535.464	2199.58
535.918	2219.48
536.372	2231.28
536.826	2221.73
537.279	2193.88
537.733	2196.73
538.187	2207.63
538.64	2204.93
539.094	2231.78
539.548	2258.43
540.001	2254.88
540.455	2270.03
540.908	2276.98
541.362	2297.73
541.815	2320.08
542.269	2354.18
542.722	2346.83
543.175	2378.88
543.629	2399.48
544.082	2412.68
544.536	2435.38
544.989	2436.13
545.442	2455.93
545.895	2441.78
546.349	2455.68
546.802	2462.13
547.255	2459.18
547.708	2482.63
548.161	2502.93
548.614	2499.03
549.067	2500.08
549.52	2493.58
549.973	2462.08
550.426	2459.58
550.879	2428.08
551.332	2427.08
551.785	2447.83
552.238	2469.83
552.691	2469.83
553.144	2507.93
553.596	2547.98
554.049	2583.13
554.502	2635.23
554.955	2666.38
555.407	2722.78
555.86	2690.53
556.313	2668.43
556.765	2642.23
557.218	2607.43
557.67	2594.28
558.123	2575.58
558.576	2555.53
559.028	2547.13
559.48	2579.03
559.933	2563.08
560.385	2483.63
560.838	2409.33
561.29	2331.13
561.742	2322.08
562.195	2275.98
562.647	2259.18
563.099	2243.33
563.551	2246.13
564.004	2261.98
564.456	2245.68
564.908	2205.83
565.36	2154.13
565.812	2110.13
566.264	2088.68
566.716	2064.88
567.168	2037.33
567.62	2039.33
568.072	2021.58
568.524	2009.53
568.976	2000.03
569.428	1968.63
569.88	1959.93
570.332	1973.58
570.784	1975.13
571.235	1963.58
571.687	1992.68
572.139	1977.53
572.59	1999.63
573.042	2013.23
573.494	2013.63
573.945	1983.18
574.397	1941.18
574.849	1933.38
575.3	1944.63
575.752	1912.68
576.203	1895.28
576.655	1911.23
577.106	1878.13
577.557	1868.73
578.009	1863.63
578.46	1878.63
578.912	1852.88
579.363	1866.13
579.814	1851.48
580.265	1850.83
580.717	1865.63
581.168	1860.33
581.619	1875.18
582.07	1892.63
582.521	1893.53
582.972	1885.03
583.423	1893.93
583.875	1946.63
584.326	2028.78
584.777	2209.78
585.227	2409.88
585.678	2563.53
586.129	2613.43
586.58	2665.83
587.031	2697.18
587.482	2857.58
587.933	3348.33
588.384	3072.13
588.834	2545.63
589.285	2167.58
589.736	2133.73
590.186	2129.58
590.637	2105.33
591.088	2065.83
591.538	2031.63
591.989	2018.53
592.439	1998.53
592.89	1992.63
593.34	1998.58
593.791	1996.23
594.241	2005.93
594.692	2030.83
595.142	2010.68
595.593	1985.48
596.043	1990.03
596.493	2019.18
596.943	2044.73
597.394	2032.68
597.844	2008.13
598.294	2045.03
598.744	2114.78
599.195	2214.88
599.645	2346.58
600.095	2465.13
600.545	2576.18
600.995	2685.78
601.445	2787.23
601.895	2925.93
602.345	2989.53
602.795	2956.03
603.245	2833.28
603.695	2661.28
604.145	2509.98
604.594	2386.28
605.044	2267.88
605.494	2128.83
605.944	2023.43
606.393	1982.43
606.843	1950.18
607.293	1965.23
607.743	1942.98
608.192	1977.03
608.642	1973.18
609.091	1977.48
609.541	1966.98
609.99	1957.13
610.44	1932.28
610.889	1906.48
611.339	1881.78
611.788	1865.63
612.238	1892.78
612.687	1903.78
613.136	1932.28
613.586	1967.53
614.035	1959.88
614.484	1992.48
614.933	1999.68
615.383	1956.73
615.832	1900.33
616.281	1850.43
616.73	1793.68
617.179	1743.18
617.628	1708.38
618.077	1677.23
618.526	1650.78
618.975	1646.48
619.424	1612.23
619.873	1618.68
620.322	1605.43
620.771	1607.03
621.22	1580.88
621.669	1549.08
622.118	1533.28
622.567	1528.28
623.015	1493.03
623.464	1494.63
623.913	1474.38
624.361	1474.48
624.81	1468.58
625.259	1468.83
625.707	1439.93
626.156	1454.78
626.604	1479.73
627.053	1473.13
627.501	1475.13
627.95	1485.13
628.398	1504.03
628.847	1487.63
629.295	1491.48
629.744	1503.83
630.192	1534.58
630.64	1646.88
631.089	1800.33
631.537	1887.78
631.985	1886.43
632.433	1957.13
632.881	1952.33
633.33	2341.48
633.778	2546.58
634.226	1817.68
634.674	1680.88
635.122	1670.03
635.57	1702.63
636.018	1978.23
636.466	1613.48
636.914	1437.68
637.362	1435.23
637.81	1453.83
638.258	1504.18
638.705	1506.83
639.153	1555.38
639.601	1554.83
640.049	1597.78
640.497	1633.68
640.944	1674.63
641.392	1602.18
641.84	1503.53
642.287	1448.33
642.735	1428.88
643.182	1418.68
643.63	1413.53
644.078	1418.43
644.525	1428.53
644.973	1472.63
645.42	1496.28
645.867	1510.63
646.315	1536.88
646.762	1584.88
647.21	1634.73
647.657	1712.48
648.104	1779.23
648.551	1836.83
648.999	1978.53
649.446	2175.98
649.893	2433.08
650.34	2856.58
650.787	3529.48
651.234	4591.53
651.682	6352.93
652.129	9109.43
652.576	12965.78
653.023	15535.98
653.47	15539.18
653.917	15539.23
654.363	15539.13
654.81	15536.13
655.257	15536.78
655.704	15514.88
656.151	9909.48
656.598	6446.83
657.044	4575.43
657.491	3579.18
657.938	2904.08
658.385	2463.68
658.831	2175.88
659.278	1964.68
659.724	1792.88
660.171	1673.03
660.618	1556.33
661.064	1466.08
661.511	1416.23
661.957	1380.38
662.404	1344.78
662.85	1330.33
663.296	1312.08
663.743	1276.38
664.189	1283.13
664.635	1258.28
665.082	1249.13
665.528	1240.23
665.974	1203.73
666.42	1197.23
666.867	1218.58
667.313	1215.43
667.759	1265.18
668.205	1259.03
668.651	1271.93
669.097	1233.23
669.543	1342.38
669.989	1271.63
670.435	1120.88
670.881	1126.13
671.327	1158.03
671.773	1238.33
672.219	1336.93
672.665	1420.13
673.11	1468.03
673.556	1475.83
674.002	1527.73
674.448	1544.08
674.893	1304.83
675.339	1139.18
675.785	1044.03
676.23	1009.78
676.676	964.88
677.122	937.48
677.567	915.18
678.013	896.38
678.458	888.88
678.904	880.48
679.349	866.73
679.794	865.93
680.24	877.58
680.685	850.43
681.131	850.83
681.576	857.73
682.021	868.03
682.466	867.68
682.912	884.43
683.357	921.88
683.802	1000.83
684.247	1099.03
684.692	1162.73
685.137	1213.18
685.583	1233.03
686.028	1300.18
686.473	1242.28
686.918	1065.38
687.363	974.63
687.807	920.68
688.252	882.18
688.697	849.73
689.142	829.08
689.587	832.18
690.032	857.28
690.477	882.93
690.921	922.63
691.366	977.28
691.811	1010.28
692.255	1100.63
692.7	1334.38
693.145	1941.63
693.589	2951.18
694.034	3492.13
694.478	3708.63
694.923	3394.33
695.367	4835.13
695.812	2925.38
696.256	1244.33
696.701	909.08
697.145	847.68
697.59	814.08
698.034	807.53
698.478	809.03
698.922	807.98
699.367	833.03
699.811	872.63
700.255	952.68
700.699	1026.93
701.143	1121.68
701.588	1181.63
702.032	1227.63
702.476	1255.93
702.92	1341.38
703.364	1762.93
703.808	2713.08
704.252	3345.78
704.696	3539.48
705.14	3325.78
705.584	4581.83
706.027	2533.03
706.471	1279.18
706.915	948.58
707.359	850.58
707.803	800.23
708.246	778.03
708.69	769.18
709.134	753.33
709.577	749.43
710.021	766.53
710.465	756.88
710.908	754.98
711.352	783.68
711.795	872.68
712.239	939.88
712.682	962.63
713.126	957.18
713.569	1058.38
714.012	874.78
714.456	776.03
714.899	720.03
715.342	683.53
715.786	656.53
716.229	636.18
716.672	618.98
717.115	621.98
717.558	626.73
718.002	643.78
718.445	676.03
718.888	711.63
719.331	724.58
719.774	738.13
720.217	717.98
720.66	680.03
721.103	641.93
721.546	610.43
721.989	595.23
722.432	586.98
722.874	580.78
723.317	592.93
723.76	645.93
724.203	800.78
724.645	1067.23
725.088	1247.43
725.531	1217.58
725.974	1323.98
726.416	1197.08
726.859	736.83
727.301	613.98
727.744	584.48
728.187	589.43
728.629	601.28
729.071	618.28
729.514	649.93
729.956	672.38
730.399	694.18
730.841	682.38
731.283	666.18
731.726	647.28
732.168	656.73
732.61	688.38
733.053	742.73
733.495	829.03
733.937	918.93
734.379	1087.03
734.821	1387.08
735.263	2223.93
735.705	3994.33
736.148	5839.43
736.59	5785.93
737.032	6274.63
737.474	5154.23
737.916	1969.13
738.357	1041.83
738.799	803.83
739.241	740.83
739.683	739.83
740.125	756.98
740.567	755.08
741.008	797.73
741.45	832.98
741.892	865.18
742.334	864.13
742.775	846.68
743.217	807.93
743.658	698.38
744.1	710.53
744.542	787.78
744.983	815.58
745.425	859.38
745.866	850.38
746.307	759.88
746.749	822.53
747.19	1197.93
747.632	2356.93
748.073	4367.33
748.514	5976.73
748.956	7953.48
749.397	9241.88
749.838	6354.68
750.279	6043.68
750.72	3107.33
751.162	1318.43
751.603	755.98
752.044	611.58
752.485	536.33
752.926	508.48
753.367	488.58
753.808	479.53
754.249	459.28
754.69	462.33
755.131	462.93
755.572	458.53
756.013	450.63
756.453	458.13
756.894	467.78
757.335	465.83
757.776	466.68
758.216	491.23
758.657	524.03
759.098	574.28
759.538	694.73
759.979	1010.78
760.42	2060.13
760.86	5319.23
761.301	10827.63
761.741	12591.48
762.182	14347.98
762.622	9322.68
763.063	3362.03
763.503	1470.48
763.943	1108.53
764.384	1180.33
764.824	1108.38
765.264	1100.88
765.705	786.58
766.145	578.58
766.585	513.78
767.025	548.08
767.465	694.58
767.906	851.73
768.346	874.63
768.786	921.23
769.226	963.83
769.666	1686.08
770.106	3692.93
770.546	5141.18
770.986	5761.78
771.426	4347.43
771.866	1816.48
772.306	833.93
772.745	529.98
773.185	449.73
773.625	454.03
774.065	528.33
774.505	866.68
774.944	1720.83
775.384	2558.18
775.824	2905.13
776.263	2379.88
776.703	1170.78
777.142	601.18
777.582	405.73
778.021	372.23
778.461	350.63
778.9	345.18
779.34	322.93
779.779	302.18
780.219	293.38
780.658	285.83
781.097	285.08
781.537	274.28
781.976	276.88
782.415	270.58
782.855	271.53
783.294	276.08
783.733	263.98
784.172	278.08
784.611	270.88
785.05	276.48
785.489	281.23
785.928	287.28
786.367	296.23
786.806	314.83
787.245	344.68
787.684	351.63
788.123	347.18
788.562	329.43
789.001	314.93
789.44	301.08
789.879	307.13
790.317	311.98
790.756	337.73
791.195	382.68
791.634	521.48
792.072	951.43
792.511	2332.98
792.95	4262.38
793.388	5082.88
793.827	3266.48
794.265	1500.23
794.704	720.48
795.142	442.68
795.581	363.58
796.019	328.93
796.458	326.58
796.896	337.03
797.334	390.03
797.773	522.23
798.211	1016.43
798.649	2124.43
799.087	3560.38
799.526	4990.58
799.964	5112.18
800.402	3486.83
800.84	1574.98
801.278	765.43
801.716	469.53
802.154	377.73
802.592	365.48
803.03	367.13
803.468	369.08
803.906	368.88
804.344	365.83
804.782	351.48
805.22	354.78
805.658	371.03
806.096	397.73
806.533	442.43
806.971	565.03
807.409	814.88
807.847	1651.23
808.284	4256.98
808.722	7346.73
809.16	10321.38
809.597	13852.28
810.035	15541.13
810.472	11058.18
810.91	4701.78
811.347	2096.73
811.785	994.68
812.222	624.93
812.66	479.03
813.097	407.78
813.535	350.08
813.972	323.28
814.409	292.93
814.846	283.13
815.284	264.28
815.721	269.58
816.158	292.68
816.595	373.13
817.032	458.93
817.47	420.23
817.907	329.43
818.344	289.33
818.781	284.93
819.218	327.48
819.655	470.13
820.092	598.73
820.529	551.58
820.966	458.68
821.403	338.48
821.839	293.53
822.276	314.58
822.713	363.23
823.15	339.38
823.587	385.43
824.023	689.38
824.46	1733.28
824.897	2998.33
825.333	2297.68
825.77	1059.83
826.206	553.28
826.643	327.38
827.08	242.28
827.516	215.78
827.953	198.48
828.389	189.08
828.825	184.23
829.262	170.78
829.698	169.88
830.135	164.93
830.571	162.08
831.007	160.08
831.443	161.58
831.88	169.28
832.316	177.23
832.752	169.68
833.188	167.88
833.624	172.93
834.06	175.58
834.497	179.43
834.933	178.03
835.369	194.83
835.805	200.68
836.241	208.38
836.677	240.43
837.112	273.23
837.548	336.13
837.984	507.23
838.42	1094.78
838.856	3035.58
839.292	5964.93
839.727	4352.38
840.163	2966.23
840.599	4552.33
841.034	6874.98
841.47	3398.53
841.906	1667.48
842.341	934.53
842.777	800.48
843.212	934.38
843.648	547.48
844.083	346.53
844.519	242.03
844.954	196.28
845.39	172.23
845.825	156.83
846.261	152.78
846.696	147.48
847.131	138.18
847.566	143.28
848.002	148.68
848.437	157.63
848.872	164.38
849.307	207.43
849.742	383.53
850.177	1003.68
850.613	2103.78
851.048	1486.13
851.483	688.18
851.918	384.53
852.353	221.08
852.788	171.13
853.223	145.13
853.657	129.53
854.092	125.53
854.527	120.18
854.962	126.08
855.397	135.68
855.832	112.23
856.266	107.53
856.701	106.63
857.136	106.73
857.57	123.08
858.005	147.78
858.44	133.18
858.874	126.33
859.309	135.08
859.743	125.73
860.178	124.23
860.612	134.28
861.047	170.88
861.481	219.93
861.915	157.33
862.35	130.53
862.784	99.78
863.218	100.93
863.653	109.38
864.087	130.28
864.521	173.08
864.955	290.63
865.39	485.03
865.824	354.18
866.258	408.43
866.692	577.13
867.126	411.98
867.56	230.23
867.994	152.98
868.428	131.38
868.862	159.98
869.296	150.43
869.73	176.03
870.164	152.53
870.598	143.53
871.031	105.18
871.465	92.03
871.899	79.23
872.333	68.58
872.766	75.43
873.2	73.53
873.634	73.83
874.067	76.98
874.501	85.83
874.935	84.33
875.368	84.68
875.802	77.58
876.235	69.98
876.669	66.68
877.102	63.08
877.535	64.93
877.969	64.88
878.402	65.93
878.836	67.58
879.269	62.68
879.702	58.88
880.135	64.08
880.569	71.33
881.002	62.58
881.435	66.93
881.868	61.03
882.301	54.13
882.734	58.38
883.167	57.83
883.601	59.83
884.034	53.63
884.467	51.48
884.899	55.78
885.332	48.13
885.765	53.18
886.198	49.08
886.631	48.33
887.064	49.98
887.497	48.68
887.929	49.53
888.362	48.93
888.795	47.83
889.228	48.38
889.66	47.23
890.093	49.08
890.526	49.98
890.958	45.98
891.391	51.13
891.823	47.83
892.256	48.18
892.688	43.78
893.121	46.38
893.553	50.68
893.985	42.03
894.418	41.48
894.85	46.68
895.282	47.83
895.715	42.38
896.147	43.78
896.579	43.33
897.011	46.98
897.444	43.83
897.876	34.28
898.308	42.23
898.74	44.78
899.172	47.73
899.604	47.28
900.036	47.23
900.468	42.88
900.9	45.18
901.332	57.08
901.764	57.03
902.196	51.18
902.628	54.53
903.06	74.23
903.491	82.83
903.923	64.63
904.355	70.28
904.787	78.98
905.218	65.53
905.65	55.88
906.082	60.88
906.513	55.68
906.945	56.28
907.376	53.58
907.808	59.98
908.239	67.93
908.671	63.93
909.102	71.83
909.534	99.83
909.965	194.33
910.397	495.28
910.828	1412.63
911.259	838.78
911.691	453.23
912.122	265.88
912.553	132.88
912.984	74.48
913.415	66.58
913.847	60.08
914.278	56.58
914.709	47.28
915.14	43.73
915.571	48.78
916.002	46.98
916.433	44.13
916.864	41.63
917.295	48.33
917.726	57.38
918.157	68.58
918.587	66.38
919.018	57.33
919.449	62.88
919.88	70.03
920.311	106.18
920.741	302.38
921.172	512.63
921.603	254.33
922.033	164.13
922.464	105.63
922.895	67.93
923.325	49.93
923.756	50.38
924.186	67.38
924.617	113.73
925.047	170.78
925.478	162.03
925.908	109.58
926.338	75.68
926.769	56.73
927.199	48.88
927.629	46.88
928.06	46.38
928.49	43.88
928.92	35.63
929.35	37.48
929.78	28.78
930.21	30.23
930.641	25.63
931.071	25.23
931.501	24.83
931.931	17.13
932.361	29.08
932.791	30.28
933.221	28.38
933.651	41.73
934.08	71.43
934.51	39.28
934.94	28.93
935.37	30.68
935.8	23.33
936.229	17.83
936.659	25.68
937.089	32.78
937.519	46.18
937.948	66.63
938.378	45.63
938.807	24.23
939.237	20.73
939.666	18.18
940.096	17.73
940.525	7.58
940.955	17.93
941.384	13.93
941.814	11.03
942.243	12.68
942.672	10.48
943.102	10.03
943.531	9.63
943.96	7.08
944.39	8.28
944.819	13.08
945.248	13.33
945.677	14.08
946.106	13.83
946.535	12.78
946.964	9.28
947.393	9.68
947.822	12.28
948.251	14.83
948.68	16.78
949.109	11.63
949.538	7.83
949.967	10.98
950.396	8.13
950.825	13.18
951.254	10.13
951.682	8.48
952.111	10.08
952.54	7.28
952.969	7.23
953.397	7.98
953.826	9.08
954.254	11.53
954.683	11.68
955.112	10.88
955.54	6.83
955.969	8.83
956.397	9.58
956.826	7.88
957.254	4.63
957.682	6.78
958.111	7.08
958.539	7.73
958.967	11.38
959.396	15.58
959.824	8.03
960.252	6.33
960.68	8.18
961.109	10.73
961.537	14.13
961.965	3.23
962.393	7.03
962.821	7.53
963.249	11.53
963.677	19.83
964.105	84.08
964.533	146.73
964.961	75.68
965.389	40.68
965.817	21.68
966.245	14.93
966.672	8.83
967.1	6.98
967.528	0.98
967.956	5.18
968.383	8.43
968.811	7.23
969.239	8.43
969.666	5.78
970.094	10.03
970.522	2.03
970.949	8.78
971.377	-1.22
971.804	5.58
972.232	9.43
972.659	2.83
973.087	6.43
973.514	0.23
973.941	5.88
974.369	0.33
974.796	4.13
975.223	0.43
975.651	8.53
976.078	8.63
976.505	9.28
976.932	35.78
977.359	41.83
977.786	26.08
978.214	19.18
978.641	8.58
979.068	3.33
979.495	2.28
979.922	5.88
980.349	4.43
980.776	8.43
981.202	2.43
981.629	8.88
982.056	6.18
982.483	-4.97
982.91	6.68
983.337	-1.12
983.763	8.98
984.19	3.08
984.617	5.88
985.043	4.88
985.47	9.73
985.897	6.78
986.323	7.08
986.75	5.28
987.176	5.78
987.603	4.93
988.029	4.18
988.456	8.03
988.882	2.78
989.308	-2.57
989.735	1.83
990.161	2.13
990.587	1.23
991.014	5.38
991.44	3.43
991.866	0.68
992.292	2.13
992.719	5.68
993.145	5.18
993.571	8.78
993.997	2.98
994.423	5.38
994.849	-1.32
995.275	7.63
995.701	5.38
996.127	0.53
996.553	3.03
996.979	-1.17
997.405	4.23
997.83	3.28
998.256	4.68
998.682	4.73
999.108	4.53
999.534	-7.02
999.959	2.28
1000.385	8.13
1000.811	0.53
1001.236	-1.67
1001.662	3.33
1002.087	10.43
1002.513	1.03
1002.938	1.68
1003.364	2.08
1003.789	6.53
1004.215	3.28
1004.64	-0.87
1005.066	4.98
1005.491	2.88
1005.916	2.53
1006.342	7.58
1006.767	2.83
1007.192	3.63
1007.617	2.83
1008.042	-0.47
1008.468	0.88
1008.893	8.48
1009.318	9.03
1009.743	13.63
1010.168	26.28
1010.593	24.83
1011.018	9.68
1011.443	6.53
1011.868	9.33
1012.293	6.13
1012.718	0.23
1013.143	-2.32
1013.567	8.18
1013.992	4.63
1014.417	6.98
1014.842	3.98
1015.267	2.28
1015.691	5.18
1016.116	3.33
1016.541	3.33
1016.965	2.03
1017.39	4.83
1017.814	-2.97
1018.239	-4.32
1018.663	-5.57
1019.088	0.48
1019.512	8.23
1019.937	0.08
1020.361	3.18
1020.785	1.68
1021.21	1.28
1021.634	0.48
1022.058	2.58
1022.483	-4.42
1022.907	-2.27
1023.331	2.08
1023.755	-3.07
1024.179	-1.02
1024.604	0.93
1025.028	-1.72
1025.452	1.98
1025.876	1.23
1026.3	1.23
1026.724	-4.62
1027.148	1.93
1027.572	-2.77
1027.996	2.18
1028.42	-0.67
1028.843	-0.77
1029.267	-5.07
1029.691	-0.17
1030.115	-2.77
1030.539	-0.12
1030.962	0.23
1031.386	0.28
1031.81	0.18
1032.233	-1.67
1032.657	-5.67
1033.08	-2.32
1033.504	-1.37
1033.927	1.23
1034.351	-4.82
1034.774	-2.17
1035.198	-2.37
1035.621	4.33
1036.045	-2.32
1036.468	5.53
1036.891	2.73
1037.315	1.18
1037.738	0.03
1038.161	-1.12
1038.584	1.53
1039.008	-4.07
1039.431	0.53
1039.854	-4.32
1040.277	0.83
1040.7	-4.77
1041.123	-2.37
1041.546	-0.37
1041.969	0.73
1042.392	1.93
1042.815	-6.62
1043.238	-3.37
1043.661	-3.02
1044.084	-2.72
1044.507	0.78
1044.93	-1.32
1045.352	-3.02
1045.775	1.83
1046.198	5.23
1046.621	6.98
1047.043	-1.02
1047.466	-1.67
1047.889	0.88
1048.311	2.73
1048.734	0.83
1049.156	-3.82
1049.579	-2.02
1050.001	0.63
1050.424	-2.62
1050.846	-4.32
1051.269	-5.87
1051.691	-6.42
1052.113	0.23
1052.536	-2.07
1052.958	-2.62
1053.38	2.18
1053.802	1.38
1054.225	0.98
1054.647	2.53
1055.069	-1.82
1055.491	-0.22
1055.913	-0.27
1056.335	-5.07
1056.757	-3.67
1057.179	-4.82
1057.601	-2.52
1058.023	1.53
1058.445	-5.02
1058.867	4.13
1059.289	-1.17
1059.711	-3.47
1060.133	-1.87
1060.555	-0.87
1060.976	-0.92
1061.398	1.88
1061.82	-3.97
1062.241	-1.82
1062.663	-1.67
1063.085	-6.92
1063.506	-7.17
1063.928	-0.82
1064.35	0.68
1064.771	0.93
1065.193	0.68
1065.614	-1.47
1066.035	5.08
1066.457	3.23
1066.878	0.28
1067.3	-0.97
1067.721	-2.02
1068.142	1.98
1068.564	0.08
1068.985	2.93
1069.406	-5.92
1069.827	-2.37
1070.248	-3.42
1070.67	-5.42
1071.091	-7.52
1071.512	-4.37
1071.933	0.78
1072.354	-7.42
1072.775	-1.07
1073.196	1.33
1073.617	-4.52
1074.038	-2.52
1074.459	-3.27
1074.88	-0.87
1075.3	-0.02
1075.721	-0.92
1076.142	-3.67
1076.563	-4.32
1076.983	-1.72
1077.404	-7.87
1077.825	-0.67
1078.246	-6.87
1078.666	-2.67
1079.087	-6.12
1079.507	-1.72
1079.928	-3.87
1080.348	-6.47
1080.769	-0.17
1081.189	-1.37
1081.61	-8.12
1082.03	-0.27
1082.451	2.03
1082.871	-4.62
1083.291	-1.67
1083.711	-3.97
1084.132	-4.97
1084.552	-2.92
1084.972	-4.92
1085.392	-7.02
1085.813	0.68
1086.233	-4.87
1086.653	1.28
1087.073	-2.22
1087.493	-6.42
1087.913	-5.42
1088.333	-5.67
1088.753	0.33
1089.173	-0.02
1089.593	-3.27
1090.013	-5.32
1090.433	-7.62
1090.852	-2.42
1091.272	-4.42
1091.692	0.73
1092.112	-2.82
1092.531	-6.02
1092.951	-0.42
1093.371	-1.77
1093.79	-5.62
1094.21	-8.97
1094.63	-1.52
1095.049	-5.02
1095.469	-10.17
1095.888	2.18
1096.308	-1.67
1096.727	-3.42
1097.146	-6.22
1097.566	-1.07
1097.985	-3.97
1098.405	0.73
1098.824	-2.42
1099.243	-2.77
1099.662	-5.27
1100.082	-4.77
1100.501	-3.82
1100.92	-0.72
1101.339	3.78
1101.758	3.18
