Data from MSPlasma+Separation6_Subt14_10-15-31-137.txt Node
Date: Fri Jul 21 10:15:31 EDT 2017
User: Ender
Spectrometer: HR+D1039
Trigger mode: 0
Integration Time (sec): 2.510000E-3
Scans to average: 20
Electric dark correction enabled: true
Nonlinearity correction enabled: false
Boxcar width: 0
XAxis mode: Wavelengths
Number of Pixels in Spectrum: 2048
>>>>>Begin Spectral Data<<<<<
187.836	-0.85
188.309	-0.85
188.782	-0.85
189.255	1.5
189.728	1.3
190.201	-2.1
190.674	0.5
191.147	-5.5
191.619	1.85
192.092	1.45
192.565	-4.25
193.038	2.4
193.511	2.4
193.984	0.65
194.456	-0.45
194.929	3.5
195.402	-2.85
195.874	0.5
196.347	5.25
196.82	4
197.292	-2.1
197.765	-0.15
198.237	-0.35
198.71	-2.7
199.182	1.5
199.655	2.85
200.127	-0.3
200.6	0.1
201.072	0.25
201.544	-3.5
202.017	-1.45
202.489	-1.85
202.961	-0.45
203.433	-2.05
203.906	-1.9
204.378	1.3
204.85	-1.4
205.322	-1.35
205.794	0.1
206.266	1
206.739	-2.75
207.211	-2.35
207.683	-4.1
208.155	1
208.627	-2.25
209.099	1.25
209.57	3.45
210.042	3.25
210.514	-3.7
210.986	2.75
211.458	4.15
211.93	1.1
212.402	1.15
212.873	-5.95
213.345	-2.15
213.817	5.65
214.288	-2.15
214.76	4.35
215.232	-2.2
215.703	-0.9
216.175	3
216.646	1.35
217.118	0.4
217.589	-3
218.061	0.95
218.532	-3.05
219.004	3.55
219.475	3.4
219.946	8.4
220.418	10.25
220.889	11.8
221.36	2.2
221.832	1.4
222.303	2.2
222.774	-0.65
223.245	-1.5
223.717	1.7
224.188	3.9
224.659	-3.6
225.13	-3.05
225.601	-0.15
226.072	3.6
226.543	1.5
227.014	-0.35
227.485	1.95
227.956	0.25
228.427	8.85
228.898	3.5
229.369	-0.1
229.839	1.45
230.31	3.7
230.781	4.45
231.252	6.7
231.722	11.35
232.193	5.1
232.664	13.85
233.135	17.45
233.605	19.95
234.076	21.7
234.546	15.15
235.017	18.35
235.487	14.35
235.958	11.9
236.428	22.45
236.899	34.05
237.369	47.2
237.84	35.25
238.31	38.3
238.78	37.45
239.251	40.95
239.721	41.7
240.191	27.6
240.662	17.2
241.132	14.35
241.602	18.35
242.072	23.6
242.542	29.25
243.013	21.05
243.483	22.55
243.953	13.95
244.423	13.4
244.893	13.45
245.363	24.8
245.833	14.55
246.303	19.55
246.773	25.2
247.243	24.75
247.712	34.95
248.182	44.6
248.652	43.85
249.122	59.85
249.592	122.1
250.061	180.8
250.531	294.85
251.001	225.35
251.471	187.45
251.94	140.75
252.41	76.2
252.879	52.1
253.349	39.4
253.818	31.9
254.288	32.45
254.757	28.4
255.227	38.5
255.696	28.55
256.166	29.15
256.635	33.55
257.105	38.4
257.574	47
258.043	52.7
258.513	89.3
258.982	115.8
259.451	80.45
259.92	77.05
260.389	76.35
260.859	53.75
261.328	60.8
261.797	88.7
262.266	81.3
262.735	40.2
263.204	17.75
263.673	20.4
264.142	13.3
264.611	18
265.08	22.25
265.549	20.95
266.018	19.65
266.487	19.85
266.955	19.35
267.424	25.15
267.893	25.35
268.362	25.95
268.83	19.4
269.299	20.35
269.768	30.85
270.236	32.35
270.705	39.5
271.174	36.05
271.642	37.25
272.111	46.3
272.579	74.25
273.048	120.2
273.516	149.6
273.985	152.35
274.453	117.65
274.922	68.95
275.39	36.9
275.858	37
276.327	28
276.795	32.25
277.263	35.5
277.731	50.55
278.2	99.35
278.668	131
279.136	101.1
279.604	62.6
280.072	40.1
280.54	33.95
281.008	35.05
281.477	35.4
281.945	35.8
282.413	39.9
282.881	36.6
283.348	37.7
283.816	39.8
284.284	38.05
284.752	43.6
285.22	39.75
285.688	44.85
286.156	79.2
286.623	214.15
287.091	419.55
287.559	219.75
288.026	90
288.494	52.1
288.962	46.65
289.429	37.1
289.897	39.85
290.364	32.15
290.832	38
291.3	36.65
291.767	39.9
292.234	44
292.702	42.5
293.169	44.25
293.637	48.5
294.104	46.7
294.571	42.5
295.039	45.55
295.506	38.05
295.973	45.2
296.44	37.45
296.908	50.5
297.375	55.3
297.842	55.1
298.309	46.95
298.776	42.85
299.243	46.7
299.71	46.55
300.177	43.9
300.644	47.2
301.111	56.95
301.578	51.7
302.045	49.9
302.512	40.75
302.979	50.85
303.446	54.5
303.913	54.75
304.379	62.15
304.846	64.35
305.313	73.15
305.78	88.1
306.246	102.9
306.713	116
307.18	96.2
307.646	106.8
308.113	89.4
308.579	76.35
309.046	74.35
309.512	73.9
309.979	69.8
310.445	56.45
310.912	65.25
311.378	63.15
311.845	64.35
312.311	56.15
312.777	59.2
313.244	61.1
313.71	62.95
314.176	79.85
314.642	87.5
315.109	97.4
315.575	86.95
316.041	87.85
316.507	81.1
316.973	94.9
317.439	89.3
317.905	98.5
318.371	94.95
318.837	90.45
319.303	93.55
319.769	85.15
320.235	100.35
320.701	112.8
321.167	120.2
321.633	146.45
322.099	198.75
322.564	266.95
323.03	202.7
323.496	143.2
323.962	129.7
324.427	124.7
324.893	110.65
325.359	108.85
325.824	96.6
326.29	101.4
326.755	98.35
327.221	100.1
327.686	111.3
328.152	100
328.617	96.6
329.083	96.45
329.548	99.2
330.014	104.35
330.479	113.05
330.944	126.1
331.41	152.5
331.875	140.85
332.34	145.7
332.805	169.4
333.271	219
333.736	288.6
334.201	255.8
334.666	193.55
335.131	218.5
335.596	175.2
336.061	182.7
336.526	180.3
336.991	155.8
337.456	171.95
337.921	135.2
338.386	111.05
338.851	100.45
339.316	91.55
339.781	92.85
340.246	90.85
340.711	96.75
341.175	93.25
341.64	94.1
342.105	95.65
342.569	110.8
343.034	112.55
343.499	116.7
343.963	113.1
344.428	113.35
344.893	113.85
345.357	120.15
345.822	115.1
346.286	115.55
346.751	121.05
347.215	117.05
347.679	127.55
348.144	132.15
348.608	135.5
349.073	139.3
349.537	151.1
350.001	149.35
350.465	142.15
350.93	132.7
351.394	138
351.858	132.15
352.322	142.45
352.786	143.25
353.25	139.3
353.715	141.7
354.179	149.55
354.643	150.1
355.107	157.1
355.571	162.5
356.035	169.6
356.498	164.25
356.962	172.45
357.426	177.15
357.89	156.1
358.354	150.35
358.818	140.95
359.281	149.3
359.745	159.95
360.209	153.7
360.673	154.9
361.136	161.15
361.6	158.15
362.064	164.9
362.527	174.05
362.991	169.85
363.454	170.25
363.918	173.25
364.381	170.55
364.845	163.5
365.308	162.85
365.772	166.2
366.235	167.3
366.698	170.1
367.162	209.6
367.625	233.85
368.088	193.85
368.552	173.3
369.015	180.3
369.478	186.9
369.941	191.1
370.404	197.1
370.867	203.45
371.331	210.05
371.794	211.6
372.257	236.3
372.72	249.25
373.183	243.6
373.646	244.15
374.109	234.8
374.572	277.4
375.035	331
375.497	247.9
375.96	207.95
376.423	191.75
376.886	191.15
377.349	194.4
377.811	198.1
378.274	206.4
378.737	202.55
379.199	207.35
379.662	213.9
380.125	229.7
380.587	255.6
381.05	269.8
381.512	264.55
381.975	256.1
382.437	259.7
382.9	255.8
383.362	254.2
383.825	274.95
384.287	347.45
384.75	391.05
385.212	341.1
385.674	280.25
386.136	255.7
386.599	255.8
387.061	264.55
387.523	273.4
387.985	279.6
388.447	291
388.91	324.45
389.372	388.45
389.834	367.45
390.296	300.55
390.758	309.95
391.22	316.15
391.682	389.95
392.144	589.7
392.606	557.75
393.068	335.85
393.529	303.45
393.991	292.9
394.453	286.25
394.915	296.55
395.377	361.5
395.838	444.65
396.3	317.7
396.762	247.95
397.224	237.5
397.685	227.3
398.147	235.55
398.608	234.9
399.07	240.8
399.531	236.05
399.993	245.1
400.454	246.1
400.916	243.2
401.377	251.6
401.839	252.7
402.3	254.6
402.762	266.7
403.223	295.45
403.684	294.25
404.145	272.55
404.607	269.9
405.068	270.55
405.529	274
405.99	279.3
406.451	286.9
406.913	280.65
407.374	280.55
407.835	277.85
408.296	298.25
408.757	293.45
409.218	300.15
409.679	301.9
410.14	303.35
410.601	327.6
411.062	344.15
411.522	388.75
411.983	430.95
412.444	370.75
412.905	320.45
413.366	323.5
413.826	329.5
414.287	366.75
414.748	433
415.208	443.3
415.669	373.7
416.13	345.85
416.59	335.5
417.051	344.75
417.511	362.55
417.972	383.85
418.432	413.65
418.893	456.25
419.353	432.35
419.814	333.6
420.274	297.4
420.734	290.15
421.195	328.65
421.655	337.9
422.115	327.55
422.576	312.75
423.036	317.65
423.496	328.05
423.956	345.55
424.416	367
424.876	411.4
425.336	412.6
425.797	410.6
426.257	415.8
426.717	389.35
427.177	370.45
427.637	375.6
428.097	396.6
428.556	420.6
429.016	457.75
429.476	457.55
429.936	435.95
430.396	425.75
430.856	436.55
431.315	442.75
431.775	470.05
432.235	499.15
432.694	513.25
433.154	483.85
433.614	468.2
434.073	451.9
434.533	410.5
434.993	393.25
435.452	393.25
435.912	390.25
436.371	390.1
436.83	388.5
437.29	387.6
437.749	373.4
438.209	359.85
438.668	368.4
439.127	373.55
439.587	364.8
440.046	343.3
440.505	350.75
440.964	360.3
441.424	362.75
441.883	370.65
442.342	351.6
442.801	336.8
443.26	347.1
443.719	341.6
444.178	336.9
444.637	338.85
445.096	348.35
445.555	350.1
446.014	350.65
446.473	342.6
446.932	343.75
447.391	348
447.849	353.1
448.308	351.5
448.767	361.25
449.226	359.35
449.685	365.6
450.143	383.8
450.602	386.05
451.061	369.7
451.519	372.3
451.978	381
452.436	390.95
452.895	375.1
453.353	366.75
453.812	360.75
454.27	357.2
454.729	353.25
455.187	352.85
455.646	358.75
456.104	365
456.562	358.85
457.021	357.5
457.479	343.7
457.937	350.7
458.395	365
458.854	359.95
459.312	358.2
459.77	360.2
460.228	363.85
460.686	368.1
461.144	372.85
461.602	359.55
462.06	360.85
462.518	374.25
462.976	368.5
463.434	377.15
463.892	379.9
464.35	385.5
464.808	389.1
465.266	391.4
465.724	400.9
466.181	396.55
466.639	396.7
467.097	418.05
467.555	428.25
468.012	425
468.47	427.15
468.928	443.8
469.385	454.25
469.843	458.4
470.3	459.25
470.758	478.1
471.215	486
471.673	494.2
472.13	502.2
472.588	522.1
473.045	515
473.503	529.8
473.96	549.8
474.417	556.75
474.875	579.7
475.332	603.1
475.789	613.8
476.246	635.6
476.704	669.4
477.161	686.85
477.618	699.75
478.075	744.65
478.532	804.45
478.989	879.6
479.446	970.3
479.903	1025.25
480.36	1139.1
480.817	1218.5
481.274	1308.6
481.731	1441.85
482.188	1551.7
482.645	1667.3
483.102	1771.2
483.558	1899.9
484.015	1993.45
484.472	1986.55
484.929	1913.9
485.385	1836.1
485.842	1791.8
486.299	1700.05
486.755	1528.55
487.212	1369.55
487.668	1228.6
488.125	1130.2
488.582	1037.35
489.038	983.8
489.494	951.55
489.951	914.4
490.407	893.1
490.864	880.05
491.32	851.85
491.776	849.4
492.233	847.15
492.689	823.25
493.145	813.2
493.602	804.3
494.058	821.9
494.514	832.4
494.97	833.4
495.426	848.3
495.882	847
496.338	855.4
496.794	875.75
497.251	882.8
497.707	889.65
498.163	886.1
498.618	888.6
499.074	899.05
499.53	907
499.986	926.05
500.442	937.1
500.898	933.15
501.354	947.45
501.809	960.75
502.265	972.45
502.721	1019
503.177	1051.5
503.632	1004.85
504.088	1008.6
504.543	1081.6
504.999	1026.95
505.455	902.6
505.91	859.1
506.366	845.45
506.821	850.4
507.277	837.9
507.732	845.2
508.187	841.2
508.643	850.7
509.098	853.2
509.553	853.5
510.009	872.1
510.464	889.95
510.919	893.4
511.375	906.1
511.83	913.1
512.285	935.1
512.74	955.3
513.195	963.55
513.65	982.1
514.105	998.25
514.56	994.25
515.015	1023
515.47	1032.3
515.925	1020.75
516.38	1019.5
516.835	1012.9
517.29	1012.6
517.745	1022.4
518.2	1006.35
518.655	973.75
519.109	959.3
519.564	950.15
520.019	949.3
520.474	938.1
520.928	928.25
521.383	925.85
521.838	925.3
522.292	907.15
522.747	898.2
523.201	897.7
523.656	889.05
524.11	885.1
524.565	881.65
525.019	885.85
525.474	897
525.928	892.25
526.382	878.6
526.837	872
527.291	875
527.745	874.25
528.2	871.8
528.654	862.3
529.108	866.95
529.562	871.85
530.016	868.8
530.47	878.55
530.925	864.55
531.379	866.7
531.833	894.85
532.287	877.85
532.741	868.7
533.195	868
533.649	868.15
534.103	862.9
534.556	859.65
535.01	877.45
535.464	873
535.918	871.6
536.372	880.25
536.826	874.2
537.279	863.4
537.733	862.1
538.187	879.9
538.64	863.25
539.094	881.8
539.548	885.35
540.001	883
540.455	891.7
540.908	899.2
541.362	906.7
541.815	911.45
542.269	942.3
542.722	922.75
543.175	941.9
543.629	948.45
544.082	951.6
544.536	959.65
544.989	957.3
545.442	965.7
545.895	964.8
546.349	969.3
546.802	977.9
547.255	969.2
547.708	973.65
548.161	984.2
548.614	977.4
549.067	985.3
549.52	985.7
549.973	971.15
550.426	964.8
550.879	962.15
551.332	951
551.785	971.35
552.238	973.6
552.691	972.65
553.144	983.4
553.596	1008.75
554.049	1007.65
554.502	1027.95
554.955	1051.5
555.407	1060.5
555.86	1041.3
556.313	1043.45
556.765	1031.45
557.218	1023.25
557.67	1021.1
558.123	1007.35
558.576	998.6
559.028	986.55
559.48	1016.1
559.933	1002.3
560.385	980.75
560.838	948.95
561.29	917.85
561.742	913.6
562.195	898.25
562.647	895.9
563.099	889.3
563.551	878.45
564.004	898.9
564.456	890.55
564.908	870
565.36	846.6
565.812	837
566.264	832
566.716	821.65
567.168	806.8
567.62	813.25
568.072	800.1
568.524	784.25
568.976	796.25
569.428	782.8
569.88	788
570.332	789.95
570.784	786.05
571.235	773.15
571.687	783.9
572.139	783.75
572.59	786.75
573.042	794.05
573.494	797.5
573.945	780.5
574.397	766.05
574.849	765.4
575.3	774.9
575.752	761.65
576.203	749.55
576.655	758.95
577.106	742.3
577.557	743.75
578.009	733.45
578.46	745.35
578.912	737.6
579.363	747.85
579.814	743.8
580.265	735.6
580.717	739.6
581.168	735.6
581.619	737.75
582.07	747.25
582.521	752.6
582.972	745.9
583.423	748.45
583.875	770.75
584.326	803.15
584.777	877.2
585.227	969.5
585.678	1023.8
586.129	1045.2
586.58	1069.8
587.031	1072.55
587.482	1122.35
587.933	1316.85
588.384	1219.8
588.834	1017.1
589.285	869.15
589.736	842.3
590.186	841.55
590.637	835.7
591.088	815.8
591.538	804.15
591.989	802.6
592.439	793.5
592.89	784.65
593.34	792.45
593.791	804.2
594.241	801.65
594.692	807.35
595.142	802
595.593	789.85
596.043	786.55
596.493	799.5
596.943	825.75
597.394	813.25
597.844	795.4
598.294	808.55
598.744	835.05
599.195	880.05
599.645	924.55
600.095	977
600.545	1013.55
600.995	1058.4
601.445	1095.05
601.895	1140.95
602.345	1170.7
602.795	1162.3
603.245	1102.55
603.695	1034.5
604.145	987.3
604.594	943.3
605.044	894.65
605.494	840.6
605.944	804
606.393	781.5
606.843	774.75
607.293	772.6
607.743	766.8
608.192	788.1
608.642	784.35
609.091	778.15
609.541	777.65
609.99	782
610.44	767.5
610.889	750.15
611.339	751.4
611.788	742.45
612.238	749.65
612.687	757.2
613.136	763.85
613.586	780.25
614.035	775.35
614.484	789.45
614.933	787.85
615.383	773.85
615.832	745.55
616.281	740.4
616.73	721.15
617.179	704
617.628	689.05
618.077	669.5
618.526	659.4
618.975	663.05
619.424	646.6
619.873	648.45
620.322	647.7
620.771	640.05
621.22	637.8
621.669	628.85
622.118	611.85
622.567	612.4
623.015	597.65
623.464	604.8
623.913	592.75
624.361	592.3
624.81	591.35
625.259	591.3
625.707	581.5
626.156	585.5
626.604	598.15
627.053	592.6
627.501	583.5
627.95	597.35
628.398	603.25
628.847	595.2
629.295	592.95
629.744	610.1
630.192	624.8
630.64	674.5
631.089	741.8
631.537	783.2
631.985	781.9
632.433	814.05
632.881	810.95
633.33	967.65
633.778	1058.55
634.226	751.55
634.674	693.45
635.122	679.3
635.57	695.8
636.018	807.15
636.466	652.8
636.914	582.45
637.362	577.3
637.81	590.75
638.258	605.4
638.705	605.95
639.153	629.4
639.601	632.85
640.049	648.7
640.497	658.3
640.944	674.55
641.392	648.9
641.84	611.35
642.287	588.05
642.735	584.65
643.182	578.55
643.63	577.3
644.078	583.8
644.525	595.2
644.973	607.95
645.42	621.2
645.867	630.5
646.315	646.65
646.762	663.1
647.21	689.55
647.657	731.75
648.104	769.15
648.551	788.95
648.999	866.25
649.446	960
649.893	1084.4
650.34	1291.6
650.787	1601.2
651.234	2088.65
651.682	2934.9
652.129	4230.5
652.576	6163.55
653.023	8185.2
653.47	9574.2
653.917	10334.65
654.363	10690.5
654.81	11311.85
655.257	11333.2
655.704	7734.35
656.151	4546.75
656.598	2911.75
657.044	2077.4
657.491	1615.45
657.938	1297.25
658.385	1089.9
658.831	957.9
659.278	849.7
659.724	775.15
660.171	721.9
660.618	666.05
661.064	627.8
661.511	596
661.957	579.1
662.404	562.6
662.85	547.6
663.296	548.5
663.743	528.5
664.189	526.5
664.635	520.6
665.082	517.65
665.528	502.2
665.974	488.6
666.42	488.1
666.867	492.55
667.313	501.3
667.759	518.45
668.205	523.65
668.651	531.85
669.097	516.6
669.543	554.15
669.989	528
670.435	463.45
670.881	452.7
671.327	477.8
671.773	505.35
672.219	546.5
672.665	575.05
673.11	595.85
673.556	596.45
674.002	607.85
674.448	616.45
674.893	523.85
675.339	459.9
675.785	421.95
676.23	403.9
676.676	386.1
677.122	381.4
677.567	371
678.013	356.4
678.458	357.6
678.904	356.2
679.349	346.3
679.794	355.35
680.24	355.1
680.685	343.55
681.131	346.05
681.576	346.65
682.021	353.35
682.466	358.7
682.912	360.15
683.357	377.9
683.802	406.95
684.247	442.2
684.692	470.65
685.137	488.4
685.583	491.95
686.028	518.4
686.473	494.75
686.918	426.2
687.363	395.95
687.807	367.45
688.252	355.7
688.697	345.5
689.142	338.4
689.587	336.5
690.032	350.15
690.477	354.65
690.921	367.95
691.366	389.45
691.811	406.5
692.255	436.35
692.7	531.9
693.145	773.15
693.589	1161.15
694.034	1357.95
694.478	1433.2
694.923	1301.45
695.367	1800.7
695.812	1135.2
696.256	497.75
696.701	365.4
697.145	342.8
697.59	330.95
698.034	325.75
698.478	321.95
698.922	331.65
699.367	336.05
699.811	351.5
700.255	383.25
700.699	413.9
701.143	446.1
701.588	470.05
702.032	488.75
702.476	499.05
702.92	532.3
703.364	697.4
703.808	1067.95
704.252	1308.2
704.696	1372.25
705.14	1280.9
705.584	1710.65
706.027	995.35
706.471	509.75
706.915	380.75
707.359	340.45
707.803	321.25
708.246	309.85
708.69	308.3
709.134	306.75
709.577	303.9
710.021	307.4
710.465	303.1
710.908	304.1
711.352	323.25
711.795	348.4
712.239	377.8
712.682	385.15
713.126	380.45
713.569	421.4
714.012	354.35
714.456	308.8
714.899	285.75
715.342	273.5
715.786	261.75
716.229	259.85
716.672	249.4
717.115	243.75
717.558	245.25
718.002	255.65
718.445	273.25
718.888	290.6
719.331	291.15
719.774	293.7
720.217	288.3
720.66	270.2
721.103	261.6
721.546	242.35
721.989	239
722.432	238.5
722.874	236
723.317	238.6
723.76	262.3
724.203	318.95
724.645	428.9
725.088	497.3
725.531	478.35
725.974	519.55
726.416	465.95
726.859	299.3
727.301	244.55
727.744	229.1
728.187	233.7
728.629	243.9
729.071	245.95
729.514	258.1
729.956	269.1
730.399	274.95
730.841	270.05
731.283	265.4
731.726	249.85
732.168	261.95
732.61	276
733.053	295.15
733.495	328.1
733.937	368.8
734.379	439.2
734.821	554.2
735.263	877.45
735.705	1544.9
736.148	2200.8
736.59	2195.85
737.032	2324.75
737.474	1937.3
737.916	790.65
738.357	414.9
738.799	322.45
739.241	296.85
739.683	297.75
740.125	298
740.567	305.25
741.008	318.95
741.45	330.6
741.892	343.75
742.334	348.15
742.775	330.95
743.217	316.65
743.658	282.2
744.1	283.2
744.542	314.65
744.983	320.35
745.425	331.9
745.866	333.4
746.307	307.15
746.749	334.2
747.19	482.8
747.632	935
748.073	1684.25
748.514	2263.9
748.956	2998.2
749.397	3469.7
749.838	2409.15
750.279	2262.4
750.72	1222.6
751.162	523.2
751.603	302.2
752.044	245.35
752.485	218.85
752.926	205.5
753.367	197.8
753.808	191.15
754.249	190.85
754.69	186.05
755.131	178.6
755.572	182.05
756.013	183.65
756.453	184.1
756.894	188.15
757.335	184.25
757.776	188.8
758.216	200
758.657	209.95
759.098	230
759.538	277.25
759.979	408.8
760.42	827.05
760.86	2037.6
761.301	4143.3
761.741	4748.3
762.182	5385.3
762.622	3501.45
763.063	1346
763.503	596.35
763.943	457.5
764.384	493.9
764.824	456.75
765.264	458.8
765.705	329.1
766.145	233.45
766.585	213.05
767.025	221.1
767.465	289.25
767.906	350.05
768.346	369.95
768.786	378.3
769.226	395.3
769.666	680.85
770.106	1414.5
770.546	1937.9
770.986	2132.3
771.426	1647.9
771.866	718.1
772.306	334.85
772.745	210.05
773.185	180
773.625	182.5
774.065	213.35
774.505	341.15
774.944	672.65
775.384	981.85
775.824	1099.4
776.263	900.85
776.703	459.45
777.142	239.15
777.582	165.85
778.021	149.6
778.461	143.45
778.9	138.55
779.34	123.05
779.779	121.3
780.219	118.4
780.658	115.3
781.097	119.7
781.537	106.65
781.976	114.15
782.415	111.9
782.855	109.7
783.294	112.5
783.733	105.2
784.172	112.3
784.611	108.95
785.05	113.05
785.489	114.2
785.928	115.7
786.367	120.7
786.806	127.3
787.245	135
787.684	139.2
788.123	136.8
788.562	133.55
789.001	126.1
789.44	123.55
789.879	124.05
790.317	123.45
790.756	131.8
791.195	153.1
791.634	207.35
792.072	380.85
792.511	915.7
792.95	1615.75
793.388	1883.9
793.827	1254.05
794.265	595.8
794.704	292.35
795.142	177.3
795.581	145.35
796.019	126.7
796.458	135.5
796.896	139.4
797.334	155.3
797.773	208
798.211	406.55
798.649	825.45
799.087	1363.3
799.526	1870.75
799.964	1905.2
800.402	1325.95
800.84	631.8
801.278	307.75
801.716	193.55
802.154	148.95
802.592	140.25
803.03	147.2
803.468	148.9
803.906	149.25
804.344	138.95
804.782	139.3
805.22	144.65
805.658	149.7
806.096	158.35
806.533	168.6
806.971	227.1
807.409	324.7
807.847	658.85
808.284	1620.65
808.722	2747.85
809.16	3861.75
809.597	5292.6
810.035	6397.8
810.472	4109.45
810.91	1837.25
811.347	838.1
811.785	399.55
812.222	244.5
812.66	188.85
813.097	164.35
813.535	142.6
813.972	126.35
814.409	122
814.846	113.25
815.284	108.55
815.721	110.25
816.158	118.55
816.595	151.15
817.032	177.7
817.47	161.65
817.907	130.15
818.344	114.65
818.781	114.85
819.218	132.2
819.655	184.3
820.092	226.2
820.529	215.05
820.966	181.65
821.403	132.3
821.839	114.25
822.276	126.2
822.713	142.3
823.15	137.4
823.587	151.3
824.023	271.65
824.46	677.15
824.897	1133.9
825.333	877.3
825.77	421.2
826.206	224.65
826.643	129.8
827.08	99.9
827.516	84.75
827.953	77.85
828.389	74.1
828.825	73.95
829.262	69.3
829.698	64.75
830.135	62.2
830.571	63.7
831.007	64.4
831.443	60.5
831.88	66.65
832.316	71.7
832.752	66.25
833.188	66.2
833.624	72.65
834.06	66.4
834.497	67
834.933	67.1
835.369	83.5
835.805	86.55
836.241	85.05
836.677	98.35
837.112	105.45
837.548	134.15
837.984	204.8
838.42	433
838.856	1166.7
839.292	2193.85
839.727	1637.9
840.163	1159
840.599	1711.9
841.034	2534.3
841.47	1317
841.906	662.9
842.341	372.9
842.777	313.8
843.212	365.15
843.648	216.05
844.083	140.4
844.519	95.9
844.954	78.05
845.39	61.8
845.825	65.65
846.261	65.5
846.696	59.15
847.131	57.25
847.566	58.4
848.002	60.45
848.437	65.2
848.872	65.6
849.307	83.8
849.742	155.35
850.177	393.2
850.613	795.95
851.048	571.05
851.483	269.1
851.918	153.45
852.353	88.6
852.788	68.4
853.223	60.1
853.657	51.75
854.092	49.35
854.527	50
854.962	50.55
855.397	52.75
855.832	45.7
856.266	39.4
856.701	41.3
857.136	48.75
857.57	49.7
858.005	53.3
858.44	50.4
858.874	51.15
859.309	51.5
859.743	48.85
860.178	50.5
860.612	53.3
861.047	68.4
861.481	82.35
861.915	56.55
862.35	49.45
862.784	40.8
863.218	39.2
863.653	39.25
864.087	51.3
864.521	68.2
864.955	114.6
865.39	191.85
865.824	137.05
866.258	151.7
866.692	218.05
867.126	159.5
867.56	91.75
867.994	60.55
868.428	56.45
868.862	61.25
869.296	60.3
869.73	66.7
870.164	59.7
870.598	54
871.031	42.75
871.465	32.55
871.899	30.85
872.333	27.6
872.766	32.9
873.2	34.35
873.634	30.15
874.067	38.05
874.501	30.4
874.935	33.9
875.368	33.75
875.802	26.6
876.235	27.4
876.669	30.7
877.102	23.25
877.535	26.5
877.969	19.15
878.402	23.65
878.836	25.8
879.269	18.2
879.702	24.05
880.135	22.85
880.569	30.95
881.002	18.4
881.435	20.4
881.868	24.05
882.301	19.15
882.734	20.65
883.167	23.7
883.601	19.4
884.034	19.35
884.467	16.15
884.899	22.25
885.332	15.85
885.765	20.6
886.198	16.4
886.631	17.35
887.064	16.95
887.497	17.4
887.929	16.3
888.362	16.3
888.795	19.3
889.228	20.25
889.66	20.1
890.093	16.55
890.526	21.75
890.958	18.65
891.391	22.65
891.823	16.75
892.256	18.6
892.688	20.8
893.121	16.4
893.553	21.55
893.985	16.9
894.418	11.25
894.85	18.15
895.282	15.15
895.715	15.1
896.147	13.3
896.579	11.6
897.011	18.75
897.444	23.8
897.876	10.1
898.308	14.5
898.74	19.2
899.172	19.5
899.604	19.45
900.036	18.45
900.468	13.1
900.9	17.45
901.332	23.4
901.764	19.15
902.196	20.25
902.628	19.35
903.06	28.2
903.491	26.9
903.923	22.3
904.355	27.55
904.787	25.8
905.218	24.15
905.65	23.9
906.082	23.2
906.513	21.45
906.945	19.8
907.376	20.15
907.808	22
908.239	25.2
908.671	25.05
909.102	28.9
909.534	39.95
909.965	68.4
910.397	189.1
910.828	526.9
911.259	326.45
911.691	178.7
912.122	107.7
912.553	56.6
912.984	25.1
913.415	25.05
913.847	19.75
914.278	24.5
914.709	21.9
915.14	19.7
915.571	20.25
916.002	18.25
916.433	14.35
916.864	16.25
917.295	20.85
917.726	19.35
918.157	27
918.587	27.55
919.018	24.5
919.449	20.4
919.88	22.65
920.311	34.45
920.741	115.6
921.172	202.4
921.603	101.2
922.033	62.25
922.464	40.4
922.895	25.4
923.325	19
923.756	16.9
924.186	23.3
924.617	37.65
925.047	66.65
925.478	59.5
925.908	38.75
926.338	29.55
926.769	18.95
927.199	17.9
927.629	16.8
928.06	18.1
928.49	21.5
928.92	12.2
929.35	14.85
929.78	12.4
930.21	12.9
930.641	5.8
931.071	12.8
931.501	5.85
931.931	4.5
932.361	4.65
932.791	16.7
933.221	11.55
933.651	19.75
934.08	26.95
934.51	11.6
934.94	13.6
935.37	7.65
935.8	5.35
936.229	2.55
936.659	6.45
937.089	6.7
937.519	15
937.948	26.05
938.378	19.5
938.807	7.85
939.237	10.1
939.666	11.25
940.096	5.15
940.525	0.35
940.955	7.85
941.384	3
941.814	-0.1
942.243	3.95
942.672	2.3
943.102	1.75
943.531	3.45
943.96	1.15
944.39	-0.65
944.819	3.9
945.248	0.2
945.677	2.6
946.106	4.25
946.535	7.15
946.964	4.65
947.393	-3.45
947.822	3.35
948.251	5.1
948.68	8.05
949.109	4.65
949.538	1.05
949.967	3.2
950.396	2.85
950.825	4.1
951.254	2.9
951.682	-3.05
952.111	-0.2
952.54	2.25
952.969	1.85
953.397	-4.8
953.826	2.6
954.254	3.6
954.683	4.15
955.112	3.7
955.54	2.15
955.969	3.25
956.397	2.85
956.826	-0.5
957.254	0.95
957.682	3.9
958.111	5.05
958.539	1.25
958.967	4
959.396	4.95
959.824	1.95
960.252	-0.1
960.68	3.35
961.109	1.65
961.537	5.15
961.965	-5.75
962.393	-0.5
962.821	1.5
963.249	1.3
963.677	4.45
964.105	30.1
964.533	57.6
964.961	26
965.389	12.25
965.817	8.5
966.245	5.65
966.672	5.35
967.1	6.9
967.528	-1.3
967.956	-2.75
968.383	6.8
968.811	5.1
969.239	1.75
969.666	3.05
970.094	-1.5
970.522	-2.65
970.949	1.7
971.377	-1.75
971.804	0.9
972.232	-1.95
972.659	0.05
973.087	2.1
973.514	-2.05
973.941	-2.05
974.369	-4.75
974.796	-1.05
975.223	-2
975.651	3.9
976.078	4.95
976.505	7.3
976.932	13.6
977.359	14.4
977.786	7.45
978.214	10.55
978.641	-5.35
979.068	0.85
979.495	-1.15
979.922	0.25
980.349	-0.1
980.776	2.7
981.202	-0.65
981.629	2.9
982.056	0.1
982.483	-6.6
982.91	0.5
983.337	-1.05
983.763	1.45
984.19	4.4
984.617	2.05
985.043	-0.45
985.47	2.7
985.897	3.3
986.323	3.3
986.75	-3.6
987.176	-1.45
987.603	-0.35
988.029	1.05
988.456	3.75
988.882	2.2
989.308	-3.5
989.735	-1.05
990.161	-2.8
990.587	-1.05
991.014	1.55
991.44	2.65
991.866	0.35
992.292	-1.1
992.719	-2.2
993.145	4.3
993.571	2.8
993.997	7.1
994.423	1.55
994.849	-3.75
995.275	1.95
995.701	3.2
996.127	-3.85
996.553	-0.6
996.979	-5.9
997.405	3.9
997.83	-3.7
998.256	1.4
998.682	-0.9
999.108	-1.65
999.534	-4.55
999.959	-2.5
1000.385	2.8
1000.811	0.9
1001.236	-3.2
1001.662	-3.4
1002.087	3
1002.513	2.35
1002.938	-1.25
1003.364	0.55
1003.789	4.8
1004.215	-1
1004.64	-2.45
1005.066	5
1005.491	0.65
1005.916	3
1006.342	1
1006.767	-2.3
1007.192	4.05
1007.617	-0.25
1008.042	1.95
1008.468	-0.6
1008.893	3
1009.318	-2.8
1009.743	6.95
1010.168	9.2
1010.593	9.8
1011.018	0.85
1011.443	-0.75
1011.868	4.25
1012.293	-1.05
1012.718	-4.45
1013.143	-4.4
1013.567	4.7
1013.992	0.45
1014.417	3.05
1014.842	0.85
1015.267	-0.45
1015.691	-0.2
1016.116	0.25
1016.541	1.85
1016.965	-0.85
1017.39	-1
1017.814	-2.2
1018.239	-1.45
1018.663	-9.8
1019.088	-5.25
1019.512	5.5
1019.937	-4.5
1020.361	1.9
1020.785	-0.35
1021.21	-0.2
1021.634	-0.55
1022.058	2.3
1022.483	-3.85
1022.907	-5.25
1023.331	0.85
1023.755	-0.7
1024.179	-2.8
1024.604	0.6
1025.028	2.4
1025.452	1.4
1025.876	2.7
1026.3	0.4
1026.724	-5.5
1027.148	4.75
1027.572	3
1027.996	2.95
1028.42	-0.05
1028.843	-4.1
1029.267	-2.35
1029.691	-0.55
1030.115	-0.4
1030.539	0.9
1030.962	-6.4
1031.386	1.5
1031.81	-3.4
1032.233	-1.45
1032.657	-6.3
1033.08	-3.05
1033.504	2.4
1033.927	-1.1
1034.351	-1.55
1034.774	-3.1
1035.198	-2.15
1035.621	-2.15
1036.045	-4.9
1036.468	6
1036.891	-0.15
1037.315	3.9
1037.738	2.25
1038.161	3.15
1038.584	-0.5
1039.008	-0
1039.431	4.15
1039.854	-5.2
1040.277	1.3
1040.7	-4.6
1041.123	2.85
1041.546	1.9
1041.969	-3.65
1042.392	-1.35
1042.815	-8.35
1043.238	-2.35
1043.661	-2.1
1044.084	-2.65
1044.507	-3.9
1044.93	-0.65
1045.352	-0.9
1045.775	0.9
1046.198	0.65
1046.621	2.55
1047.043	-3.45
1047.466	-3.35
1047.889	-0.15
1048.311	4.65
1048.734	-0.3
1049.156	1.6
1049.579	-0.3
1050.001	-9.5
1050.424	-2.25
1050.846	-3.7
1051.269	-5.9
1051.691	-1.95
1052.113	1.15
1052.536	-6.3
1052.958	-4.95
1053.38	-1.2
1053.802	-0.4
1054.225	1.2
1054.647	1.25
1055.069	-3.95
1055.491	1.15
1055.913	-2
1056.335	-6.95
1056.757	-4.7
1057.179	-1.3
1057.601	-3.15
1058.023	1.4
1058.445	-5.85
1058.867	-2.2
1059.289	-3.7
1059.711	-2.9
1060.133	-0.45
1060.555	-1.35
1060.976	0.9
1061.398	-3.4
1061.82	2.55
1062.241	-2.9
1062.663	-6.25
1063.085	-7.15
1063.506	-5.65
1063.928	-1.05
1064.35	1.5
1064.771	-3.55
1065.193	-6.2
1065.614	-0.15
1066.035	0.75
1066.457	1.25
1066.878	-4.2
1067.3	-2.35
1067.721	-1.25
1068.142	1.55
1068.564	1.75
1068.985	-0.6
1069.406	-7.05
1069.827	1.15
1070.248	1.45
1070.67	-6.15
1071.091	-5.7
1071.512	-6.85
1071.933	-1.3
1072.354	-8.8
1072.775	-0.5
1073.196	-1.7
1073.617	-6
1074.038	-1.45
1074.459	-4.35
1074.88	-3.35
1075.3	0.05
1075.721	0.2
1076.142	-2.9
1076.563	-7.5
1076.983	2.35
1077.404	-4.6
1077.825	-1.2
1078.246	-5.25
1078.666	-1.55
1079.087	-1.4
1079.507	-1.6
1079.928	-4.1
1080.348	-3.8
1080.769	-0.9
1081.189	-2.25
1081.61	-8.9
1082.03	0.45
1082.451	0.55
1082.871	-6.85
1083.291	-3.55
1083.711	-1.85
1084.132	-3.35
1084.552	-5.4
1084.972	-9.2
1085.392	-4.8
1085.813	-2.05
1086.233	-2.45
1086.653	-1.4
1087.073	-1.7
1087.493	1.15
1087.913	-6.95
1088.333	0.25
1088.753	-4.55
1089.173	2.7
1089.593	-0.05
1090.013	-1.65
1090.433	-5.1
1090.852	-1.45
1091.272	-6.5
1091.692	0.75
1092.112	-3.15
1092.531	-4.75
1092.951	-0.55
1093.371	-1.4
1093.79	-1.5
1094.21	-5.8
1094.63	-5.1
1095.049	-1.1
1095.469	-7.5
1095.888	1.15
1096.308	0.9
1096.727	-4.15
1097.146	-5
1097.566	-2.6
1097.985	-2.3
1098.405	1.9
1098.824	1.75
1099.243	-4.4
1099.662	-3.65
1100.082	-0.65
1100.501	1.95
1100.92	4.1
1101.339	0.3
1101.758	-0.1
