Data from MSPlasma+Separation6_Subt14_10-15-47-352.txt Node
Date: Fri Jul 21 10:15:47 EDT 2017
User: Ender
Spectrometer: HR+D1039
Trigger mode: 0
Integration Time (sec): 2.510000E-3
Scans to average: 20
Electric dark correction enabled: true
Nonlinearity correction enabled: false
Boxcar width: 0
XAxis mode: Wavelengths
Number of Pixels in Spectrum: 2048
>>>>>Begin Spectral Data<<<<<
187.836	0.16
188.309	0.16
188.782	0.16
189.255	2.26
189.728	2.26
190.201	-1.14
190.674	-1.14
191.147	-2.39
191.619	1.66
192.092	-0.74
192.565	-5.54
193.038	1.11
193.511	-0.19
193.984	3.91
194.456	1.26
194.929	-1.19
195.402	0.21
195.874	-0.44
196.347	3.66
196.82	-0.44
197.292	-3.49
197.765	-3.59
198.237	-1.99
198.71	-4.64
199.182	-2.54
199.655	0.81
200.127	-0.44
200.6	-4.54
201.072	-1.89
201.544	-3.04
202.017	-1.49
202.489	2.26
202.961	-0.99
203.433	-3.79
203.906	-0.74
204.378	-1.04
204.85	1.91
205.322	1.21
205.794	2.46
206.266	-2.04
206.739	6.51
207.211	-2.74
207.683	0.16
208.155	-1.14
208.627	-0.64
209.099	-0.19
209.57	2.21
210.042	1.51
210.514	0.21
210.986	6.71
211.458	5.51
211.93	1.06
212.402	0.76
212.873	-0.19
213.345	-2.54
213.817	1.66
214.288	-2.34
214.76	1.01
215.232	0.51
215.703	0.06
216.175	-3.69
216.646	-2.89
217.118	2.26
217.589	-5.19
218.061	0.51
218.532	-6.54
219.004	1.31
219.475	6.36
219.946	12.26
220.418	14.81
220.889	10.26
221.36	3.06
221.832	4.56
222.303	3.66
222.774	2.21
223.245	-2.99
223.717	-0.04
224.188	2.36
224.659	2.36
225.13	-4.24
225.601	0.61
226.072	-0.39
226.543	2.26
227.014	-3.44
227.485	1.86
227.956	7.46
228.427	8.61
228.898	3.51
229.369	-0.89
229.839	0.06
230.31	3.66
230.781	2.26
231.252	10.11
231.722	11.06
232.193	12.71
232.664	15.16
233.135	22.36
233.605	19.86
234.076	22.01
234.546	14.81
235.017	16.61
235.487	17.46
235.958	10.91
236.428	28.71
236.899	46.66
237.369	48.71
237.84	34.11
238.31	49.16
238.78	45.71
239.251	42.41
239.721	43.81
240.191	32.96
240.662	17.31
241.132	16.51
241.602	21.91
242.072	30.51
242.542	36.31
243.013	24.66
243.483	24.76
243.953	14.06
244.423	13.86
244.893	17.36
245.363	25.66
245.833	19.26
246.303	20.51
246.773	30.76
247.243	35.36
247.712	41.86
248.182	46.11
248.652	49.56
249.122	72.71
249.592	147.26
250.061	223.31
250.531	359.71
251.001	273.51
251.471	226.26
251.94	170.46
252.41	87.71
252.879	59.11
253.349	45.56
253.818	31.46
254.288	34.06
254.757	35.21
255.227	45.81
255.696	33.36
256.166	30.96
256.635	31.86
257.105	43.76
257.574	56.31
258.043	57.11
258.513	108.71
258.982	137.06
259.451	96.91
259.92	93.71
260.389	88.71
260.859	62.81
261.328	73.96
261.797	113.91
262.266	97.46
262.735	43.26
263.204	28.31
263.673	22.51
264.142	18.31
264.611	18.91
265.08	21.91
265.549	25.66
266.018	22.96
266.487	21.81
266.955	19.06
267.424	26.16
267.893	26.46
268.362	27.61
268.83	25.91
269.299	24.46
269.768	33.56
270.236	40.76
270.705	44.46
271.174	39.61
271.642	43.86
272.111	53.36
272.579	89.41
273.048	138.01
273.516	179.86
273.985	176.81
274.453	138.81
274.922	80.21
275.39	46.66
275.858	49.46
276.327	38.41
276.795	37.51
277.263	40.71
277.731	58.46
278.2	121.61
278.668	160.71
279.136	124.91
279.604	74.91
280.072	45.56
280.54	38.56
281.008	40.81
281.477	38.06
281.945	45.96
282.413	40.76
282.881	43.11
283.348	37.76
283.816	45.76
284.284	47.41
284.752	45.76
285.22	48.11
285.688	51.11
286.156	97.61
286.623	273.86
287.091	539.36
287.559	282.86
288.026	101.91
288.494	61.46
288.962	46.06
289.429	48.16
289.897	47.76
290.364	41.46
290.832	45.11
291.3	44.41
291.767	48.96
292.234	47.71
292.702	49.46
293.169	53.91
293.637	56.86
294.104	55.31
294.571	55.61
295.039	53.51
295.506	49.96
295.973	54.31
296.44	49.66
296.908	59.01
297.375	66.11
297.842	66.61
298.309	51.81
298.776	55.66
299.243	60.26
299.71	52.96
300.177	51.16
300.644	59.51
301.111	69.01
301.578	59.01
302.045	58.11
302.512	55.26
302.979	59.56
303.446	62.96
303.913	62.61
304.379	69.51
304.846	77.56
305.313	88.76
305.78	108.96
306.246	133.81
306.713	141.86
307.18	122.46
307.646	133.56
308.113	116.86
308.579	92.41
309.046	86.21
309.512	90.41
309.979	77.26
310.445	68.31
310.912	79.11
311.378	72.36
311.845	76.06
312.311	69.16
312.777	64.96
313.244	76.11
313.71	77.91
314.176	89.96
314.642	102.51
315.109	123.06
315.575	119.86
316.041	100.91
316.507	93.31
316.973	105.21
317.439	104.11
317.905	118.86
318.371	118.01
318.837	112.01
319.303	114.91
319.769	102.96
320.235	122.21
320.701	140.56
321.167	144.71
321.633	176.56
322.099	253.06
322.564	346.81
323.03	273.96
323.496	186.01
323.962	169.06
324.427	159.36
324.893	136.26
325.359	135.01
325.824	114.16
326.29	118.61
326.755	122.31
327.221	121.46
327.686	132.11
328.152	112.41
328.617	109.81
329.083	109.51
329.548	114.26
330.014	120.46
330.479	131.96
330.944	153.71
331.41	183.56
331.875	175.56
332.34	179.06
332.805	213.71
333.271	279.66
333.736	365.61
334.201	327.41
334.666	242.16
335.131	275.51
335.596	216.36
336.061	226.71
336.526	229.26
336.991	199.21
337.456	218.31
337.921	172.06
338.386	134.46
338.851	120.66
339.316	115.66
339.781	102.66
340.246	108.21
340.711	108.86
341.175	110.96
341.64	115.91
342.105	121.46
342.569	127.11
343.034	132.01
343.499	140.21
343.963	132.21
344.428	133.56
344.893	133.81
345.357	139.66
345.822	133.01
346.286	137.66
346.751	145.96
347.215	143.36
347.679	146.91
348.144	161.71
348.608	156.11
349.073	159.46
349.537	184.06
350.001	174.61
350.465	163.96
350.93	151.06
351.394	152.91
351.858	158.81
352.322	162.51
352.786	161.81
353.25	160.26
353.715	161.66
354.179	172.76
354.643	176.81
355.107	186.61
355.571	192.26
356.035	196.86
356.498	194.01
356.962	209.96
357.426	203.46
357.89	180.76
358.354	165.46
358.818	168.96
359.281	179.16
359.745	185.76
360.209	180.91
360.673	182.06
361.136	188.51
361.6	189.96
362.064	196.61
362.527	199.96
362.991	196.36
363.454	208.66
363.918	208.26
364.381	204.06
364.845	195.56
365.308	188.66
365.772	187.66
366.235	200.46
366.698	210.81
367.162	252.96
367.625	289.26
368.088	221.11
368.552	197.86
369.015	206.71
369.478	223.26
369.941	229.71
370.404	231.31
370.867	245.31
371.331	248.81
371.794	256.71
372.257	287.06
372.72	308.36
373.183	290.31
373.646	288.26
374.109	291.51
374.572	350.66
375.035	411.46
375.497	308.96
375.96	240.41
376.423	218.66
376.886	221.91
377.349	227.71
377.811	234.36
378.274	239.26
378.737	242.36
379.199	242.51
379.662	250.16
380.125	269.96
380.587	296.26
381.05	325.26
381.512	318.11
381.975	310.66
382.437	305.66
382.9	304.61
383.362	301.86
383.825	328.71
384.287	424.31
384.75	473.76
385.212	418.36
385.674	330.71
386.136	304.36
386.599	308.06
387.061	309.21
387.523	326.81
387.985	323.86
388.447	340.66
388.91	385.31
389.372	473.61
389.834	446.76
390.296	354.41
390.758	359.16
391.22	369.61
391.682	461.96
392.144	710.11
392.606	666.41
393.068	397.51
393.529	353.16
393.991	342.11
394.453	341.81
394.915	356.06
395.377	433.11
395.838	535.86
396.3	375.31
396.762	295.86
397.224	281.41
397.685	272.46
398.147	279.96
398.608	283.26
399.07	278.46
399.531	273.11
399.993	277.81
400.454	275.66
400.916	277.41
401.377	289.91
401.839	296.91
402.3	292.26
402.762	302.41
403.223	347.56
403.684	349.51
404.145	319.16
404.607	313.86
405.068	310.76
405.529	323.86
405.99	319.61
406.451	327.11
406.913	320.41
407.374	326.81
407.835	330.81
408.296	341.76
408.757	340.96
409.218	350.51
409.679	358.46
410.14	356.16
410.601	377.11
411.062	393.56
411.522	460.86
411.983	507.46
412.444	429.06
412.905	373.91
413.366	369.36
413.826	372.76
414.287	420.46
414.748	493.96
415.208	504.61
415.669	427.76
416.13	387.26
416.59	381.61
417.051	395.76
417.511	406.31
417.972	442.76
418.432	468.06
418.893	528.51
419.353	506.71
419.814	390.31
420.274	346.86
420.734	348.16
421.195	370.21
421.655	388.96
422.115	376.66
422.576	365.36
423.036	362.76
423.496	377.21
423.956	394.01
424.416	421.01
424.876	471.61
425.336	469.06
425.797	474.96
426.257	484.76
426.717	449.76
427.177	424.11
427.637	438.96
428.097	456.91
428.556	481.66
429.016	533.21
429.476	527.16
429.936	513.86
430.396	493.86
430.856	499.66
431.315	517.21
431.775	556.06
432.235	580.66
432.694	600.71
433.154	560.76
433.614	541.01
434.073	526.96
434.533	464.26
434.993	456.26
435.452	456.36
435.912	444.61
436.371	440.46
436.83	441.21
437.29	448.71
437.749	424.76
438.209	418.21
438.668	422.16
439.127	426.36
439.587	412.56
440.046	391.41
440.505	405.06
440.964	402.11
441.424	417.46
441.883	424.26
442.342	395.06
442.801	383.91
443.26	398.41
443.719	391.56
444.178	384.71
444.637	395.71
445.096	386.46
445.555	403.51
446.014	399.11
446.473	383.81
446.932	383.91
447.391	388.71
447.849	400.46
448.308	392.81
448.767	402.06
449.226	410.26
449.685	423.11
450.143	435.01
450.602	436.51
451.061	419.86
451.519	426.96
451.978	438.61
452.436	456.56
452.895	431.56
453.353	407.91
453.812	426.51
454.27	414.06
454.729	397.46
455.187	403.86
455.646	406.66
456.104	405.61
456.562	410.76
457.021	407.46
457.479	381.71
457.937	395.71
458.395	404.51
458.854	402.51
459.312	395.91
459.77	406.41
460.228	413.21
460.686	410.96
461.144	411.96
461.602	404.01
462.06	405.81
462.518	416.16
462.976	415.16
463.434	420.21
463.892	420.26
464.35	424.81
464.808	437.86
465.266	445.16
465.724	457.76
466.181	451.36
466.639	448.41
467.097	465.66
467.555	484.51
468.012	478.66
468.47	479.31
468.928	493.11
469.385	510.51
469.843	517.86
470.3	508.16
470.758	528.36
471.215	537.31
471.673	549.11
472.13	565.01
472.588	582.26
473.045	586.36
473.503	590.11
473.96	616.01
474.417	627.41
474.875	652.16
475.332	672.96
475.789	686.56
476.246	712.16
476.704	750.76
477.161	759.91
477.618	791.31
478.075	835.96
478.532	909.46
478.989	983.76
479.446	1094.36
479.903	1164.16
480.36	1283.46
480.817	1378.51
481.274	1492.96
481.731	1631.41
482.188	1778.66
482.645	1928.01
483.102	2048.91
483.558	2217.26
484.015	2318.91
484.472	2331.91
484.929	2248.41
485.385	2150.31
485.842	2094.31
486.299	1978.21
486.755	1777.01
487.212	1579.76
487.668	1401.66
488.125	1283.26
488.582	1174.31
489.038	1127.51
489.494	1070.71
489.951	1028.46
490.407	994.36
490.864	986.76
491.32	957.66
491.776	943.81
492.233	940.56
492.689	928.06
493.145	914.46
493.602	903.06
494.058	918.91
494.514	935.36
494.97	937.41
495.426	944.81
495.882	951.51
496.338	964.41
496.794	993.56
497.251	1002.31
497.707	997.21
498.163	999.66
498.618	997.46
499.074	1008.36
499.53	1030.76
499.986	1042.06
500.442	1056.26
500.898	1057.16
501.354	1073.11
501.809	1072.36
502.265	1081.96
502.721	1153.66
503.177	1186.61
503.632	1119.36
504.088	1136.56
504.543	1248.81
504.999	1154.61
505.455	1003.11
505.91	958.31
506.366	950.66
506.821	947.91
507.277	937.46
507.732	935.26
508.187	939.16
508.643	946.41
509.098	939.16
509.553	949.21
510.009	962.41
510.464	978.86
510.919	988.21
511.375	1006.71
511.83	1012.06
512.285	1030.86
512.74	1053.66
513.195	1066.51
513.65	1084.11
514.105	1101.26
514.56	1104.16
515.015	1129.76
515.47	1141.51
515.925	1135.31
516.38	1126.86
516.835	1122.41
517.29	1126.16
517.745	1129.06
518.2	1112.81
518.655	1076.41
519.109	1070.16
519.564	1051.76
520.019	1059.36
520.474	1035.66
520.928	1027.81
521.383	1018.61
521.838	1021.71
522.292	1011.76
522.747	994.06
523.201	998.31
523.656	977.96
524.11	984.16
524.565	990.91
525.019	984.31
525.474	989.91
525.928	980.61
526.382	967.61
526.837	968.96
527.291	965.61
527.745	965.06
528.2	964.26
528.654	953.01
529.108	957.31
529.562	957.21
530.016	952.86
530.47	963.21
530.925	953.91
531.379	957.66
531.833	974.51
532.287	969.86
532.741	958.91
533.195	960.51
533.649	954.56
534.103	960.31
534.556	950.51
535.01	961.56
535.464	963.26
535.918	954.41
536.372	976.36
536.826	966.51
537.279	959.66
537.733	951.21
538.187	958.61
538.64	955.91
539.094	974.91
539.548	986.96
540.001	983.16
540.455	980.26
540.908	987.86
541.362	993.01
541.815	1013.51
542.269	1032.66
542.722	1023.66
543.175	1038.01
543.629	1038.41
544.082	1047.36
544.536	1056.86
544.989	1058.71
545.442	1069.76
545.895	1064.16
546.349	1062.06
546.802	1069.31
547.255	1070.66
547.708	1073.61
548.161	1085.56
548.614	1069.51
549.067	1086.06
549.52	1075.86
549.973	1061.31
550.426	1065.91
550.879	1048.76
551.332	1048.96
551.785	1053.06
552.238	1068.06
552.691	1064.31
553.144	1078.36
553.596	1094.66
554.049	1115.11
554.502	1129.46
554.955	1155.01
555.407	1172.51
555.86	1163.41
556.313	1151.56
556.765	1127.41
557.218	1116.51
557.67	1120.41
558.123	1108.26
558.576	1096.56
559.028	1088.51
559.48	1119.61
559.933	1108.71
560.385	1068.81
560.838	1035.76
561.29	1005.81
561.742	1011.16
562.195	992.66
562.647	975.71
563.099	981.26
563.551	976.31
564.004	983.51
564.456	972.91
564.908	952.76
565.36	939.06
565.812	925.36
566.264	913.11
566.716	912.16
567.168	889.06
567.62	894.21
568.072	891.46
568.524	875.51
568.976	872.36
569.428	858.21
569.88	863.71
570.332	867.46
570.784	860.96
571.235	855.66
571.687	862.31
572.139	853.76
572.59	866.36
573.042	870.76
573.494	873.16
573.945	859.06
574.397	840.51
574.849	834.81
575.3	846.16
575.752	835.66
576.203	825.81
576.655	837.71
577.106	819.86
577.557	817.01
578.009	815.56
578.46	812.76
578.912	812.16
579.363	811.81
579.814	811.26
580.265	804.86
580.717	812.66
581.168	810.46
581.619	814.51
582.07	830.46
582.521	822.06
582.972	816.26
583.423	821.56
583.875	852.01
584.326	901.06
584.777	981.01
585.227	1069.61
585.678	1151.71
586.129	1178.61
586.58	1207.31
587.031	1217.31
587.482	1296.86
587.933	1535.51
588.384	1412.51
588.834	1146.16
589.285	953.81
589.736	924.61
590.186	934.61
590.637	919.86
591.088	894.11
591.538	889.31
591.989	882.86
592.439	863.21
592.89	873.16
593.34	873.21
593.791	883.46
594.241	889.41
594.692	894.01
595.142	890.16
595.593	874.71
596.043	875.31
596.493	890.06
596.943	912.71
597.394	901.96
597.844	877.31
598.294	888.51
598.744	916.66
599.195	958.91
599.645	1008.56
600.095	1052.06
600.545	1111.16
600.995	1148.46
601.445	1195.21
601.895	1247.41
602.345	1289.51
602.795	1261.41
603.245	1208.91
603.695	1137.51
604.145	1075.86
604.594	1028.96
605.044	978.91
605.494	932.76
605.944	876.16
606.393	856.51
606.843	857.66
607.293	854.26
607.743	845.76
608.192	862.11
608.642	852.36
609.091	861.01
609.541	854.36
609.99	852.16
610.44	839.86
610.889	832.56
611.339	819.91
611.788	821.56
612.238	838.06
612.687	837.56
613.136	855.56
613.586	866.31
614.035	864.61
614.484	873.26
614.933	886.81
615.383	872.21
615.832	834.56
616.281	814.26
616.73	787.06
617.179	769.26
617.628	743.46
618.077	744.36
618.526	727.91
618.975	722.61
619.424	712.56
619.873	714.81
620.322	715.16
620.771	707.66
621.22	701.81
621.669	684.11
622.118	673.01
622.567	674.81
623.015	665.46
623.464	668.66
623.913	650.96
624.361	649.16
624.81	649.56
625.259	652.31
625.707	638.41
626.156	646.16
626.604	647.41
627.053	655.56
627.501	642.71
627.95	652.71
628.398	662.16
628.847	652.96
629.295	658.71
629.744	661.76
630.192	683.36
630.64	737.51
631.089	821.71
631.537	865.76
631.985	877.16
632.433	918.16
632.881	908.81
633.33	1104.66
633.778	1215.26
634.226	837.36
634.674	771.61
635.122	756.41
635.57	778.46
636.018	914.71
636.466	736.81
636.914	640.41
637.362	634.56
637.81	642.71
638.258	666.01
638.705	668.71
639.153	690.16
639.601	694.36
640.049	705.31
640.497	728.51
640.944	745.21
641.392	709.61
641.84	675.76
642.287	642.61
642.735	644.01
643.182	634.86
643.63	643.36
644.078	640.06
644.525	653.91
644.973	674.96
645.42	687.31
645.867	704.31
646.315	709.71
646.762	740.51
647.21	755.71
647.657	803.01
648.104	845.61
648.551	877.66
648.999	957.56
649.446	1059.06
649.893	1207.41
650.34	1439.11
650.787	1788.06
651.234	2343.06
651.682	3305.71
652.129	4810.71
652.576	6951.71
653.023	9340.76
653.47	10962.96
653.917	11905.11
654.363	12412.81
654.81	13223.21
655.257	13382.56
655.704	9125.46
656.151	5292.46
656.598	3365.06
657.044	2369.26
657.491	1839.41
657.938	1473.51
658.385	1236.26
658.831	1075.11
659.278	948.96
659.724	861.91
660.171	803.26
660.618	733.51
661.064	689.06
661.511	666.71
661.957	640.76
662.404	620.46
662.85	611.01
663.296	610.81
663.743	585.16
664.189	582.71
664.635	578.81
665.082	557.76
665.528	557.56
665.974	538.71
666.42	540.26
666.867	549.56
667.313	554.56
667.759	591.01
668.205	583.76
668.651	590.91
669.097	569.81
669.543	640.36
669.989	593.01
670.435	500.56
670.881	499.66
671.327	521.76
671.773	555.61
672.219	592.66
672.665	626.56
673.11	649.26
673.556	651.71
674.002	666.31
674.448	673.91
674.893	573.01
675.339	504.11
675.785	468.51
676.23	444.06
676.676	434.41
677.122	424.86
677.567	409.81
678.013	388.96
678.458	391.76
678.904	393.51
679.349	382.21
679.794	381.61
680.24	386.36
680.685	379.26
681.131	382.76
681.576	379.81
682.021	389.56
682.466	394.66
682.912	389.01
683.357	408.01
683.802	449.31
684.247	487.46
684.692	509.71
685.137	533.51
685.583	542.51
686.028	563.76
686.473	545.61
686.918	467.46
687.363	426.66
687.807	408.51
688.252	391.31
688.697	380.91
689.142	364.71
689.587	372.41
690.032	381.46
690.477	389.46
690.921	404.81
691.366	424.26
691.811	441.41
692.255	476.41
692.7	579.26
693.145	830.56
693.589	1241.56
694.034	1473.56
694.478	1556.26
694.923	1430.96
695.367	2007.21
695.812	1253.36
696.256	548.16
696.701	407.41
697.145	378.11
697.59	362.41
698.034	358.61
698.478	356.21
698.922	363.86
699.367	367.26
699.811	388.41
700.255	415.46
700.699	449.91
701.143	488.41
701.588	514.01
702.032	534.51
702.476	547.61
702.92	583.11
703.364	761.16
703.808	1155.41
704.252	1415.21
704.696	1487.36
705.14	1409.76
705.584	1912.21
706.027	1089.81
706.471	562.61
706.915	417.61
707.359	366.41
707.803	353.16
708.246	335.86
708.69	340.51
709.134	331.56
709.577	335.76
710.021	336.71
710.465	340.26
710.908	339.26
711.352	355.01
711.795	388.96
712.239	415.11
712.682	417.31
713.126	422.41
713.569	468.66
714.012	393.41
714.456	346.26
714.899	323.11
715.342	300.56
715.786	285.21
716.229	281.71
716.672	270.11
717.115	273.91
717.558	279.46
718.002	289.41
718.445	295.01
718.888	312.81
719.331	319.06
719.774	321.51
720.217	319.71
720.66	298.56
721.103	287.56
721.546	268.26
721.989	264.36
722.432	263.06
722.874	259.91
723.317	259.21
723.76	285.26
724.203	359.76
724.645	464.96
725.088	545.56
725.531	518.46
725.974	579.76
726.416	517.86
726.859	322.91
727.301	265.16
727.744	259.91
728.187	261.76
728.629	260.91
729.071	274.46
729.514	282.06
729.956	292.16
730.399	298.91
730.841	300.86
731.283	291.96
731.726	284.01
732.168	283.41
732.61	301.56
733.053	324.36
733.495	359.66
733.937	400.91
734.379	470.66
734.821	602.16
735.263	948.36
735.705	1658.91
736.148	2394.86
736.59	2391.16
737.032	2593.41
737.474	2143.91
737.916	865.06
738.357	456.41
738.799	360.76
739.241	327.66
739.683	325.21
740.125	326.51
740.567	331.86
741.008	346.51
741.45	362.16
741.892	371.46
742.334	379.76
742.775	369.46
743.217	349.46
743.658	305.56
744.1	312.66
744.542	342.01
744.983	354.26
745.425	365.96
745.866	366.36
746.307	328.76
746.749	360.16
747.19	522.21
747.632	1005.21
748.073	1805.01
748.514	2464.11
748.956	3270.96
749.397	3806.61
749.838	2635.86
750.279	2503.81
750.72	1336.91
751.162	578.51
751.603	335.81
752.044	269.66
752.485	237.76
752.926	225.26
753.367	215.01
753.808	207.21
754.249	205.71
754.69	199.96
755.131	199.96
755.572	199.61
756.013	198.81
756.453	198.36
756.894	204.36
757.335	209.61
757.776	205.56
758.216	216.01
758.657	227.56
759.098	250.51
759.538	300.36
759.979	444.11
760.42	884.86
760.86	2199.36
761.301	4495.61
761.741	5185.36
762.182	6002.46
762.622	3867.06
763.063	1479.26
763.503	656.11
763.943	517.56
764.384	567.06
764.824	541.16
765.264	541.91
765.705	380.91
766.145	268.61
766.585	234.56
767.025	252.56
767.465	330.81
767.906	408.41
768.346	433.01
768.786	443.41
769.226	438.36
769.666	728.51
770.106	1535.26
770.546	2116.56
770.986	2379.16
771.426	1820.96
771.866	790.36
772.306	367.21
772.745	228.56
773.185	201.16
773.625	208.11
774.065	243.31
774.505	410.46
774.944	819.56
775.384	1210.46
775.824	1381.36
776.263	1132.41
776.703	561.21
777.142	283.11
777.582	188.01
778.021	172.41
778.461	161.06
778.9	158.86
779.34	140.31
779.779	135.61
780.219	132.61
780.658	127.76
781.097	124.96
781.537	118.81
781.976	121.46
782.415	124.36
782.855	121.41
783.294	123.31
783.733	116.81
784.172	123.81
784.611	118.86
785.05	123.31
785.489	128.16
785.928	134.26
786.367	134.51
786.806	146.01
787.245	152.46
787.684	151.76
788.123	145.66
788.562	147.56
789.001	140.61
789.44	134.46
789.879	134.36
790.317	135.31
790.756	146.26
791.195	170.11
791.634	225.66
792.072	410.71
792.511	991.16
792.95	1761.46
793.388	2117.81
793.827	1395.41
794.265	657.46
794.704	318.86
795.142	197.01
795.581	162.96
796.019	142.71
796.458	147.46
796.896	147.16
797.334	173.31
797.773	229.56
798.211	439.21
798.649	903.91
799.087	1488.51
799.526	2050.56
799.964	2108.96
800.402	1467.66
800.84	676.11
801.278	331.26
801.716	205.46
802.154	164.51
802.592	153.11
803.03	151.11
803.468	163.06
803.906	163.61
804.344	160.61
804.782	153.41
805.22	152.16
805.658	161.01
806.096	172.41
806.533	184.91
806.971	241.96
807.409	354.81
807.847	714.61
808.284	1761.06
808.722	3022.41
809.16	4275.66
809.597	5810.86
810.035	7076.86
810.472	4586.61
810.91	2010.06
811.347	909.26
811.785	428.81
812.222	266.86
812.66	207.06
813.097	176.36
813.535	155.46
813.972	141.46
814.409	128.86
814.846	121.86
815.284	118.21
815.721	120.61
816.158	128.36
816.595	160.46
817.032	193.61
817.47	173.86
817.907	143.51
818.344	124.76
818.781	117.96
819.218	144.51
819.655	206.71
820.092	245.66
820.529	239.56
820.966	195.41
821.403	147.51
821.839	126.06
822.276	136.01
822.713	153.91
823.15	147.06
823.587	164.96
824.023	295.21
824.46	735.71
824.897	1253.06
825.333	970.91
825.77	459.16
826.206	236.91
826.643	142.21
827.08	103.91
827.516	95.36
827.953	88.61
828.389	87.31
828.825	80.01
829.262	74.71
829.698	74.01
830.135	66.76
830.571	65.06
831.007	68.56
831.443	66.46
831.88	71.66
832.316	77.76
832.752	72.61
833.188	75.11
833.624	77.46
834.06	78.91
834.497	74.01
834.933	74.01
835.369	92.36
835.805	95.31
836.241	89.21
836.677	101.21
837.112	118.41
837.548	146.96
837.984	220.56
838.42	465.96
838.856	1277.96
839.292	2434.01
839.727	1802.46
840.163	1263.06
840.599	1891.31
841.034	2811.56
841.47	1443.71
841.906	720.11
842.341	411.01
842.777	371.76
843.212	443.71
843.648	256.91
844.083	159.96
844.519	102.31
844.954	83.51
845.39	74.01
845.825	69.76
846.261	70.46
846.696	59.26
847.131	56.61
847.566	65.31
848.002	64.31
848.437	69.11
848.872	71.21
849.307	91.01
849.742	164.01
850.177	425.76
850.613	891.71
851.048	633.56
851.483	294.71
851.918	162.56
852.353	96.46
852.788	79.16
853.223	68.36
853.657	57.16
854.092	55.01
854.527	54.41
854.962	57.41
855.397	55.81
855.832	54.01
856.266	43.41
856.701	45.76
857.136	47.71
857.57	52.56
858.005	59.31
858.44	56.16
858.874	56.16
859.309	52.61
859.743	54.71
860.178	54.81
860.612	62.41
861.047	74.56
861.481	95.51
861.915	69.56
862.35	50.56
862.784	43.26
863.218	43.01
863.653	46.46
864.087	56.16
864.521	68.86
864.955	126.16
865.39	204.71
865.824	145.41
866.258	173.81
866.692	242.31
867.126	171.56
867.56	102.01
867.994	67.41
868.428	56.41
868.862	69.61
869.296	61.86
869.73	78.76
870.164	67.76
870.598	53.61
871.031	46.71
871.465	42.01
871.899	34.76
872.333	30.16
872.766	35.31
873.2	37.76
873.634	33.66
874.067	36.26
874.501	37.36
874.935	32.56
875.368	35.31
875.802	32.41
876.235	28.51
876.669	29.01
877.102	25.61
877.535	29.21
877.969	27.76
878.402	26.71
878.836	22.96
879.269	26.31
879.702	26.21
880.135	28.71
880.569	33.26
881.002	27.76
881.435	29.71
881.868	29.36
882.301	24.61
882.734	22.36
883.167	23.21
883.601	25.91
884.034	21.41
884.467	17.96
884.899	20.51
885.332	18.91
885.765	23.66
886.198	19.76
886.631	20.66
887.064	24.26
887.497	27.61
887.929	23.91
888.362	19.86
888.795	23.01
889.228	23.01
889.66	19.31
890.093	15.51
890.526	22.21
890.958	21.51
891.391	18.86
891.823	17.41
892.256	22.41
892.688	23.36
893.121	19.36
893.553	24.41
893.985	17.61
894.418	15.81
894.85	17.11
895.282	19.11
895.715	17.31
896.147	13.26
896.579	13.56
897.011	21.31
897.444	16.46
897.876	11.91
898.308	16.71
898.74	15.66
899.172	20.06
899.604	21.26
900.036	19.01
900.468	19.11
900.9	15.76
901.332	24.16
901.764	21.26
902.196	25.56
902.628	21.81
903.06	34.41
903.491	32.51
903.923	27.81
904.355	27.66
904.787	32.06
905.218	23.66
905.65	28.76
906.082	23.06
906.513	22.21
906.945	26.96
907.376	21.91
907.808	26.76
908.239	26.61
908.671	24.46
909.102	27.26
909.534	42.76
909.965	83.91
910.397	207.21
910.828	590.56
911.259	359.16
911.691	196.86
912.122	109.01
912.553	52.01
912.984	31.06
913.415	26.21
913.847	21.06
914.278	25.81
914.709	22.36
915.14	21.06
915.571	23.11
916.002	17.71
916.433	15.11
916.864	18.36
917.295	17.86
917.726	19.91
918.157	30.36
918.587	30.36
919.018	28.36
919.449	21.11
919.88	25.01
920.311	43.86
920.741	131.56
921.172	219.06
921.603	109.36
922.033	66.66
922.464	44.21
922.895	27.36
923.325	20.11
923.756	19.41
924.186	33.06
924.617	49.16
925.047	82.51
925.478	73.31
925.908	52.21
926.338	34.41
926.769	17.96
927.199	21.16
927.629	19.91
928.06	20.76
928.49	19.11
928.92	15.21
929.35	14.66
929.78	8.06
930.21	10.26
930.641	3.71
931.071	9.66
931.501	7.46
931.931	7.96
932.361	10.66
932.791	10.41
933.221	12.61
933.651	16.16
934.08	29.61
934.51	18.66
934.94	16.61
935.37	11.61
935.8	12.66
936.229	7.31
936.659	4.71
937.089	6.96
937.519	13.61
937.948	27.16
938.378	16.46
938.807	10.11
939.237	5.96
939.666	5.31
940.096	5.71
940.525	1.71
940.955	2.16
941.384	6.31
941.814	-0.74
942.243	5.71
942.672	1.51
943.102	2.76
943.531	-0.59
943.96	1.71
944.39	3.36
944.819	8.01
945.248	3.86
945.677	3.51
946.106	5.46
946.535	8.71
946.964	2.46
947.393	0.56
947.822	2.51
948.251	9.26
948.68	6.21
949.109	3.21
949.538	0.11
949.967	5.01
950.396	-3.54
950.825	3.96
951.254	0.86
951.682	-1.64
952.111	-2.89
952.54	1.61
952.969	0.21
953.397	-1.49
953.826	-4.34
954.254	0.96
954.683	0.11
955.112	5.61
955.54	3.51
955.969	2.16
956.397	3.61
956.826	1.36
957.254	3.61
957.682	2.81
958.111	2.81
958.539	5.06
958.967	2.66
959.396	5.76
959.824	1.81
960.252	3.51
960.68	2.91
961.109	3.36
961.537	6.06
961.965	-5.49
962.393	2.06
962.821	-0.29
963.249	2.21
963.677	2.61
964.105	32.41
964.533	58.36
964.961	26.51
965.389	16.36
965.817	6.06
966.245	-0.54
966.672	0.56
967.1	-0.94
967.528	-4.59
967.956	-0.69
968.383	5.86
968.811	0.81
969.239	4.56
969.666	1.06
970.094	3.11
970.522	-5.39
970.949	3.01
971.377	-5.84
971.804	-3.84
972.232	-1.69
972.659	3.36
973.087	3.11
973.514	-6.29
973.941	-1.69
974.369	-6.54
974.796	-3.94
975.223	-3.84
975.651	5.86
976.078	1.06
976.505	4.26
976.932	12.66
977.359	13.71
977.786	8.96
978.214	6.26
978.641	-1.39
979.068	1.61
979.495	2.06
979.922	3.11
980.349	-0.84
980.776	2.56
981.202	0.16
981.629	7.01
982.056	0.51
982.483	-6.59
982.91	3.71
983.337	-3.49
983.763	-0.29
984.19	-0.44
984.617	-1.29
985.043	1.46
985.47	4.96
985.897	0.31
986.323	3.71
986.75	-1.84
987.176	-0.14
987.603	1.36
988.029	-1.24
988.456	6.71
988.882	-3.04
989.308	-1.94
989.735	-2.04
990.161	-3.09
990.587	0.01
991.014	0.46
991.44	1.21
991.866	1.51
992.292	3.01
992.719	-0.79
993.145	3.96
993.571	2.01
993.997	5.01
994.423	6.86
994.849	-4.19
995.275	0.16
995.701	-2.79
996.127	-7.09
996.553	-2.64
996.979	-1.64
997.405	0.06
997.83	2.21
998.256	3.26
998.682	-0.89
999.108	1.51
999.534	-9.09
999.959	-0.29
1000.385	1.86
1000.811	-7.24
1001.236	-10.34
1001.662	-2.04
1002.087	5.96
1002.513	-2.19
1002.938	-3.64
1003.364	-3.24
1003.789	1.41
1004.215	1.36
1004.64	-2.74
1005.066	1.66
1005.491	-0.59
1005.916	-0.99
1006.342	-0.04
1006.767	2.16
1007.192	-4.54
1007.617	5.11
1008.042	-3.69
1008.468	-0.29
1008.893	4.41
1009.318	2.46
1009.743	1.21
1010.168	7.71
1010.593	11.26
1011.018	3.51
1011.443	0.11
1011.868	0.21
1012.293	2.41
1012.718	-4.49
1013.143	1.46
1013.567	1.31
1013.992	0.31
1014.417	1.71
1014.842	-2.34
1015.267	-4.69
1015.691	-1.94
1016.116	-0.19
1016.541	1.56
1016.965	1.01
1017.39	-0.79
1017.814	-4.49
1018.239	-2.64
1018.663	-9.34
1019.088	-2.04
1019.512	4.76
1019.937	-5.89
1020.361	-2.69
1020.785	-6.99
1021.21	-3.94
1021.634	1.51
1022.058	-0.94
1022.483	-6.39
1022.907	-5.24
1023.331	-5.84
1023.755	1.31
1024.179	3.46
1024.604	-4.84
1025.028	-2.14
1025.452	4.31
1025.876	0.31
1026.3	-4.59
1026.724	-3.09
1027.148	5.11
1027.572	1.41
1027.996	1.26
1028.42	2.71
1028.843	-4.19
1029.267	-5.14
1029.691	1.06
1030.115	-0.04
1030.539	-2.94
1030.962	-3.74
1031.386	-3.14
1031.81	0.26
1032.233	0.56
1032.657	-1.94
1033.08	-4.09
1033.504	-4.79
1033.927	-5.64
1034.351	-2.44
1034.774	-3.24
1035.198	-7.59
1035.621	-2.14
1036.045	-4.69
1036.468	2.76
1036.891	-0.29
1037.315	4.51
1037.738	-2.54
1038.161	-1.39
1038.584	1.61
1039.008	-4.39
1039.431	-1.69
1039.854	-10.79
1040.277	5.51
1040.7	-3.39
1041.123	-3.89
1041.546	-3.69
1041.969	-0.24
1042.392	-2.19
1042.815	-11.09
1043.238	-5.29
1043.661	0.91
1044.084	-6.24
1044.507	-4.34
1044.93	-0.94
1045.352	-2.09
1045.775	-0.89
1046.198	0.91
1046.621	-0.39
1047.043	-0.84
1047.466	-4.74
1047.889	-3.29
1048.311	-0.04
1048.734	-4.19
1049.156	-3.79
1049.579	-6.64
1050.001	-6.54
1050.424	-1.94
1050.846	-6.24
1051.269	-9.24
1051.691	-6.84
1052.113	3.26
1052.536	-8.54
1052.958	-4.64
1053.38	-0.94
1053.802	-4.59
1054.225	-1.29
1054.647	-0.69
1055.069	-5.29
1055.491	-0.89
1055.913	-3.09
1056.335	-11.19
1056.757	-3.84
1057.179	-3.69
1057.601	-4.19
1058.023	-2.99
1058.445	-5.29
1058.867	-2.44
1059.289	-3.44
1059.711	-1.69
1060.133	-2.54
1060.555	-2.54
1060.976	-1.09
1061.398	-3.09
1061.82	-3.79
1062.241	-7.29
1062.663	-6.39
1063.085	-5.09
1063.506	-7.54
1063.928	-9.59
1064.35	3.01
1064.771	-0.69
1065.193	-6.89
1065.614	-9.69
1066.035	2.51
1066.457	2.16
1066.878	-1.84
1067.3	-3.39
1067.721	-0.99
1068.142	5.61
1068.564	-2.09
1068.985	-4.04
1069.406	-5.89
1069.827	0.56
1070.248	-7.49
1070.67	-8.34
1071.091	-8.39
1071.512	-6.64
1071.933	-1.79
1072.354	-9.69
1072.775	-2.54
1073.196	-2.24
1073.617	-3.34
1074.038	-1.99
1074.459	-6.04
1074.88	-0.84
1075.3	-4.79
1075.721	-1.84
1076.142	-4.44
1076.563	-7.19
1076.983	-0.09
1077.404	-5.14
1077.825	-3.74
1078.246	-3.24
1078.666	-5.64
1079.087	-7.04
1079.507	-7.59
1079.928	-5.39
1080.348	-3.44
1080.769	-4.74
1081.189	-3.99
1081.61	-6.84
1082.03	-0.04
1082.451	-3.54
1082.871	-5.44
1083.291	-2.24
1083.711	-3.89
1084.132	-2.54
1084.552	-5.39
1084.972	-8.94
1085.392	-4.59
1085.813	0.01
1086.233	-8.09
1086.653	-0.49
1087.073	-2.44
1087.493	-7.74
1087.913	-4.09
1088.333	-6.39
1088.753	-2.09
1089.173	0.71
1089.593	-0.49
1090.013	-5.89
1090.433	-7.34
1090.852	2.76
1091.272	-9.84
1091.692	-2.44
1092.112	-5.29
1092.531	-6.99
1092.951	-2.79
1093.371	-6.04
1093.79	-4.09
1094.21	-7.29
1094.63	-1.14
1095.049	-0.94
1095.469	-6.29
1095.888	-1.89
1096.308	-5.69
1096.727	-4.99
1097.146	-5.74
1097.566	-1.49
1097.985	-6.24
1098.405	-5.24
1098.824	-2.04
1099.243	-5.74
1099.662	-5.04
1100.082	-4.24
1100.501	-2.39
1100.92	6.61
1101.339	0.81
1101.758	-1.79
