Data from MSPlasma+Separation6_Subt14_10-15-46-342.txt Node
Date: Fri Jul 21 10:15:46 EDT 2017
User: Ender
Spectrometer: HR+D1039
Trigger mode: 0
Integration Time (sec): 2.510000E-3
Scans to average: 20
Electric dark correction enabled: true
Nonlinearity correction enabled: false
Boxcar width: 0
XAxis mode: Wavelengths
Number of Pixels in Spectrum: 2048
>>>>>Begin Spectral Data<<<<<
187.836	-4.34
188.309	-4.34
188.782	-4.34
189.255	1.31
189.728	-0.19
190.201	0.36
190.674	1.96
191.147	-3.39
191.619	3.16
192.092	-0.39
192.565	-2.74
193.038	2.46
193.511	4.06
193.984	2.21
194.456	-3.19
194.929	-0.39
195.402	-1.44
195.874	0.61
196.347	5.96
196.82	2.56
197.292	-5.04
197.765	-1.89
198.237	-4.19
198.71	-5.79
199.182	1.41
199.655	1.46
200.127	2.26
200.6	-0.64
201.072	-0.69
201.544	-3.44
202.017	3.86
202.489	-0.09
202.961	-0.89
203.433	-3.54
203.906	-4.54
204.378	-1.99
204.85	-0.79
205.322	-2.99
205.794	3.11
206.266	0.96
206.739	3.16
207.211	-5.19
207.683	-1.24
208.155	-1.49
208.627	0.51
209.099	3.16
209.57	1.01
210.042	-0.54
210.514	2.11
210.986	0.51
211.458	10.46
211.93	2.86
212.402	-1.94
212.873	-5.19
213.345	-7.34
213.817	1.01
214.288	-2.94
214.76	2.36
215.232	-3.69
215.703	-1.89
216.175	2.71
216.646	3.81
217.118	0.26
217.589	-6.54
218.061	-2.64
218.532	-5.09
219.004	4.16
219.475	4.21
219.946	8.46
220.418	18.06
220.889	7.71
221.36	4.81
221.832	5.71
222.303	6.11
222.774	0.51
223.245	-2.74
223.717	1.11
224.188	2.06
224.659	3.86
225.13	-3.39
225.601	1.21
226.072	0.66
226.543	4.71
227.014	-1.79
227.485	3.31
227.956	5.21
228.427	5.76
228.898	8.01
229.369	-0.44
229.839	2.46
230.31	5.36
230.781	2.71
231.252	6.46
231.722	10.56
232.193	13.06
232.664	14.26
233.135	17.11
233.605	20.01
234.076	19.06
234.546	12.56
235.017	17.66
235.487	18.86
235.958	16.86
236.428	25.81
236.899	34.01
237.369	45.21
237.84	33.51
238.31	39.66
238.78	35.76
239.251	35.81
239.721	42.26
240.191	29.96
240.662	17.11
241.132	13.81
241.602	20.11
242.072	24.96
242.542	32.51
243.013	21.06
243.483	21.21
243.953	13.51
244.423	14.26
244.893	16.76
245.363	21.06
245.833	18.21
246.303	19.71
246.773	29.26
247.243	29.41
247.712	32.51
248.182	40.51
248.652	45.56
249.122	65.91
249.592	120.81
250.061	189.36
250.531	304.06
251.001	231.81
251.471	192.16
251.94	147.91
252.41	79.21
252.879	51.26
253.349	43.41
253.818	27.86
254.288	34.16
254.757	30.21
255.227	42.46
255.696	30.31
256.166	30.31
256.635	26.91
257.105	37.41
257.574	50.26
258.043	46.31
258.513	94.66
258.982	115.56
259.451	88.61
259.92	81.96
260.389	77.41
260.859	54.06
261.328	69.21
261.797	97.51
262.266	81.91
262.735	41.91
263.204	19.26
263.673	23.36
264.142	16.56
264.611	21.36
265.08	23.61
265.549	23.16
266.018	25.86
266.487	22.16
266.955	15.66
267.424	23.61
267.893	26.26
268.362	26.21
268.83	21.76
269.299	20.61
269.768	28.66
270.236	38.71
270.705	39.81
271.174	36.41
271.642	42.11
272.111	44.61
272.579	79.96
273.048	120.46
273.516	161.96
273.985	158.46
274.453	117.91
274.922	73.31
275.39	46.36
275.858	43.76
276.327	36.66
276.795	34.66
277.263	39.46
277.731	52.31
278.2	107.31
278.668	140.96
279.136	112.31
279.604	69.66
280.072	41.01
280.54	38.56
281.008	39.41
281.477	33.01
281.945	37.41
282.413	35.21
282.881	42.91
283.348	37.16
283.816	45.26
284.284	46.86
284.752	42.21
285.22	46.16
285.688	49.26
286.156	86.81
286.623	233.91
287.091	458.66
287.559	237.56
288.026	90.96
288.494	55.71
288.962	48.81
289.429	49.56
289.897	43.11
290.364	34.01
290.832	38.46
291.3	43.91
291.767	43.91
292.234	46.31
292.702	46.11
293.169	44.91
293.637	57.46
294.104	50.66
294.571	48.91
295.039	46.11
295.506	47.41
295.973	51.26
296.44	48.56
296.908	51.51
297.375	61.96
297.842	64.16
298.309	50.66
298.776	51.26
299.243	55.96
299.71	52.91
300.177	55.71
300.644	54.31
301.111	60.01
301.578	56.51
302.045	53.31
302.512	48.41
302.979	52.41
303.446	58.11
303.913	59.56
304.379	63.71
304.846	70.56
305.313	83.76
305.78	95.01
306.246	116.01
306.713	126.91
307.18	105.31
307.646	119.21
308.113	103.06
308.579	81.66
309.046	80.76
309.512	84.96
309.979	74.56
310.445	65.26
310.912	73.16
311.378	74.16
311.845	71.21
312.311	64.91
312.777	62.01
313.244	69.66
313.71	70.56
314.176	81.26
314.642	102.51
315.109	107.81
315.575	106.91
316.041	94.86
316.507	86.91
316.973	101.86
317.439	98.51
317.905	110.96
318.371	102.86
318.837	100.86
319.303	100.56
319.769	97.06
320.235	111.66
320.701	125.36
321.167	135.11
321.633	161.66
322.099	222.86
322.564	303.01
323.03	233.86
323.496	161.06
323.962	152.56
324.427	143.06
324.893	123.36
325.359	122.71
325.824	101.61
326.29	115.86
326.755	110.96
327.221	110.16
327.686	118.96
328.152	104.91
328.617	101.26
329.083	100.21
329.548	115.31
330.014	108.91
330.479	122.26
330.944	142.21
331.41	169.11
331.875	162.36
332.34	161.36
332.805	190.41
333.271	243.51
333.736	328.01
334.201	289.71
334.666	216.26
335.131	241.61
335.596	199.21
336.061	200.21
336.526	206.16
336.991	178.46
337.456	193.36
337.921	150.16
338.386	121.86
338.851	117.56
339.316	106.31
339.781	101.91
340.246	105.91
340.711	103.56
341.175	107.11
341.64	107.81
342.105	110.56
342.569	115.11
343.034	124.41
343.499	129.71
343.963	125.11
344.428	127.56
344.893	128.41
345.357	130.26
345.822	129.06
346.286	130.86
346.751	132.26
347.215	134.56
347.679	143.36
348.144	151.11
348.608	147.11
349.073	148.31
349.537	170.66
350.001	162.71
350.465	152.66
350.93	147.31
351.394	150.41
351.858	143.61
352.322	158.26
352.786	158.61
353.25	150.21
353.715	152.76
354.179	164.01
354.643	165.11
355.107	174.01
355.571	184.16
356.035	186.91
356.498	184.91
356.962	194.61
357.426	189.46
357.89	173.06
358.354	159.51
358.818	159.21
359.281	170.16
359.745	179.01
360.209	168.11
360.673	174.41
361.136	175.01
361.6	177.66
362.064	184.76
362.527	190.06
362.991	188.61
363.454	186.66
363.918	196.36
364.381	187.16
364.845	183.81
365.308	182.71
365.772	174.66
366.235	182.61
366.698	194.16
367.162	235.66
367.625	264.26
368.088	215.26
368.552	191.26
369.015	193.26
369.478	205.81
369.941	210.76
370.404	215.26
370.867	229.41
371.331	232.51
371.794	231.01
372.257	258.21
372.72	273.36
373.183	268.81
373.646	265.41
374.109	263.71
374.572	310.56
375.035	369.06
375.497	279.96
375.96	221.36
376.423	208.71
376.886	214.56
377.349	219.91
377.811	220.41
378.274	224.21
378.737	225.51
379.199	227.71
379.662	233.41
380.125	256.06
380.587	277.41
381.05	295.96
381.512	288.36
381.975	281.91
382.437	284.76
382.9	286.46
383.362	282.96
383.825	300.56
384.287	386.86
384.75	430.01
385.212	378.46
385.674	312.26
386.136	286.81
386.599	286.71
387.061	291.41
387.523	302.51
387.985	308.96
388.447	322.61
388.91	352.36
389.372	431.61
389.834	410.26
390.296	338.01
390.758	339.71
391.22	347.66
391.682	419.96
392.144	643.91
392.606	602.31
393.068	365.01
393.529	326.01
393.991	322.16
394.453	318.41
394.915	337.56
395.377	400.76
395.838	486.11
396.3	348.76
396.762	277.01
397.224	260.66
397.685	260.01
398.147	261.86
398.608	265.86
399.07	266.01
399.531	264.86
399.993	268.51
400.454	269.86
400.916	265.81
401.377	273.31
401.839	284.31
402.3	278.21
402.762	292.76
403.223	326.91
403.684	330.71
404.145	304.71
404.607	296.36
405.068	297.36
405.529	302.61
405.99	310.91
406.451	312.41
406.913	307.86
407.374	310.36
407.835	309.16
408.296	320.41
408.757	326.91
409.218	333.11
409.679	332.71
410.14	338.01
410.601	358.36
411.062	373.91
411.522	426.21
411.983	469.66
412.444	399.21
412.905	353.71
413.366	355.81
413.826	357.46
414.287	394.86
414.748	475.26
415.208	479.21
415.669	408.91
416.13	377.71
416.59	362.71
417.051	380.96
417.511	391.86
417.972	424.26
418.432	448.86
418.893	502.31
419.353	479.51
419.814	371.96
420.274	336.61
420.734	335.46
421.195	350.11
421.655	371.91
422.115	356.81
422.576	339.96
423.036	346.11
423.496	359.11
423.956	378.56
424.416	404.91
424.876	452.86
425.336	452.56
425.797	450.11
426.257	458.26
426.717	430.31
427.177	401.66
427.637	419.66
428.097	440.66
428.556	453.86
429.016	495.96
429.476	497.46
429.936	485.46
430.396	468.66
430.856	479.91
431.315	491.46
431.775	523.76
432.235	549.36
432.694	571.51
433.154	529.16
433.614	516.01
434.073	500.86
434.533	454.71
434.993	439.61
435.452	435.51
435.912	428.86
436.371	427.81
436.83	421.96
437.29	426.16
437.749	406.51
438.209	402.11
438.668	402.91
439.127	412.31
439.587	396.21
440.046	374.91
440.505	387.66
440.964	385.41
441.424	398.06
441.883	409.81
442.342	386.41
442.801	367.06
443.26	376.61
443.719	378.31
444.178	373.26
444.637	378.11
445.096	373.91
445.555	381.11
446.014	385.36
446.473	365.66
446.932	374.21
447.391	381.86
447.849	380.51
448.308	380.16
448.767	387.71
449.226	395.51
449.685	405.11
450.143	420.06
450.602	419.91
451.061	395.81
451.519	412.01
451.978	417.61
452.436	430.51
452.895	414.46
453.353	399.86
453.812	402.76
454.27	392.96
454.729	384.86
455.187	388.66
455.646	394.71
456.104	397.76
456.562	399.36
457.021	391.21
457.479	369.71
457.937	384.81
458.395	386.96
458.854	386.36
459.312	380.61
459.77	387.46
460.228	395.36
460.686	396.46
461.144	399.56
461.602	393.81
462.06	399.01
462.518	402.41
462.976	400.46
463.434	404.91
463.892	405.06
464.35	415.11
464.808	427.41
465.266	429.71
465.724	438.11
466.181	431.76
466.639	431.06
467.097	457.81
467.555	468.96
468.012	465.21
468.47	468.81
468.928	475.11
469.385	489.11
469.843	497.11
470.3	493.51
470.758	511.96
471.215	526.71
471.673	530.06
472.13	550.26
472.588	559.21
473.045	558.76
473.503	563.51
473.96	593.01
474.417	601.81
474.875	635.36
475.332	648.86
475.789	667.86
476.246	684.51
476.704	721.06
477.161	736.61
477.618	763.16
478.075	812.56
478.532	879.16
478.989	947.86
479.446	1055.21
479.903	1125.26
480.36	1235.61
480.817	1313.96
481.274	1413.96
481.731	1566.96
482.188	1685.41
482.645	1822.06
483.102	1939.41
483.558	2086.96
484.015	2183.41
484.472	2188.36
484.929	2111.66
485.385	2010.46
485.842	1956.76
486.299	1844.21
486.755	1668.16
487.212	1491.46
487.668	1337.11
488.125	1222.46
488.582	1118.66
489.038	1067.86
489.494	1026.46
489.951	996.76
490.407	959.56
490.864	944.56
491.32	917.01
491.776	909.56
492.233	905.06
492.689	894.11
493.145	873.86
493.602	871.81
494.058	885.71
494.514	898.36
494.97	907.76
495.426	913.46
495.882	918.56
496.338	917.76
496.794	951.06
497.251	955.11
497.707	953.36
498.163	945.11
498.618	949.36
499.074	961.36
499.53	983.51
499.986	991.61
500.442	1006.91
500.898	1008.11
501.354	1026.46
501.809	1025.36
502.265	1043.71
502.721	1093.56
503.177	1118.41
503.632	1069.46
504.088	1079.71
504.543	1167.61
504.999	1087.36
505.455	968.01
505.91	915.31
506.366	914.61
506.821	917.16
507.277	903.16
507.732	904.06
508.187	902.41
508.643	913.06
509.098	917.21
509.553	926.01
510.009	934.51
510.464	952.81
510.919	957.26
511.375	977.91
511.83	979.11
512.285	995.61
512.74	1020.26
513.195	1030.01
513.65	1048.21
514.105	1068.36
514.56	1066.76
515.015	1086.66
515.47	1110.06
515.925	1094.16
516.38	1086.06
516.835	1095.26
517.29	1084.16
517.745	1094.96
518.2	1074.36
518.655	1047.06
519.109	1027.06
519.564	1016.06
520.019	1006.46
520.474	997.86
520.928	996.66
521.383	989.56
521.838	988.21
522.292	967.76
522.747	967.61
523.201	970.61
523.656	944.81
524.11	947.56
524.565	950.41
525.019	951.66
525.474	951.66
525.928	948.71
526.382	936.71
526.837	942.01
527.291	939.36
527.745	934.61
528.2	931.96
528.654	921.16
529.108	925.11
529.562	923.86
530.016	930.81
530.47	937.96
530.925	936.06
531.379	928.76
531.833	935.76
532.287	935.46
532.741	934.91
533.195	932.61
533.649	931.56
534.103	926.36
534.556	918.51
535.01	931.71
535.464	926.16
535.918	935.31
536.372	945.16
536.826	934.01
537.279	935.06
537.733	926.41
538.187	936.01
538.64	925.16
539.094	943.66
539.548	952.76
540.001	943.66
540.455	953.61
540.908	960.36
541.362	981.01
541.815	965.41
542.269	1007.46
542.722	990.36
543.175	998.96
543.629	1010.76
544.082	1016.21
544.536	1020.76
544.989	1023.96
545.442	1034.06
545.895	1027.11
546.349	1030.06
546.802	1041.51
547.255	1034.16
547.708	1046.61
548.161	1051.71
548.614	1043.86
549.067	1054.76
549.52	1045.81
549.973	1042.36
550.426	1029.01
550.879	1020.36
551.332	1014.61
551.785	1030.01
552.238	1036.11
552.691	1036.86
553.144	1050.36
553.596	1066.11
554.049	1075.41
554.502	1084.81
554.955	1117.41
555.407	1137.76
555.86	1126.56
556.313	1112.36
556.765	1097.96
557.218	1083.26
557.67	1082.51
558.123	1065.51
558.576	1069.16
559.028	1064.46
559.48	1068.71
559.933	1077.61
560.385	1046.46
560.838	1004.86
561.29	971.66
561.742	983.86
562.195	960.01
562.647	958.61
563.099	953.76
563.551	940.51
564.004	949.06
564.456	941.51
564.908	923.96
565.36	915.36
565.812	896.81
566.264	890.16
566.716	872.41
567.168	866.41
567.62	864.26
568.072	851.21
568.524	850.76
568.976	846.86
569.428	837.91
569.88	839.91
570.332	840.61
570.784	836.31
571.235	826.76
571.687	834.46
572.139	834.96
572.59	849.41
573.042	847.71
573.494	846.46
573.945	836.01
574.397	812.71
574.849	814.56
575.3	828.56
575.752	815.86
576.203	796.61
576.655	808.36
577.106	791.46
577.557	791.41
578.009	786.76
578.46	791.31
578.912	784.61
579.363	783.16
579.814	789.96
580.265	792.76
580.717	791.26
581.168	788.76
581.619	787.11
582.07	798.11
582.521	794.96
582.972	798.51
583.423	798.46
583.875	816.31
584.326	862.46
584.777	934.76
585.227	1022.51
585.678	1093.16
586.129	1109.41
586.58	1129.36
587.031	1147.01
587.482	1220.16
587.933	1410.41
588.384	1305.11
588.834	1074.11
589.285	916.91
589.736	900.46
590.186	911.16
590.637	882.91
591.088	869.51
591.538	855.46
591.989	851.66
592.439	844.46
592.89	838.41
593.34	846.66
593.791	851.06
594.241	850.16
594.692	868.81
595.142	860.36
595.593	847.76
596.043	846.91
596.493	853.51
596.943	874.91
597.394	868.81
597.844	855.21
598.294	860.26
598.744	896.91
599.195	930.51
599.645	983.66
600.095	1019.36
600.545	1073.81
600.995	1117.56
601.445	1155.96
601.895	1214.11
602.345	1239.01
602.795	1234.71
603.245	1174.06
603.695	1110.96
604.145	1050.81
604.594	1005.16
605.044	948.26
605.494	897.61
605.944	853.71
606.393	832.46
606.843	824.56
607.293	820.51
607.743	823.01
608.192	830.11
608.642	827.21
609.091	828.56
609.541	834.31
609.99	824.61
610.44	812.46
610.889	803.01
611.339	797.36
611.788	794.31
612.238	799.11
612.687	801.56
613.136	823.86
613.586	834.06
614.035	831.81
614.484	841.96
614.933	859.91
615.383	835.46
615.832	806.71
616.281	786.46
616.73	760.31
617.179	748.86
617.628	725.36
618.077	719.91
618.526	710.51
618.975	701.56
619.424	683.91
619.873	689.01
620.322	686.76
620.771	683.91
621.22	674.46
621.669	667.61
622.118	655.91
622.567	654.31
623.015	646.01
623.464	639.21
623.913	634.86
624.361	640.56
624.81	624.96
625.259	624.81
625.707	617.46
626.156	618.71
626.604	636.61
627.053	631.31
627.501	623.11
627.95	629.66
628.398	632.36
628.847	639.41
629.295	643.61
629.744	643.51
630.192	666.66
630.64	710.96
631.089	788.16
631.537	820.76
631.985	815.41
632.433	858.61
632.881	853.96
633.33	1024.21
633.778	1114.16
634.226	800.66
634.674	730.86
635.122	732.01
635.57	735.91
636.018	856.16
636.466	702.11
636.914	621.56
637.362	620.61
637.81	625.91
638.258	647.21
638.705	641.31
639.153	667.56
639.601	679.21
640.049	681.06
640.497	701.11
640.944	716.76
641.392	686.46
641.84	656.01
642.287	625.61
642.735	624.81
643.182	618.61
643.63	617.36
644.078	624.36
644.525	628.86
644.973	646.66
645.42	660.56
645.867	672.76
646.315	688.46
646.762	710.41
647.21	733.21
647.657	778.31
648.104	819.21
648.551	842.06
648.999	916.46
649.446	1023.51
649.893	1161.06
650.34	1382.71
650.787	1720.41
651.234	2249.36
651.682	3152.06
652.129	4588.16
652.576	6645.31
653.023	8871.91
653.47	10346.51
653.917	11188.26
654.363	11607.86
654.81	12306.46
655.257	12398.01
655.704	8450.26
656.151	4924.71
656.598	3177.01
657.044	2239.76
657.491	1744.16
657.938	1395.66
658.385	1169.16
658.831	1029.76
659.278	912.16
659.724	828.86
660.171	763.21
660.618	709.86
661.064	670.76
661.511	644.56
661.957	618.96
662.404	604.11
662.85	589.96
663.296	584.96
663.743	576.46
664.189	565.91
664.635	559.91
665.082	542.41
665.528	541.91
665.974	526.66
666.42	532.21
666.867	532.51
667.313	532.21
667.759	560.96
668.205	561.91
668.651	568.61
669.097	548.56
669.543	600.81
669.989	562.11
670.435	491.36
670.881	480.91
671.327	505.16
671.773	533.81
672.219	575.11
672.665	608.06
673.11	631.56
673.556	637.21
674.002	643.56
674.448	648.11
674.893	558.41
675.339	489.41
675.785	456.56
676.23	428.06
676.676	416.56
677.122	403.46
677.567	395.26
678.013	384.66
678.458	378.11
678.904	387.01
679.349	371.91
679.794	377.51
680.24	374.16
680.685	366.36
681.131	370.56
681.576	378.06
682.021	374.21
682.466	383.91
682.912	382.51
683.357	400.16
683.802	430.81
684.247	472.01
684.692	499.61
685.137	514.81
685.583	526.16
686.028	554.36
686.473	517.66
686.918	457.01
687.363	422.31
687.807	400.51
688.252	378.81
688.697	363.26
689.142	354.26
689.587	362.76
690.032	367.91
690.477	380.31
690.921	394.81
691.366	420.36
691.811	431.41
692.255	467.91
692.7	568.06
693.145	829.66
693.589	1229.06
694.034	1449.16
694.478	1518.41
694.923	1385.21
695.367	1917.81
695.812	1209.61
696.256	526.76
696.701	389.01
697.145	369.31
697.59	355.91
698.034	347.86
698.478	352.81
698.922	355.46
699.367	364.81
699.811	377.76
700.255	407.76
700.699	446.36
701.143	477.71
701.588	501.46
702.032	521.76
702.476	529.26
702.92	576.11
703.364	750.56
703.808	1123.36
704.252	1378.06
704.696	1449.21
705.14	1366.11
705.584	1821.86
706.027	1053.81
706.471	540.26
706.915	411.31
707.359	364.66
707.803	346.21
708.246	327.21
708.69	331.21
709.134	328.91
709.577	328.31
710.021	330.96
710.465	330.41
710.908	321.76
711.352	336.31
711.795	376.26
712.239	394.21
712.682	408.61
713.126	409.56
713.569	446.81
714.012	378.81
714.456	331.96
714.899	315.61
715.342	284.66
715.786	287.11
716.229	269.21
716.672	262.11
717.115	268.16
717.558	270.76
718.002	278.26
718.445	290.06
718.888	307.01
719.331	306.86
719.774	319.16
720.217	309.71
720.66	287.51
721.103	279.61
721.546	258.16
721.989	256.71
722.432	252.41
722.874	253.66
723.317	259.06
723.76	280.91
724.203	346.16
724.645	456.11
725.088	529.51
725.531	512.86
725.974	552.06
726.416	501.21
726.859	318.86
727.301	261.96
727.744	250.41
728.187	253.41
728.629	258.61
729.071	263.31
729.514	279.41
729.956	283.91
730.399	292.66
730.841	288.06
731.283	279.66
731.726	279.96
732.168	277.11
732.61	293.46
733.053	316.76
733.495	357.01
733.937	396.36
734.379	466.11
734.821	589.01
735.263	933.11
735.705	1639.66
736.148	2334.86
736.59	2311.51
737.032	2478.26
737.474	2063.31
737.916	843.66
738.357	441.86
738.799	339.91
739.241	317.11
739.683	323.91
740.125	318.11
740.567	325.31
741.008	344.66
741.45	350.06
741.892	363.01
742.334	364.91
742.775	359.21
743.217	341.91
743.658	295.16
744.1	295.81
744.542	337.31
744.983	346.51
745.425	359.71
745.866	361.16
746.307	321.11
746.749	352.01
747.19	512.61
747.632	988.01
748.073	1774.61
748.514	2389.41
748.956	3175.81
749.397	3691.71
749.838	2549.61
750.279	2398.46
750.72	1285.51
751.162	556.76
751.603	323.31
752.044	263.56
752.485	231.71
752.926	217.36
753.367	208.21
753.808	201.61
754.249	196.76
754.69	194.96
755.131	196.81
755.572	194.36
756.013	197.76
756.453	193.91
756.894	202.06
757.335	195.76
757.776	200.96
758.216	208.81
758.657	224.36
759.098	243.56
759.538	294.81
759.979	431.26
760.42	870.61
760.86	2155.96
761.301	4375.31
761.741	5046.16
762.182	5731.61
762.622	3717.71
763.063	1433.16
763.503	633.61
763.943	487.21
764.384	525.66
764.824	494.81
765.264	486.11
765.705	356.71
766.145	255.01
766.585	223.41
767.025	241.96
767.465	313.96
767.906	383.11
768.346	398.56
768.786	409.01
769.226	418.81
769.666	718.41
770.106	1512.91
770.546	2050.81
770.986	2288.51
771.426	1752.56
771.866	764.81
772.306	353.21
772.745	224.96
773.185	189.66
773.625	199.96
774.065	222.36
774.505	381.21
774.944	748.96
775.384	1100.46
775.824	1238.51
776.263	1012.66
776.703	508.76
777.142	260.16
777.582	180.31
778.021	163.31
778.461	151.06
778.9	147.21
779.34	132.41
779.779	134.51
780.219	122.76
780.658	125.71
781.097	122.21
781.537	119.16
781.976	120.56
782.415	116.96
782.855	116.01
783.294	117.81
783.733	118.21
784.172	117.11
784.611	118.66
785.05	119.21
785.489	121.36
785.928	125.26
786.367	130.46
786.806	137.91
787.245	144.51
787.684	148.11
788.123	147.01
788.562	138.36
789.001	141.76
789.44	136.36
789.879	134.41
790.317	133.31
790.756	140.91
791.195	162.86
791.634	221.11
792.072	402.01
792.511	973.36
792.95	1711.31
793.388	2013.56
793.827	1341.21
794.265	636.51
794.704	310.96
795.142	193.81
795.581	161.76
796.019	134.51
796.458	139.61
796.896	139.86
797.334	168.76
797.773	222.76
798.211	433.81
798.649	880.31
799.087	1443.01
799.526	1997.16
799.964	2045.16
800.402	1412.41
800.84	665.96
801.278	332.46
801.716	204.06
802.154	159.86
802.592	155.51
803.03	151.56
803.468	162.21
803.906	158.86
804.344	151.86
804.782	144.76
805.22	150.21
805.658	158.86
806.096	166.21
806.533	179.91
806.971	237.86
807.409	347.86
807.847	700.06
808.284	1717.31
808.722	2910.41
809.16	4118.46
809.597	5636.66
810.035	6794.36
810.472	4369.71
810.91	1954.56
811.347	885.76
811.785	415.11
812.222	261.36
812.66	201.21
813.097	175.06
813.535	157.11
813.972	135.66
814.409	125.31
814.846	119.36
815.284	109.16
815.721	112.91
816.158	127.36
816.595	161.26
817.032	187.96
817.47	174.16
817.907	138.26
818.344	122.91
818.781	110.51
819.218	137.86
819.655	191.46
820.092	243.36
820.529	230.46
820.966	183.41
821.403	143.31
821.839	130.66
822.276	134.51
822.713	146.06
823.15	143.11
823.587	160.01
824.023	288.51
824.46	715.01
824.897	1208.21
825.333	941.36
825.77	447.06
826.206	233.11
826.643	135.46
827.08	103.46
827.516	92.56
827.953	85.51
828.389	80.06
828.825	75.11
829.262	71.11
829.698	70.61
830.135	68.81
830.571	69.81
831.007	68.21
831.443	70.76
831.88	73.36
832.316	77.76
832.752	72.86
833.188	71.46
833.624	70.01
834.06	74.91
834.497	78.01
834.933	76.66
835.369	86.86
835.805	88.96
836.241	89.26
836.677	101.96
837.112	115.11
837.548	141.01
837.984	219.11
838.42	464.61
838.856	1244.31
839.292	2339.41
839.727	1752.71
840.163	1229.91
840.599	1818.86
841.034	2691.21
841.47	1388.81
841.906	696.21
842.341	396.81
842.777	350.61
843.212	401.96
843.648	235.41
844.083	153.56
844.519	101.46
844.954	87.41
845.39	68.76
845.825	68.61
846.261	66.76
846.696	61.01
847.131	56.51
847.566	59.86
848.002	65.51
848.437	71.71
848.872	69.16
849.307	88.01
849.742	162.81
850.177	418.71
850.613	852.16
851.048	610.11
851.483	282.66
851.918	163.96
852.353	89.91
852.788	78.16
853.223	65.46
853.657	55.56
854.092	56.36
854.527	53.26
854.962	50.46
855.397	57.26
855.832	52.11
856.266	42.91
856.701	43.11
857.136	44.86
857.57	53.71
858.005	61.46
858.44	54.21
858.874	53.06
859.309	55.66
859.743	57.71
860.178	47.56
860.612	56.71
861.047	68.81
861.481	92.11
861.915	60.86
862.35	52.71
862.784	40.46
863.218	41.71
863.653	43.56
864.087	52.81
864.521	71.11
864.955	118.51
865.39	201.21
865.824	143.16
866.258	161.81
866.692	230.31
867.126	168.51
867.56	93.36
867.994	64.21
868.428	54.71
868.862	66.61
869.296	57.01
869.73	75.21
870.164	66.36
870.598	55.86
871.031	45.71
871.465	42.71
871.899	34.91
872.333	29.81
872.766	33.71
873.2	36.11
873.634	40.11
874.067	38.46
874.501	35.36
874.935	29.46
875.368	31.46
875.802	33.11
876.235	34.41
876.669	29.86
877.102	22.06
877.535	26.96
877.969	20.61
878.402	25.76
878.836	18.06
879.269	25.61
879.702	22.56
880.135	30.26
880.569	31.46
881.002	22.36
881.435	25.31
881.868	26.01
882.301	26.46
882.734	21.21
883.167	27.06
883.601	26.11
884.034	29.01
884.467	19.81
884.899	25.41
885.332	18.56
885.765	24.26
886.198	17.91
886.631	16.11
887.064	22.56
887.497	18.31
887.929	26.61
888.362	19.66
888.795	23.01
889.228	26.11
889.66	18.86
890.093	19.16
890.526	23.06
890.958	19.91
891.391	24.46
891.823	21.11
892.256	24.71
892.688	20.66
893.121	17.46
893.553	22.06
893.985	24.16
894.418	18.76
894.85	21.01
895.282	19.46
895.715	16.31
896.147	13.26
896.579	13.96
897.011	23.01
897.444	18.81
897.876	12.36
898.308	13.71
898.74	24.41
899.172	19.06
899.604	25.21
900.036	20.71
900.468	12.11
900.9	22.26
901.332	25.81
901.764	22.61
902.196	20.36
902.628	22.21
903.06	30.46
903.491	33.06
903.923	22.96
904.355	29.26
904.787	29.06
905.218	21.91
905.65	22.56
906.082	23.31
906.513	20.36
906.945	23.61
907.376	21.91
907.808	26.11
908.239	28.56
908.671	30.61
909.102	29.51
909.534	41.56
909.965	81.56
910.397	203.61
910.828	562.46
911.259	342.36
911.691	187.41
912.122	112.76
912.553	54.56
912.984	30.21
913.415	25.91
913.847	21.21
914.278	24.26
914.709	18.66
915.14	17.56
915.571	19.41
916.002	20.36
916.433	17.01
916.864	20.61
917.295	19.86
917.726	21.16
918.157	30.41
918.587	29.21
919.018	25.91
919.449	22.26
919.88	28.56
920.311	43.86
920.741	123.81
921.172	213.01
921.603	104.81
922.033	64.21
922.464	46.26
922.895	28.91
923.325	18.76
923.756	17.51
924.186	30.11
924.617	46.06
925.047	72.71
925.478	64.81
925.908	44.01
926.338	29.36
926.769	22.91
927.199	25.51
927.629	16.51
928.06	19.96
928.49	21.16
928.92	18.06
929.35	19.76
929.78	11.61
930.21	12.31
930.641	6.46
931.071	10.21
931.501	10.36
931.931	7.41
932.361	12.41
932.791	10.61
933.221	10.41
933.651	18.66
934.08	30.86
934.51	16.71
934.94	14.76
935.37	11.66
935.8	9.26
936.229	5.11
936.659	4.96
937.089	13.31
937.519	19.16
937.948	30.56
938.378	22.01
938.807	10.76
939.237	8.21
939.666	9.81
940.096	3.76
940.525	4.46
940.955	4.31
941.384	6.06
941.814	4.11
942.243	4.86
942.672	5.76
943.102	2.86
943.531	0.26
943.96	1.51
944.39	8.96
944.819	4.56
945.248	0.26
945.677	1.76
946.106	4.16
946.535	4.01
946.964	6.21
947.393	-0.64
947.822	0.41
948.251	7.81
948.68	9.11
949.109	4.66
949.538	3.11
949.967	4.46
950.396	3.36
950.825	3.56
951.254	2.66
951.682	-1.94
952.111	4.61
952.54	-1.59
952.969	-1.59
953.397	1.56
953.826	-2.39
954.254	2.61
954.683	6.51
955.112	6.11
955.54	2.46
955.969	-1.19
956.397	5.46
956.826	2.66
957.254	1.01
957.682	0.36
958.111	4.41
958.539	1.71
958.967	-1.49
959.396	7.56
959.824	3.36
960.252	5.36
960.68	0.61
961.109	9.56
961.537	5.56
961.965	-0.29
962.393	2.36
962.821	2.26
963.249	6.11
963.677	3.81
964.105	37.96
964.533	58.66
964.961	26.36
965.389	17.31
965.817	10.26
966.245	6.11
966.672	-1.94
967.1	8.71
967.528	-1.44
967.956	-0.44
968.383	-1.29
968.811	-0.69
969.239	2.91
969.666	3.56
970.094	0.66
970.522	-1.59
970.949	1.36
971.377	-8.39
971.804	2.21
972.232	-0.44
972.659	4.86
973.087	4.51
973.514	-0.19
973.941	0.01
974.369	-4.24
974.796	0.26
975.223	-0.19
975.651	4.31
976.078	3.51
976.505	7.01
976.932	14.11
977.359	19.06
977.786	8.11
978.214	3.86
978.641	-1.09
979.068	3.91
979.495	0.31
979.922	3.46
980.349	5.46
980.776	0.11
981.202	-1.24
981.629	5.11
982.056	1.76
982.483	-4.69
982.91	4.06
983.337	-0.09
983.763	-0.49
984.19	3.81
984.617	-0.14
985.043	-0.04
985.47	2.36
985.897	2.96
986.323	1.51
986.75	-1.44
987.176	1.61
987.603	4.16
988.029	3.31
988.456	2.11
988.882	-1.49
989.308	-1.54
989.735	1.86
990.161	3.41
990.587	-0.59
991.014	-1.04
991.44	3.76
991.866	1.41
992.292	0.91
992.719	-0.39
993.145	-0.24
993.571	0.36
993.997	5.31
994.423	4.56
994.849	-3.99
995.275	0.46
995.701	-0.04
996.127	-0.44
996.553	-3.69
996.979	-4.14
997.405	1.26
997.83	1.46
998.256	-1.24
998.682	-0.54
999.108	3.41
999.534	-3.29
999.959	3.06
1000.385	4.11
1000.811	-1.09
1001.236	-3.34
1001.662	-2.94
1002.087	7.31
1002.513	1.71
1002.938	-0.24
1003.364	1.96
1003.789	5.86
1004.215	-3.79
1004.64	-1.69
1005.066	1.41
1005.491	5.96
1005.916	-0.94
1006.342	3.31
1006.767	1.76
1007.192	2.66
1007.617	-0.09
1008.042	1.31
1008.468	-0.09
1008.893	0.51
1009.318	-0.54
1009.743	7.31
1010.168	9.31
1010.593	7.86
1011.018	1.26
1011.443	0.11
1011.868	5.06
1012.293	3.16
1012.718	-2.59
1013.143	-3.64
1013.567	1.36
1013.992	1.06
1014.417	1.01
1014.842	-3.14
1015.267	-0.69
1015.691	4.26
1016.116	1.01
1016.541	5.16
1016.965	-1.84
1017.39	3.31
1017.814	-0.84
1018.239	-1.64
1018.663	-8.99
1019.088	-2.44
1019.512	8.51
1019.937	-2.14
1020.361	0.71
1020.785	-1.44
1021.21	-4.04
1021.634	-1.44
1022.058	-1.89
1022.483	-5.99
1022.907	-5.09
1023.331	-2.89
1023.755	-2.24
1024.179	-0.04
1024.604	-0.99
1025.028	2.96
1025.452	2.21
1025.876	0.86
1026.3	-2.94
1026.724	-4.84
1027.148	3.26
1027.572	2.41
1027.996	0.66
1028.42	4.01
1028.843	0.26
1029.267	-5.24
1029.691	0.86
1030.115	-0.44
1030.539	2.71
1030.962	-4.24
1031.386	0.81
1031.81	0.11
1032.233	-2.89
1032.657	-9.24
1033.08	-0.54
1033.504	-0.19
1033.927	1.16
1034.351	1.51
1034.774	-2.09
1035.198	-4.29
1035.621	-2.64
1036.045	-3.29
1036.468	5.66
1036.891	-0.29
1037.315	-1.19
1037.738	0.96
1038.161	-0.54
1038.584	-1.34
1039.008	-3.04
1039.431	-4.84
1039.854	-8.84
1040.277	3.11
1040.7	3.31
1041.123	1.51
1041.546	-1.89
1041.969	3.66
1042.392	4.11
1042.815	-6.59
1043.238	-2.04
1043.661	0.46
1044.084	0.06
1044.507	-3.09
1044.93	-2.44
1045.352	0.21
1045.775	1.11
1046.198	3.41
1046.621	1.61
1047.043	-7.09
1047.466	1.66
1047.889	-5.64
1048.311	0.61
1048.734	-2.89
1049.156	-5.39
1049.579	1.16
1050.001	-4.44
1050.424	-4.79
1050.846	-5.64
1051.269	-4.19
1051.691	0.06
1052.113	-1.89
1052.536	-1.99
1052.958	-7.74
1053.38	1.46
1053.802	1.26
1054.225	-1.04
1054.647	3.56
1055.069	-4.19
1055.491	2.96
1055.913	-1.79
1056.335	-6.19
1056.757	-7.09
1057.179	-3.49
1057.601	-2.94
1058.023	1.66
1058.445	-5.14
1058.867	-2.19
1059.289	-2.04
1059.711	-4.39
1060.133	-0.69
1060.555	-2.49
1060.976	4.21
1061.398	-2.34
1061.82	0.11
1062.241	-4.74
1062.663	-1.44
1063.085	-3.74
1063.506	-11.89
1063.928	-1.09
1064.35	2.36
1064.771	2.46
1065.193	-4.19
1065.614	-0.74
1066.035	1.66
1066.457	-1.39
1066.878	-0.24
1067.3	-2.19
1067.721	1.31
1068.142	4.21
1068.564	3.01
1068.985	0.21
1069.406	-2.74
1069.827	-0.84
1070.248	-5.99
1070.67	-3.04
1071.091	-7.89
1071.512	-2.09
1071.933	-3.74
1072.354	-7.69
1072.775	-2.74
1073.196	-2.74
1073.617	-6.34
1074.038	-0.94
1074.459	-2.54
1074.88	-0.84
1075.3	0.36
1075.721	1.86
1076.142	-1.64
1076.563	-7.69
1076.983	3.81
1077.404	-8.29
1077.825	2.16
1078.246	-3.39
1078.666	-3.54
1079.087	-1.24
1079.507	-7.59
1079.928	-4.49
1080.348	1.81
1080.769	-1.04
1081.189	-5.29
1081.61	-6.54
1082.03	4.71
1082.451	-2.59
1082.871	-5.99
1083.291	-3.84
1083.711	-4.69
1084.132	-2.29
1084.552	-6.54
1084.972	-4.94
1085.392	-4.94
1085.813	4.51
1086.233	-6.24
1086.653	0.51
1087.073	-3.59
1087.493	-5.19
1087.913	-4.74
1088.333	-2.59
1088.753	-0.79
1089.173	3.11
1089.593	2.71
1090.013	-3.09
1090.433	1.81
1090.852	1.81
1091.272	-5.84
1091.692	1.71
1092.112	-4.39
1092.531	-1.44
1092.951	-3.54
1093.371	-6.59
1093.79	-0.29
1094.21	-2.89
1094.63	-1.84
1095.049	-3.84
1095.469	-10.59
1095.888	-1.19
1096.308	3.16
1096.727	-0.79
1097.146	-3.34
1097.566	-4.24
1097.985	-4.34
1098.405	0.86
1098.824	-1.84
1099.243	-0.44
1099.662	-0.79
1100.082	-3.69
1100.501	0.21
1100.92	6.36
1101.339	-2.09
1101.758	5.96
