Data from MSPlasma+Separation6_Subt14_10-15-42-284.txt Node
Date: Fri Jul 21 10:15:42 EDT 2017
User: Ender
Spectrometer: HR+D1039
Trigger mode: 0
Integration Time (sec): 2.510000E-3
Scans to average: 20
Electric dark correction enabled: true
Nonlinearity correction enabled: false
Boxcar width: 0
XAxis mode: Wavelengths
Number of Pixels in Spectrum: 2048
>>>>>Begin Spectral Data<<<<<
187.836	1.44
188.309	1.44
188.782	1.44
189.255	0.89
189.728	0.79
190.201	1.89
190.674	2.59
191.147	-3.51
191.619	-0.86
192.092	-0.46
192.565	-1.66
193.038	1.59
193.511	2.79
193.984	-0.66
194.456	1.69
194.929	-1.51
195.402	-3.56
195.874	-1.41
196.347	0.79
196.82	4.14
197.292	-0.91
197.765	-2.91
198.237	-0.51
198.71	-4.61
199.182	-0.46
199.655	0.74
200.127	-1.06
200.6	-0.16
201.072	0.89
201.544	2.74
202.017	-2.46
202.489	0.84
202.961	-4.26
203.433	-4.11
203.906	0.24
204.378	0.14
204.85	1.24
205.322	-2.31
205.794	3.64
206.266	1.74
206.739	3.39
207.211	-1.76
207.683	1.09
208.155	-0.31
208.627	-2.51
209.099	0.84
209.57	0.39
210.042	1.79
210.514	-0.81
210.986	4.14
211.458	6.99
211.93	4.99
212.402	-1.86
212.873	-2.21
213.345	-5.91
213.817	1.24
214.288	-2.11
214.76	-0.31
215.232	0.59
215.703	-1.81
216.175	1.49
216.646	-3.91
217.118	0.34
217.589	-1.36
218.061	0.14
218.532	-4.11
219.004	0.14
219.475	5.69
219.946	7.44
220.418	16.64
220.889	8.79
221.36	6.14
221.832	1.69
222.303	3.29
222.774	-4.36
223.245	0.04
223.717	3.14
224.188	3.14
224.659	2.44
225.13	-0.61
225.601	0.79
226.072	2.94
226.543	4.59
227.014	-1.01
227.485	5.84
227.956	2.84
228.427	8.14
228.898	3.09
229.369	4.69
229.839	0.04
230.31	7.84
230.781	3.49
231.252	4.99
231.722	7.79
232.193	13.09
232.664	13.89
233.135	17.09
233.605	22.29
234.076	17.19
234.546	14.54
235.017	17.24
235.487	14.14
235.958	16.79
236.428	28.09
236.899	40.19
237.369	46.54
237.84	31.14
238.31	40.14
238.78	40.74
239.251	39.29
239.721	38.14
240.191	29.29
240.662	19.59
241.132	12.59
241.602	19.69
242.072	23.49
242.542	30.09
243.013	22.34
243.483	20.24
243.953	9.69
244.423	14.44
244.893	16.04
245.363	22.99
245.833	19.74
246.303	23.99
246.773	26.69
247.243	28.64
247.712	34.64
248.182	41.39
248.652	44.09
249.122	66.09
249.592	123.34
250.061	185.89
250.531	300.44
251.001	226.79
251.471	192.54
251.94	144.74
252.41	77.09
252.879	53.54
253.349	43.54
253.818	33.79
254.288	33.79
254.757	30.49
255.227	39.54
255.696	32.79
256.166	28.84
256.635	29.44
257.105	38.79
257.574	50.89
258.043	53.74
258.513	93.39
258.982	118.14
259.451	83.54
259.92	84.24
260.389	80.44
260.859	52.69
261.328	65.79
261.797	99.34
262.266	84.59
262.735	36.99
263.204	25.64
263.673	26.44
264.142	15.39
264.611	20.64
265.08	27.04
265.549	20.64
266.018	16.54
266.487	20.54
266.955	17.79
267.424	29.64
267.893	27.19
268.362	24.74
268.83	20.84
269.299	23.29
269.768	30.39
270.236	29.89
270.705	40.14
271.174	37.84
271.642	39.14
272.111	48.94
272.579	78.79
273.048	122.69
273.516	156.74
273.985	157.54
274.453	119.79
274.922	70.39
275.39	44.89
275.858	41.04
276.327	33.49
276.795	34.34
277.263	35.34
277.731	49.74
278.2	107.44
278.668	137.49
279.136	108.59
279.604	63.29
280.072	36.34
280.54	31.59
281.008	37.44
281.477	35.09
281.945	36.29
282.413	39.44
282.881	39.29
283.348	42.84
283.816	40.34
284.284	43.09
284.752	39.79
285.22	43.64
285.688	44.24
286.156	81.39
286.623	226.54
287.091	437.44
287.559	232.64
288.026	86.79
288.494	54.14
288.962	41.04
289.429	39.59
289.897	37.44
290.364	36.59
290.832	39.19
291.3	40.44
291.767	39.39
292.234	46.79
292.702	41.49
293.169	46.84
293.637	51.54
294.104	54.64
294.571	47.34
295.039	45.09
295.506	40.39
295.973	44.99
296.44	43.84
296.908	51.39
297.375	57.84
297.842	57.34
298.309	49.64
298.776	44.79
299.243	51.89
299.71	47.94
300.177	47.04
300.644	46.79
301.111	61.59
301.578	54.54
302.045	47.24
302.512	46.09
302.979	53.69
303.446	57.99
303.913	56.74
304.379	54.49
304.846	71.24
305.313	78.94
305.78	91.54
306.246	109.99
306.713	117.79
307.18	99.84
307.646	113.04
308.113	97.24
308.579	77.29
309.046	76.74
309.512	80.89
309.979	70.19
310.445	59.84
310.912	64.59
311.378	67.24
311.845	66.39
312.311	57.34
312.777	58.54
313.244	65.44
313.71	71.14
314.176	77.69
314.642	92.19
315.109	102.99
315.575	93.49
316.041	87.34
316.507	79.34
316.973	100.59
317.439	91.29
317.905	107.04
318.371	97.94
318.837	95.94
319.303	100.19
319.769	90.69
320.235	103.04
320.701	117.59
321.167	126.99
321.633	156.94
322.099	212.19
322.564	293.64
323.03	225.54
323.496	157.39
323.962	150.09
324.427	136.34
324.893	118.04
325.359	117.94
325.824	96.39
326.29	107.69
326.755	106.54
327.221	104.84
327.686	110.29
328.152	101.89
328.617	94.59
329.083	92.89
329.548	103.19
330.014	104.39
330.479	118.09
330.944	133.74
331.41	160.69
331.875	146.69
332.34	152.14
332.805	182.99
333.271	235.74
333.736	306.09
334.201	274.19
334.666	208.84
335.131	233.34
335.596	184.94
336.061	193.09
336.526	198.54
336.991	170.39
337.456	186.54
337.921	145.59
338.386	118.04
338.851	105.64
339.316	100.84
339.781	93.44
340.246	99.09
340.711	100.69
341.175	101.19
341.64	98.89
342.105	100.49
342.569	115.49
343.034	110.59
343.499	122.94
343.963	120.04
344.428	116.64
344.893	121.09
345.357	128.39
345.822	122.04
346.286	122.69
346.751	125.84
347.215	123.89
347.679	131.34
348.144	143.14
348.608	140.34
349.073	143.94
349.537	161.64
350.001	155.24
350.465	144.69
350.93	139.34
351.394	142.49
351.858	140.89
352.322	144.29
352.786	148.64
353.25	140.39
353.715	139.59
354.179	152.34
354.643	155.14
355.107	159.24
355.571	169.94
356.035	175.64
356.498	170.74
356.962	178.79
357.426	177.99
357.89	162.84
358.354	147.94
358.818	155.59
359.281	156.69
359.745	163.74
360.209	160.04
360.673	157.94
361.136	167.64
361.6	162.39
362.064	170.84
362.527	181.89
362.991	178.49
363.454	179.89
363.918	185.04
364.381	179.14
364.845	175.49
365.308	164.79
365.772	168.89
366.235	174.34
366.698	177.54
367.162	222.09
367.625	248.99
368.088	200.99
368.552	176.19
369.015	183.84
369.478	195.94
369.941	197.54
370.404	200.54
370.867	213.64
371.331	217.44
371.794	224.44
372.257	249.79
372.72	267.94
373.183	251.69
373.646	254.49
374.109	254.44
374.572	297.64
375.035	346.14
375.497	259.74
375.96	209.79
376.423	198.44
376.886	194.14
377.349	205.59
377.811	206.04
378.274	209.34
378.737	208.39
379.199	217.64
379.662	221.44
380.125	243.94
380.587	264.34
381.05	281.09
381.512	275.49
381.975	273.09
382.437	268.44
382.9	267.14
383.362	264.04
383.825	285.99
384.287	361.99
384.75	411.29
385.212	363.59
385.674	292.14
386.136	271.99
386.599	266.29
387.061	271.49
387.523	282.69
387.985	286.49
388.447	299.49
388.91	345.79
389.372	413.09
389.834	387.49
390.296	321.74
390.758	325.94
391.22	332.79
391.682	408.74
392.144	626.79
392.606	583.49
393.068	359.39
393.529	318.24
393.991	304.24
394.453	304.04
394.915	319.04
395.377	381.64
395.838	469.34
396.3	333.09
396.762	261.94
397.224	248.24
397.685	244.79
398.147	247.14
398.608	252.29
399.07	252.64
399.531	245.89
399.993	253.99
400.454	255.34
400.916	253.79
401.377	259.84
401.839	258.79
402.3	259.49
402.762	279.79
403.223	304.39
403.684	306.89
404.145	286.34
404.607	282.44
405.068	278.19
405.529	284.04
405.99	288.59
406.451	296.44
406.913	282.89
407.374	290.84
407.835	297.34
408.296	304.94
408.757	307.39
409.218	318.44
409.679	317.24
410.14	318.74
410.601	334.59
411.062	348.34
411.522	407.29
411.983	446.29
412.444	380.54
412.905	334.54
413.366	331.14
413.826	342.19
414.287	378.94
414.748	445.69
415.208	453.74
415.669	387.24
416.13	352.39
416.59	344.69
417.051	353.24
417.511	365.79
417.972	396.34
418.432	424.99
418.893	470.29
419.353	449.64
419.814	348.54
420.274	313.04
420.734	312.44
421.195	330.24
421.655	341.64
422.115	340.04
422.576	321.04
423.036	323.89
423.496	342.34
423.956	356.39
424.416	376.64
424.876	426.19
425.336	428.14
425.797	418.39
426.257	422.04
426.717	401.59
427.177	387.94
427.637	391.79
428.097	410.99
428.556	435.99
429.016	471.94
429.476	473.59
429.936	459.09
430.396	439.19
430.856	448.74
431.315	457.99
431.775	494.04
432.235	513.49
432.694	528.14
433.154	497.54
433.614	474.69
434.073	472.89
434.533	427.79
434.993	406.29
435.452	416.69
435.912	398.39
436.371	396.54
436.83	400.24
437.29	405.49
437.749	378.74
438.209	378.39
438.668	382.84
439.127	378.94
439.587	373.79
440.046	361.34
440.505	364.24
440.964	362.59
441.424	372.29
441.883	379.64
442.342	361.99
442.801	345.99
443.26	359.64
443.719	357.94
444.178	344.94
444.637	356.64
445.096	349.54
445.555	357.44
446.014	360.89
446.473	348.54
446.932	345.04
447.391	356.54
447.849	361.14
448.308	358.49
448.767	366.69
449.226	372.94
449.685	380.34
450.143	390.79
450.602	389.39
451.061	379.94
451.519	383.64
451.978	381.39
452.436	401.89
452.895	381.99
453.353	375.34
453.812	383.59
454.27	374.69
454.729	362.49
455.187	363.79
455.646	364.99
456.104	363.49
456.562	374.54
457.021	366.54
457.479	352.69
457.937	359.89
458.395	369.14
458.854	364.29
459.312	360.39
459.77	368.19
460.228	370.64
460.686	367.49
461.144	373.74
461.602	368.99
462.06	366.59
462.518	385.59
462.976	379.74
463.434	385.14
463.892	375.29
464.35	393.69
464.808	393.04
465.266	400.44
465.724	413.79
466.181	409.49
466.639	410.89
467.097	422.04
467.555	436.39
468.012	437.04
468.47	434.29
468.928	451.74
469.385	466.14
469.843	470.39
470.3	470.19
470.758	487.14
471.215	496.84
471.673	504.84
472.13	521.09
472.588	526.44
473.045	534.79
473.503	536.84
473.96	557.09
474.417	562.94
474.875	597.64
475.332	614.89
475.789	629.39
476.246	646.89
476.704	677.74
477.161	694.69
477.618	718.69
478.075	762.69
478.532	828.39
478.989	897.49
479.446	989.64
479.903	1067.69
480.36	1169.49
480.817	1251.04
481.274	1354.39
481.731	1489.39
482.188	1602.59
482.645	1720.54
483.102	1846.34
483.558	1969.34
484.015	2054.79
484.472	2061.84
484.929	1993.09
485.385	1898.49
485.842	1838.19
486.299	1747.44
486.755	1575.69
487.212	1411.69
487.668	1261.04
488.125	1159.64
488.582	1058.49
489.038	1010.14
489.494	976.14
489.951	938.04
490.407	909.04
490.864	901.94
491.32	869.39
491.776	852.89
492.233	852.34
492.689	840.89
493.145	828.34
493.602	821.19
494.058	838.24
494.514	848.24
494.97	856.24
495.426	864.34
495.882	866.84
496.338	867.14
496.794	897.14
497.251	901.44
497.707	900.94
498.163	898.44
498.618	900.64
499.074	911.14
499.53	921.29
499.986	946.19
500.442	960.99
500.898	955.99
501.354	975.74
501.809	979.44
502.265	991.29
502.721	1044.24
503.177	1066.49
503.632	1022.49
504.088	1016.39
504.543	1123.54
504.999	1038.59
505.455	915.24
505.91	871.09
506.366	862.89
506.821	857.84
507.277	853.69
507.732	857.84
508.187	853.94
508.643	870.14
509.098	866.44
509.553	866.09
510.009	884.44
510.464	896.49
510.919	902.14
511.375	914.94
511.83	934.54
512.285	943.69
512.74	970.99
513.195	979.49
513.65	1001.99
514.105	1014.19
514.56	1013.69
515.015	1034.84
515.47	1042.54
515.925	1034.94
516.38	1027.64
516.835	1034.49
517.29	1025.14
517.745	1037.69
518.2	1016.84
518.655	992.09
519.109	975.74
519.564	963.34
520.019	955.19
520.474	952.24
520.928	938.14
521.383	945.59
521.838	942.54
522.292	925.64
522.747	919.99
523.201	914.94
523.656	903.49
524.11	906.84
524.565	899.79
525.019	906.99
525.474	907.99
525.928	909.34
526.382	897.09
526.837	882.19
527.291	888.94
527.745	885.94
528.2	885.04
528.654	870.64
529.108	877.04
529.562	877.74
530.016	882.14
530.47	882.24
530.925	884.49
531.379	880.99
531.833	892.19
532.287	883.14
532.741	882.69
533.195	880.74
533.649	879.34
534.103	880.84
534.556	874.39
535.01	883.29
535.464	879.34
535.918	878.44
536.372	887.34
536.826	885.19
537.279	875.59
537.733	875.94
538.187	878.14
538.64	877.14
539.094	885.44
539.548	904.79
540.001	896.79
540.455	906.39
540.908	909.19
541.362	920.54
541.815	926.34
542.269	948.34
542.722	939.54
543.175	946.34
543.629	955.89
544.082	960.49
544.536	972.54
544.989	975.19
545.442	983.44
545.895	982.09
546.349	986.64
546.802	979.14
547.255	977.99
547.708	984.34
548.161	995.24
548.614	991.54
549.067	995.19
549.52	984.79
549.973	976.74
550.426	977.79
550.879	972.84
551.332	963.39
551.785	976.54
552.238	990.79
552.691	979.89
553.144	1009.09
553.596	1015.34
554.049	1024.04
554.502	1034.59
554.955	1057.39
555.407	1071.04
555.86	1066.19
556.313	1048.64
556.765	1046.54
557.218	1031.04
557.67	1031.29
558.123	1016.69
558.576	1015.09
559.028	1009.04
559.48	1020.89
559.933	1016.74
560.385	988.54
560.838	962.29
561.29	921.89
561.742	921.99
562.195	917.94
562.647	903.19
563.099	898.69
563.551	902.99
564.004	908.49
564.456	902.74
564.908	881.79
565.36	858.84
565.812	844.89
566.264	838.59
566.716	829.64
567.168	821.34
567.62	823.79
568.072	801.84
568.524	806.94
568.976	803.79
569.428	796.14
569.88	790.99
570.332	794.59
570.784	792.84
571.235	786.64
571.687	792.54
572.139	791.29
572.59	799.79
573.042	806.29
573.494	803.79
573.945	786.29
574.397	775.79
574.849	774.64
575.3	782.44
575.752	770.54
576.203	763.24
576.655	763.09
577.106	749.44
577.557	755.74
578.009	754.54
578.46	755.44
578.912	740.54
579.363	747.14
579.814	743.99
580.265	747.94
580.717	746.44
581.168	741.69
581.619	755.59
582.07	751.69
582.521	755.19
582.972	753.24
583.423	764.34
583.875	782.59
584.326	817.39
584.777	887.94
585.227	972.59
585.678	1034.84
586.129	1053.34
586.58	1075.49
587.031	1084.09
587.482	1144.59
587.933	1327.69
588.384	1228.04
588.834	1020.64
589.285	868.94
589.736	850.99
590.186	853.09
590.637	844.54
591.088	824.99
591.538	823.04
591.989	816.34
592.439	810.84
592.89	793.69
593.34	798.14
593.791	805.99
594.241	808.24
594.692	825.79
595.142	818.94
595.593	798.29
596.043	804.54
596.493	815.64
596.943	837.34
597.394	827.64
597.844	810.69
598.294	821.99
598.744	842.34
599.195	883.49
599.645	935.99
600.095	983.39
600.545	1028.99
600.995	1065.99
601.445	1096.14
601.895	1150.84
602.345	1188.89
602.795	1170.34
603.245	1124.04
603.695	1062.79
604.145	992.34
604.594	946.44
605.044	906.34
605.494	857.79
605.944	807.59
606.393	793.19
606.843	787.64
607.293	785.34
607.743	780.39
608.192	788.84
608.642	793.44
609.091	790.24
609.541	780.89
609.99	781.24
610.44	766.19
610.889	762.74
611.339	757.79
611.788	753.09
612.238	758.99
612.687	767.79
613.136	782.74
613.586	785.59
614.035	795.59
614.484	797.34
614.933	805.69
615.383	798.59
615.832	767.64
616.281	751.09
616.73	726.84
617.179	702.84
617.628	693.64
618.077	682.44
618.526	667.54
618.975	668.49
619.424	652.44
619.873	656.74
620.322	643.89
620.771	656.14
621.22	649.59
621.669	629.29
622.118	631.49
622.567	622.49
623.015	604.79
623.464	617.19
623.913	599.59
624.361	607.54
624.81	596.44
625.259	592.59
625.707	586.64
626.156	594.19
626.604	600.49
627.053	596.54
627.501	596.74
627.95	602.04
628.398	616.54
628.847	608.04
629.295	603.64
629.744	621.94
630.192	637.89
630.64	686.94
631.089	761.74
631.537	798.24
631.985	803.94
632.433	839.69
632.881	833.54
633.33	991.79
633.778	1090.54
634.226	774.14
634.674	703.59
635.122	698.89
635.57	712.84
636.018	820.24
636.466	674.99
636.914	590.84
637.362	584.74
637.81	592.34
638.258	607.24
638.705	614.94
639.153	640.94
639.601	648.89
640.049	655.29
640.497	666.14
640.944	685.74
641.392	662.04
641.84	623.69
642.287	606.74
642.735	594.69
643.182	589.14
643.63	597.54
644.078	594.44
644.525	602.69
644.973	618.24
645.42	632.79
645.867	636.94
646.315	657.44
646.762	685.39
647.21	699.09
647.657	736.49
648.104	775.74
648.551	806.84
648.999	880.24
649.446	973.44
649.893	1110.64
650.34	1321.29
650.787	1643.44
651.234	2154.04
651.682	3010.74
652.129	4380.94
652.576	6366.19
653.023	8489.94
653.47	9902.24
653.917	10682.69
654.363	11070.69
654.81	11717.29
655.257	11777.44
655.704	8013.79
656.151	4674.94
656.598	2996.99
657.044	2140.79
657.491	1655.79
657.938	1325.64
658.385	1115.99
658.831	975.64
659.278	871.74
659.724	781.54
660.171	729.44
660.618	672.89
661.064	634.89
661.511	616.74
661.957	583.69
662.404	572.84
662.85	566.14
663.296	553.29
663.743	535.29
664.189	536.54
664.635	530.44
665.082	514.54
665.528	510.04
665.974	497.54
666.42	498.49
666.867	503.79
667.313	506.64
667.759	534.89
668.205	532.19
668.651	534.49
669.097	516.29
669.543	558.59
669.989	532.34
670.435	468.89
670.881	464.94
671.327	485.39
671.773	509.19
672.219	545.09
672.665	582.89
673.11	600.29
673.556	607.69
674.002	617.39
674.448	616.49
674.893	533.89
675.339	466.49
675.785	428.79
676.23	408.29
676.676	397.69
677.122	385.14
677.567	375.99
678.013	362.89
678.458	368.74
678.904	368.09
679.349	355.09
679.794	356.19
680.24	358.99
680.685	350.89
681.131	353.44
681.576	352.99
682.021	359.29
682.466	360.29
682.912	359.24
683.357	382.29
683.802	415.24
684.247	453.84
684.692	479.24
685.137	489.49
685.583	498.54
686.028	524.04
686.473	503.79
686.918	430.74
687.363	398.84
687.807	380.14
688.252	361.14
688.697	352.89
689.142	337.69
689.587	340.09
690.032	352.34
690.477	361.59
690.921	379.04
691.366	399.39
691.811	407.89
692.255	445.44
692.7	538.59
693.145	779.59
693.589	1171.29
694.034	1369.49
694.478	1441.39
694.923	1323.49
695.367	1812.14
695.812	1151.59
696.256	500.44
696.701	375.89
697.145	348.34
697.59	332.44
698.034	336.04
698.478	331.14
698.922	340.54
699.367	342.19
699.811	354.54
700.255	387.29
700.699	421.54
701.143	454.74
701.588	474.69
702.032	495.74
702.476	506.29
702.92	540.79
703.364	714.04
703.808	1075.79
704.252	1307.14
704.696	1367.29
705.14	1285.39
705.584	1712.99
706.027	1010.94
706.471	517.34
706.915	393.94
707.359	343.09
707.803	322.64
708.246	314.29
708.69	315.29
709.134	309.19
709.577	308.84
710.021	313.54
710.465	315.29
710.908	307.79
711.352	321.24
711.795	355.14
712.239	384.64
712.682	395.84
713.126	384.74
713.569	424.59
714.012	364.74
714.456	312.09
714.899	295.24
715.342	274.49
715.786	268.99
716.229	263.59
716.672	249.94
717.115	251.14
717.558	256.44
718.002	264.44
718.445	275.49
718.888	290.24
719.331	288.24
719.774	299.24
720.217	290.59
720.66	271.54
721.103	263.09
721.546	250.64
721.989	247.54
722.432	238.09
722.874	240.79
723.317	243.44
723.76	273.24
724.203	331.84
724.645	429.14
725.088	506.34
725.531	486.09
725.974	524.19
726.416	477.59
726.859	305.04
727.301	248.94
727.744	237.54
728.187	235.89
728.629	242.59
729.071	251.44
729.514	267.84
729.956	274.89
730.399	273.54
730.841	275.09
731.283	268.24
731.726	265.39
732.168	265.44
732.61	285.14
733.053	303.44
733.495	339.59
733.937	376.34
734.379	440.99
734.821	561.84
735.263	898.79
735.705	1552.49
736.148	2232.79
736.59	2194.79
737.032	2325.79
737.474	1953.24
737.916	801.09
738.357	421.04
738.799	329.14
739.241	301.89
739.683	299.64
740.125	304.74
740.567	308.34
741.008	318.99
741.45	336.94
741.892	346.24
742.334	344.84
742.775	344.69
743.217	322.04
743.658	280.84
744.1	286.59
744.542	320.09
744.983	328.84
745.425	340.59
745.866	344.09
746.307	304.79
746.749	333.64
747.19	489.94
747.632	941.39
748.073	1697.99
748.514	2278.94
748.956	3016.04
749.397	3486.54
749.838	2424.19
750.279	2247.29
750.72	1222.59
751.162	533.19
751.603	305.94
752.044	249.74
752.485	223.54
752.926	205.34
753.367	194.54
753.808	195.14
754.249	193.09
754.69	188.59
755.131	186.99
755.572	184.24
756.013	183.84
756.453	187.04
756.894	192.74
757.335	195.14
757.776	191.89
758.216	203.54
758.657	216.19
759.098	236.79
759.538	284.49
759.979	413.24
760.42	834.34
760.86	2060.24
761.301	4167.59
761.741	4768.89
762.182	5408.39
762.622	3492.39
763.063	1345.84
763.503	592.19
763.943	451.89
764.384	479.44
764.824	452.74
765.264	442.19
765.705	320.84
766.145	232.79
766.585	212.94
767.025	219.44
767.465	286.19
767.906	346.24
768.346	357.64
768.786	379.64
769.226	395.84
769.666	682.44
770.106	1430.14
770.546	1948.04
770.986	2155.39
771.426	1645.59
771.866	723.74
772.306	332.94
772.745	210.44
773.185	183.24
773.625	192.14
774.065	221.49
774.505	368.39
774.944	718.99
775.384	1071.04
775.824	1191.49
776.263	980.14
776.703	493.24
777.142	252.79
777.582	171.34
778.021	151.89
778.461	146.09
778.9	147.84
779.34	131.24
779.779	125.44
780.219	122.19
780.658	117.74
781.097	118.74
781.537	112.29
781.976	113.04
782.415	115.89
782.855	114.89
783.294	113.09
783.733	113.34
784.172	114.69
784.611	112.69
785.05	114.84
785.489	114.14
785.928	117.09
786.367	126.39
786.806	130.39
787.245	144.59
787.684	145.34
788.123	138.59
788.562	135.44
789.001	129.94
789.44	127.64
789.879	130.04
790.317	125.19
790.756	135.19
791.195	152.49
791.634	214.39
792.072	385.64
792.511	934.29
792.95	1627.69
793.388	1900.54
793.827	1264.64
794.265	609.44
794.704	289.14
795.142	181.89
795.581	151.54
796.019	132.99
796.458	132.79
796.896	140.84
797.334	157.54
797.773	209.14
798.211	407.29
798.649	844.84
799.087	1372.44
799.526	1891.49
799.964	1923.84
800.402	1330.14
800.84	631.89
801.278	312.24
801.716	187.34
802.154	147.69
802.592	143.64
803.03	147.54
803.468	145.39
803.906	151.94
804.344	145.14
804.782	140.69
805.22	142.34
805.658	151.59
806.096	161.89
806.533	178.74
806.971	227.84
807.409	331.29
807.847	659.89
808.284	1623.44
808.722	2761.54
809.16	3886.39
809.597	5344.79
810.035	6432.04
810.472	4143.14
810.91	1840.94
811.347	846.09
811.785	396.89
812.222	242.24
812.66	191.54
813.097	166.69
813.535	144.44
813.972	130.29
814.409	118.94
814.846	114.54
815.284	106.64
815.721	114.49
816.158	122.44
816.595	153.39
817.032	180.14
817.47	164.09
817.907	133.04
818.344	115.44
818.781	110.69
819.218	130.59
819.655	186.64
820.092	230.69
820.529	219.04
820.966	178.49
821.403	138.44
821.839	116.49
822.276	123.39
822.713	140.59
823.15	142.24
823.587	152.74
824.023	279.89
824.46	683.84
824.897	1140.44
825.333	887.39
825.77	425.29
826.206	223.64
826.643	130.84
827.08	100.54
827.516	87.44
827.953	81.24
828.389	78.64
828.825	76.29
829.262	75.09
829.698	65.84
830.135	62.74
830.571	59.49
831.007	68.29
831.443	69.64
831.88	68.54
832.316	76.84
832.752	68.59
833.188	62.54
833.624	70.39
834.06	70.54
834.497	66.84
834.933	67.19
835.369	80.99
835.805	85.09
836.241	84.39
836.677	92.14
837.112	105.69
837.548	133.74
837.984	205.64
838.42	444.64
838.856	1174.44
839.292	2203.34
839.727	1649.49
840.163	1167.04
840.599	1730.19
841.034	2543.59
841.47	1316.39
841.906	666.79
842.341	382.74
842.777	331.69
843.212	381.59
843.648	225.84
844.083	144.09
844.519	101.74
844.954	79.04
845.39	69.49
845.825	61.44
846.261	62.84
846.696	59.29
847.131	54.09
847.566	55.49
848.002	58.74
848.437	65.74
848.872	66.94
849.307	81.49
849.742	153.69
850.177	396.69
850.613	804.29
851.048	572.44
851.483	268.59
851.918	153.89
852.353	92.14
852.788	70.54
853.223	64.84
853.657	55.19
854.092	47.89
854.527	49.59
854.962	51.79
855.397	54.69
855.832	51.89
856.266	45.29
856.701	41.44
857.136	40.79
857.57	48.89
858.005	54.19
858.44	49.14
858.874	48.44
859.309	48.99
859.743	49.44
860.178	52.24
860.612	47.74
861.047	67.44
861.481	88.74
861.915	60.44
862.35	49.49
862.784	39.09
863.218	37.79
863.653	39.89
864.087	46.84
864.521	70.94
864.955	114.29
865.39	192.09
865.824	134.49
866.258	155.09
866.692	225.79
867.126	166.74
867.56	90.69
867.994	63.84
868.428	56.74
868.862	63.74
869.296	56.29
869.73	74.24
870.164	62.39
870.598	59.09
871.031	42.29
871.465	41.44
871.899	33.24
872.333	28.39
872.766	33.94
873.2	32.89
873.634	30.69
874.067	32.79
874.501	30.64
874.935	31.74
875.368	32.99
875.802	28.64
876.235	27.09
876.669	25.74
877.102	23.94
877.535	25.89
877.969	26.54
878.402	28.39
878.836	20.19
879.269	25.89
879.702	24.49
880.135	24.89
880.569	32.69
881.002	24.09
881.435	23.59
881.868	25.64
882.301	22.04
882.734	21.39
883.167	22.54
883.601	23.04
884.034	390.29
884.467	382.74
884.899	389.89
885.332	386.49
885.765	386.24
886.198	383.39
886.631	383.84
887.064	384.39
887.497	385.29
887.929	384.44
888.362	386.29
888.795	382.94
889.228	390.34
889.66	389.54
890.093	386.24
890.526	385.54
890.958	389.59
891.391	387.84
891.823	385.39
892.256	389.39
892.688	383.74
893.121	383.74
893.553	386.04
893.985	385.44
894.418	384.24
894.85	388.44
895.282	386.89
895.715	377.94
896.147	379.79
896.579	382.89
897.011	387.54
897.444	384.39
897.876	380.29
898.308	378.04
898.74	382.94
899.172	387.94
899.604	387.14
900.036	384.69
900.468	376.99
900.9	387.34
901.332	391.74
901.764	391.19
902.196	387.74
902.628	389.14
903.06	396.39
903.491	394.54
903.923	390.89
904.355	396.49
904.787	396.84
905.218	388.64
905.65	391.09
906.082	386.54
906.513	388.79
906.945	390.94
907.376	387.64
907.808	392.49
908.239	390.99
908.671	395.09
909.102	399.94
909.534	404.94
909.965	444.04
910.397	548.54
910.828	871.14
911.259	682.19
911.691	539.69
912.122	467.19
912.553	418.54
912.984	395.19
913.415	394.79
913.847	393.44
914.278	391.69
914.709	385.84
915.14	385.49
915.571	385.24
916.002	384.24
916.433	381.84
916.864	384.84
917.295	382.89
917.726	389.04
918.157	392.14
918.587	391.29
919.018	387.99
919.449	388.69
919.88	390.74
920.311	404.44
920.741	477.29
921.172	555.44
921.603	458.29
922.033	428.59
922.464	404.74
922.895	389.99
923.325	380.99
923.756	383.89
924.186	396.19
924.617	408.24
925.047	439.74
925.478	428.79
925.908	408.14
926.338	395.04
926.769	389.64
927.199	386.49
927.629	384.09
928.06	386.94
928.49	388.94
928.92	380.54
929.35	381.44
929.78	380.49
930.21	379.04
930.641	372.79
931.071	375.69
931.501	374.74
931.931	376.04
932.361	377.04
932.791	377.54
933.221	378.74
933.651	384.14
934.08	395.89
934.51	380.84
934.94	380.39
935.37	380.04
935.8	374.94
936.229	375.24
936.659	369.74
937.089	378.44
937.519	378.34
937.948	392.89
938.378	379.39
938.807	376.49
939.237	372.84
939.666	371.34
940.096	375.64
940.525	366.14
940.955	372.14
941.384	371.64
941.814	373.54
942.243	372.09
942.672	370.54
943.102	369.69
943.531	370.09
943.96	369.84
944.39	370.89
944.819	369.04
945.248	368.39
945.677	372.09
946.106	370.94
946.535	373.74
946.964	371.39
947.393	367.89
947.822	372.64
948.251	376.74
948.68	372.59
949.109	372.14
949.538	368.34
949.967	368.14
950.396	368.79
950.825	371.24
951.254	369.54
951.682	366.99
952.111	368.04
952.54	373.09
952.969	369.09
953.397	367.79
953.826	369.49
954.254	370.89
954.683	371.04
955.112	375.54
955.54	370.74
955.969	369.04
956.397	373.44
956.826	368.94
957.254	369.84
957.682	370.19
958.111	372.34
958.539	371.19
958.967	368.24
959.396	375.64
959.824	372.24
960.252	368.54
960.68	371.04
961.109	374.44
961.537	377.49
961.965	367.34
962.393	370.69
962.821	369.14
963.249	369.89
963.677	372.59
964.105	399.09
964.533	418.84
964.961	395.04
965.389	376.99
965.817	374.54
966.245	368.44
966.672	368.14
967.1	373.49
967.528	362.99
967.956	368.69
968.383	367.54
968.811	369.79
969.239	370.69
969.666	371.04
970.094	369.09
970.522	363.99
970.949	366.49
971.377	364.99
971.804	367.49
972.232	367.74
972.659	368.34
973.087	368.49
973.514	366.24
973.941	368.09
974.369	364.59
974.796	367.74
975.223	365.54
975.651	371.09
976.078	368.24
976.505	373.79
976.932	381.14
977.359	382.99
977.786	381.04
978.214	376.44
978.641	367.79
979.068	367.44
979.495	365.79
979.922	367.84
980.349	369.69
980.776	371.29
981.202	368.94
981.629	368.54
982.056	368.29
982.483	362.69
982.91	372.79
983.337	363.99
983.763	369.39
984.19	371.54
984.617	368.79
985.043	371.34
985.47	371.79
985.897	373.69
986.323	372.24
986.75	365.19
987.176	367.04
987.603	370.39
988.029	366.69
988.456	371.39
988.882	365.59
989.308	363.99
989.735	369.54
990.161	367.64
990.587	367.09
991.014	368.59
991.44	370.89
991.866	370.74
992.292	363.64
992.719	365.54
993.145	370.29
993.571	369.54
993.997	375.94
994.423	371.69
994.849	361.94
995.275	368.69
995.701	369.69
996.127	363.79
996.553	363.54
996.979	367.09
997.405	368.79
997.83	369.84
998.256	367.89
998.682	366.74
999.108	369.64
999.534	361.89
999.959	365.94
1000.385	369.64
1000.811	363.29
1001.236	361.14
1001.662	365.29
1002.087	373.69
1002.513	368.69
1002.938	366.69
1003.364	371.04
1003.789	368.64
1004.215	365.39
1004.64	362.59
1005.066	370.29
1005.491	372.59
1005.916	372.04
1006.342	372.29
1006.767	369.24
1007.192	369.64
1007.617	369.99
1008.042	364.84
1008.468	368.94
1008.893	367.84
1009.318	366.29
1009.743	369.84
1010.168	377.94
1010.593	378.54
1011.018	370.64
1011.443	370.19
1011.868	370.54
1012.293	369.24
1012.718	360.99
1013.143	365.44
1013.567	370.04
1013.992	366.74
1014.417	368.99
1014.842	367.29
1015.267	367.84
1015.691	368.24
1016.116	367.49
1016.541	368.99
1016.965	368.49
1017.39	369.34
1017.814	366.44
1018.239	368.89
1018.663	361.84
1019.088	364.39
1019.512	370.94
1019.937	360.24
1020.361	368.14
1020.785	368.44
1021.21	366.94
1021.634	368.59
1022.058	367.54
1022.483	359.34
1022.907	364.14
1023.331	367.24
1023.755	367.34
1024.179	364.34
1024.604	363.54
1025.028	368.19
1025.452	370.59
1025.876	370.99
1026.3	369.14
1026.724	364.09
1027.148	368.64
1027.572	368.49
1027.996	365.59
1028.42	366.64
1028.843	366.94
1029.267	365.74
1029.691	370.04
1030.115	367.04
1030.539	366.44
1030.962	365.49
1031.386	369.69
1031.81	364.69
1032.233	365.94
1032.657	361.79
1033.08	370.29
1033.504	367.84
1033.927	362.24
1034.351	365.64
1034.774	369.04
1035.198	365.09
1035.621	365.59
1036.045	363.34
1036.468	373.34
1036.891	367.14
1037.315	373.14
1037.738	365.79
1038.161	367.84
1038.584	364.69
1039.008	366.39
1039.431	368.74
1039.854	360.69
1040.277	367.84
1040.7	367.94
1041.123	367.44
1041.546	363.74
1041.969	370.19
1042.392	370.94
1042.815	361.14
1043.238	366.74
1043.661	364.34
1044.084	360.64
1044.507	367.29
1044.93	363.59
1045.352	367.09
1045.775	365.49
1046.198	368.64
1046.621	367.54
1047.043	366.19
1047.466	364.09
1047.889	365.69
1048.311	371.04
1048.734	365.99
1049.156	366.04
1049.579	367.89
1050.001	363.54
1050.424	364.44
1050.846	363.69
1051.269	363.24
1051.691	367.39
1052.113	366.59
1052.536	367.24
1052.958	364.74
1053.38	365.49
1053.802	368.99
1054.225	366.74
1054.647	365.94
1055.069	367.74
1055.491	368.54
1055.913	370.74
1056.335	358.99
1056.757	366.14
1057.179	367.79
1057.601	364.14
1058.023	369.64
1058.445	360.89
1058.867	367.99
1059.289	366.19
1059.711	362.69
1060.133	367.49
1060.555	363.69
1060.976	366.19
1061.398	366.54
1061.82	364.44
1062.241	366.14
1062.663	365.59
1063.085	361.54
1063.506	360.29
1063.928	363.34
1064.35	365.94
1064.771	367.64
1065.193	366.49
1065.614	365.39
1066.035	372.49
1066.457	367.44
1066.878	366.49
1067.3	365.44
1067.721	365.64
1068.142	369.24
1068.564	370.89
1068.985	363.54
1069.406	360.39
1069.827	367.09
1070.248	361.94
1070.67	360.14
1071.091	361.54
1071.512	367.39
1071.933	367.54
1072.354	358.89
1072.775	364.84
1073.196	368.99
1073.617	365.89
1074.038	365.54
1074.459	365.64
1074.88	362.89
1075.3	367.59
1075.721	366.69
1076.142	362.54
1076.563	364.54
1076.983	369.04
1077.404	361.54
1077.825	370.04
1078.246	362.39
1078.666	361.44
1079.087	364.54
1079.507	364.24
1079.928	364.24
1080.348	366.29
1080.769	366.24
1081.189	366.64
1081.61	358.34
1082.03	367.99
1082.451	370.39
1082.871	360.39
1083.291	365.14
1083.711	367.49
1084.132	368.49
1084.552	360.49
1084.972	363.04
1085.392	362.54
1085.813	368.84
1086.233	366.84
1086.653	366.69
1087.073	366.14
1087.493	363.84
1087.913	358.04
1088.333	362.29
1088.753	374.29
1089.173	365.29
1089.593	370.74
1090.013	363.34
1090.433	361.14
1090.852	371.09
1091.272	365.09
1091.692	368.04
1092.112	363.29
1092.531	363.24
1092.951	365.24
1093.371	366.14
1093.79	363.59
1094.21	364.24
1094.63	368.59
1095.049	367.79
1095.469	357.64
1095.888	362.34
1096.308	366.19
1096.727	360.64
1097.146	359.89
1097.566	365.24
1097.985	365.74
1098.405	366.14
1098.824	370.94
1099.243	366.89
1099.662	365.84
1100.082	362.44
1100.501	366.69
1100.92	369.94
1101.339	369.89
1101.758	370.89
