Data from MSPlasma+Separation6_Subt14_10-15-44-329.txt Node
Date: Fri Jul 21 10:15:44 EDT 2017
User: Ender
Spectrometer: HR+D1039
Trigger mode: 0
Integration Time (sec): 2.510000E-3
Scans to average: 20
Electric dark correction enabled: true
Nonlinearity correction enabled: false
Boxcar width: 0
XAxis mode: Wavelengths
Number of Pixels in Spectrum: 2048
>>>>>Begin Spectral Data<<<<<
187.836	-2.1
188.309	-2.1
188.782	-2.1
189.255	1.8
189.728	-0.65
190.201	0.65
190.674	0.1
191.147	-1.25
191.619	0.85
192.092	0
192.565	0.6
193.038	1.9
193.511	3.2
193.984	-1.8
194.456	0.95
194.929	-1.9
195.402	-5.15
195.874	2.75
196.347	0.9
196.82	2.95
197.292	-1.1
197.765	0.05
198.237	-3.6
198.71	-4.8
199.182	1.9
199.655	1.4
200.127	1.95
200.6	-1.75
201.072	0.5
201.544	-3.1
202.017	-2
202.489	-0.75
202.961	-2.1
203.433	-2.75
203.906	1.75
204.378	-0.8
204.85	3.35
205.322	-0.7
205.794	-1.15
206.266	-1
206.739	0.95
207.211	-4.85
207.683	-4.6
208.155	-0.95
208.627	1.6
209.099	-0.5
209.57	-3.5
210.042	0.8
210.514	-2.15
210.986	1.15
211.458	2
211.93	0.25
212.402	-2.45
212.873	-5.1
213.345	-3.55
213.817	3.1
214.288	-6.1
214.76	0.95
215.232	-2.7
215.703	0.1
216.175	-2.25
216.646	-0.05
217.118	1.1
217.589	-5.95
218.061	-1.15
218.532	-4.4
219.004	3.45
219.475	7.3
219.946	14.1
220.418	14.25
220.889	5.15
221.36	5.8
221.832	3.65
222.303	-0.1
222.774	1.1
223.245	-1.5
223.717	1.5
224.188	3.4
224.659	2.65
225.13	-1.3
225.601	3.15
226.072	1.95
226.543	2.15
227.014	-0.9
227.485	0.1
227.956	3.1
228.427	2.35
228.898	2.4
229.369	2.5
229.839	1.6
230.31	6.9
230.781	7.55
231.252	6.35
231.722	11.6
232.193	6.6
232.664	6.3
233.135	17.45
233.605	15.55
234.076	15.15
234.546	13.8
235.017	15.5
235.487	11.95
235.958	15.45
236.428	22.3
236.899	33.15
237.369	42.95
237.84	31.85
238.31	39.05
238.78	35.1
239.251	36.85
239.721	37.45
240.191	20.85
240.662	13.55
241.132	8.15
241.602	14.85
242.072	23.45
242.542	25.2
243.013	18.85
243.483	17.9
243.953	8.4
244.423	11.35
244.893	18.2
245.363	17.7
245.833	16.85
246.303	23.1
246.773	31.05
247.243	26.45
247.712	27.55
248.182	38.4
248.652	42.55
249.122	57.55
249.592	115.2
250.061	176.65
250.531	275.2
251.001	213.8
251.471	179.3
251.94	135.05
252.41	68.65
252.879	42.15
253.349	40.65
253.818	26.65
254.288	27.1
254.757	26.1
255.227	37.5
255.696	26.3
256.166	30.45
256.635	29.95
257.105	36.35
257.574	45.8
258.043	46.8
258.513	83.9
258.982	106.25
259.451	78.9
259.92	72.1
260.389	69.85
260.859	52.6
261.328	61.7
261.797	90.3
262.266	77.75
262.735	37.85
263.204	17.75
263.673	16.75
264.142	8.85
264.611	13.65
265.08	16.45
265.549	19.6
266.018	18.45
266.487	20
266.955	17.05
267.424	24.55
267.893	22.9
268.362	24.3
268.83	19
269.299	23.5
269.768	27.15
270.236	31.6
270.705	37.25
271.174	34.5
271.642	38.05
272.111	40.7
272.579	71.1
273.048	110.15
273.516	139.9
273.985	142.05
274.453	101.7
274.922	62.4
275.39	37.8
275.858	34.35
276.327	29.35
276.795	24.5
277.263	36.45
277.731	50.8
278.2	94.6
278.668	125.8
279.136	99.35
279.604	61.3
280.072	38.05
280.54	29.9
281.008	35.35
281.477	37.15
281.945	30.75
282.413	33.5
282.881	32.1
283.348	34.9
283.816	38.2
284.284	38.75
284.752	40.8
285.22	41.45
285.688	42.05
286.156	74.6
286.623	213.05
287.091	417.7
287.559	218.1
288.026	86.7
288.494	49.4
288.962	37.8
289.429	38
289.897	35.1
290.364	36.4
290.832	32.4
291.3	35.2
291.767	35.1
292.234	40.2
292.702	39.75
293.169	44.25
293.637	48.8
294.104	45.75
294.571	40
295.039	44.15
295.506	38.65
295.973	39.9
296.44	41.9
296.908	48.85
297.375	49.95
297.842	54.8
298.309	44
298.776	45.4
299.243	48.85
299.71	47
300.177	42.4
300.644	50.55
301.111	53.4
301.578	50.15
302.045	41.95
302.512	41.55
302.979	50.3
303.446	51.9
303.913	49.8
304.379	59.55
304.846	62.3
305.313	71.7
305.78	86.05
306.246	104.15
306.713	111.45
307.18	100.65
307.646	108.45
308.113	90.05
308.579	67.15
309.046	69.15
309.512	71.7
309.979	68.75
310.445	56.7
310.912	58.15
311.378	63.15
311.845	62.2
312.311	56.25
312.777	58.65
313.244	59
313.71	67.65
314.176	77.05
314.642	84.45
315.109	98.9
315.575	86.05
316.041	83.4
316.507	77.1
316.973	86.2
317.439	87.65
317.905	102.45
318.371	92.4
318.837	87.7
319.303	93.25
319.769	85
320.235	97.45
320.701	107.7
321.167	123.7
321.633	144.3
322.099	206.5
322.564	274.85
323.03	216.3
323.496	150
323.962	144.55
324.427	130
324.893	113.7
325.359	113.6
325.824	95.8
326.29	99.85
326.755	94.05
327.221	96.2
327.686	107
328.152	96.3
328.617	88.9
329.083	93.25
329.548	95.25
330.014	100.05
330.479	111.35
330.944	131
331.41	154.1
331.875	145.7
332.34	152.15
332.805	171.35
333.271	223.4
333.736	295.9
334.201	265.4
334.666	197.85
335.131	220.4
335.596	179.3
336.061	184.9
336.526	190.05
336.991	159.55
337.456	175.9
337.921	137.25
338.386	111.1
338.851	103.55
339.316	92.9
339.781	88.65
340.246	92.5
340.711	90.4
341.175	92
341.64	94.8
342.105	101.05
342.569	106.55
343.034	110.35
343.499	111.95
343.963	110.9
344.428	111.6
344.893	114.4
345.357	118.55
345.822	112
346.286	115.55
346.751	118.55
347.215	117.85
347.679	122.7
348.144	135.7
348.608	127.8
349.073	133.05
349.537	151.2
350.001	144.7
350.465	139.2
350.93	129.15
351.394	130.7
351.858	127.65
352.322	141.45
352.786	139
353.25	131.7
353.715	136.45
354.179	148.1
354.643	148
355.107	153.3
355.571	161.95
356.035	159.9
356.498	162.15
356.962	174.7
357.426	170.75
357.89	149.9
358.354	144.35
358.818	140.9
359.281	148.65
359.745	154.2
360.209	146.8
360.673	152.6
361.136	154.95
361.6	155.85
362.064	163.75
362.527	170.4
362.991	172.4
363.454	172.9
363.918	174.45
364.381	170.8
364.845	164.25
365.308	160.05
365.772	158.55
366.235	164.55
366.698	173.85
367.162	206.95
367.625	235.5
368.088	189.85
368.552	167.9
369.015	177.2
369.478	187.95
369.941	190.4
370.404	195.4
370.867	206.1
371.331	209.2
371.794	217.35
372.257	236.55
372.72	248.15
373.183	241.6
373.646	242
374.109	243.9
374.572	283.6
375.035	336.7
375.497	248.6
375.96	201.85
376.423	190.65
376.886	189.25
377.349	193.9
377.811	194.6
378.274	200.05
378.737	196.6
379.199	206.3
379.662	212.7
380.125	230.7
380.587	252
381.05	270.45
381.512	267.4
381.975	259.95
382.437	259.85
382.9	257.05
383.362	256.05
383.825	271.5
384.287	348.4
384.75	387
385.212	344.8
385.674	280.15
386.136	257.4
386.599	254.75
387.061	260.75
387.523	271.5
387.985	274.65
388.447	285.65
388.91	327.45
389.372	399.1
389.834	371.75
390.296	302.15
390.758	306.45
391.22	314.4
391.682	386.1
392.144	582.05
392.606	544.15
393.068	336.7
393.529	307.95
393.991	283.85
394.453	280.15
394.915	300
395.377	354.15
395.838	434.7
396.3	309.6
396.762	240.7
397.224	230.65
397.685	228.35
398.147	233.15
398.608	238.7
399.07	242
399.531	234.85
399.993	232
400.454	234.45
400.916	240.9
401.377	250.7
401.839	246.5
402.3	246.05
402.762	262.55
403.223	291.5
403.684	292.95
404.145	269.45
404.607	267.55
405.068	261.05
405.529	271.45
405.99	273.55
406.451	279
406.913	268.95
407.374	273.5
407.835	280.65
408.296	295.1
408.757	298.8
409.218	298.25
409.679	293.65
410.14	303.35
410.601	314.95
411.062	336.35
411.522	385.8
411.983	421
412.444	359.9
412.905	312.85
413.366	317.55
413.826	324.95
414.287	362.7
414.748	419.85
415.208	429.85
415.669	359.1
416.13	336.2
416.59	321.2
417.051	338.25
417.511	352.3
417.972	375.45
418.432	401.4
418.893	439.45
419.353	423.15
419.814	331.2
420.274	300.8
420.734	297.35
421.195	319.4
421.655	331.8
422.115	316.7
422.576	307
423.036	307.15
423.496	323.35
423.956	340.75
424.416	361.05
424.876	406.75
425.336	403.05
425.797	404.6
426.257	408.85
426.717	382.4
427.177	360.25
427.637	375.3
428.097	398.2
428.556	419.7
429.016	450.45
429.476	453
429.936	441.25
430.396	426.8
430.856	426.75
431.315	446.1
431.775	469.4
432.235	493.7
432.694	503.7
433.154	474.8
433.614	463.75
434.073	447.1
434.533	408.9
434.993	392.45
435.452	398.7
435.912	381.6
436.371	382.85
436.83	379.1
437.29	381.5
437.749	363.35
438.209	363.35
438.668	365.35
439.127	360.25
439.587	352
440.046	340.45
440.505	345.85
440.964	348.15
441.424	353
441.883	361.5
442.342	341.05
442.801	328.45
443.26	343.05
443.719	332.2
444.178	333
444.637	338.55
445.096	333.35
445.555	348.95
446.014	344.7
446.473	334.55
446.932	332.85
447.391	338.55
447.849	347
448.308	342.9
448.767	352.15
449.226	358.1
449.685	361.5
450.143	375.35
450.602	381
451.061	362.55
451.519	368.55
451.978	374.05
452.436	388.85
452.895	371.85
453.353	360.05
453.812	357.15
454.27	354.75
454.729	341.05
455.187	347.25
455.646	348.1
456.104	356.65
456.562	354.4
457.021	347.05
457.479	331.7
457.937	342.55
458.395	349.05
458.854	348.9
459.312	344.4
459.77	345.55
460.228	354.7
460.686	355.75
461.144	357.85
461.602	352.9
462.06	355.1
462.518	361.35
462.976	355.85
463.434	363.85
463.892	366.8
464.35	377.25
464.808	368.9
465.266	381.7
465.724	391.8
466.181	390.4
466.639	388.4
467.097	405.2
467.555	414.25
468.012	418.45
468.47	420.4
468.928	433.4
469.385	449.7
469.843	446.6
470.3	451.55
470.758	460
471.215	472.15
471.673	472.45
472.13	493.3
472.588	503.45
473.045	510.55
473.503	511.05
473.96	534
474.417	535.6
474.875	571.45
475.332	593.55
475.789	602.05
476.246	625.9
476.704	648.5
477.161	672.5
477.618	687.65
478.075	731.75
478.532	796.1
478.989	871.85
479.446	967
479.903	1028.6
480.36	1141.4
480.817	1233.4
481.274	1324.65
481.731	1458
482.188	1574
482.645	1701.35
483.102	1797.8
483.558	1933.25
484.015	2027.95
484.472	2017.2
484.929	1949.8
485.385	1863.75
485.842	1797.05
486.299	1699.6
486.755	1518.85
487.212	1361.05
487.668	1210.5
488.125	1106.7
488.582	1020.7
489.038	975.35
489.494	932.75
489.951	896.75
490.407	869.9
490.864	862.35
491.32	831.8
491.776	823.3
492.233	817.25
492.689	812.85
493.145	803.1
493.602	794.05
494.058	808.45
494.514	823.95
494.97	817.6
495.426	832.55
495.882	834.05
496.338	836.3
496.794	867.2
497.251	878.7
497.707	870.7
498.163	875.9
498.618	869
499.074	882.5
499.53	892.05
499.986	915.4
500.442	926.2
500.898	928.35
501.354	946.1
501.809	940.8
502.265	965.15
502.721	999.1
503.177	1023.1
503.632	971.25
504.088	973.5
504.543	1066.35
504.999	992.2
505.455	888
505.91	837.4
506.366	825.1
506.821	817.9
507.277	808.4
507.732	817.85
508.187	821.75
508.643	828.2
509.098	833.7
509.553	834.95
510.009	844.95
510.464	869.45
510.919	859.8
511.375	879.25
511.83	887.75
512.285	902.3
512.74	939.15
513.195	932.25
513.65	956.65
514.105	972.45
514.56	976.5
515.015	989.75
515.47	1002.85
515.925	991.9
516.38	987.9
516.835	987.05
517.29	985.95
517.745	983.35
518.2	980.3
518.655	957.15
519.109	929.2
519.564	919.8
520.019	928.2
520.474	906.1
520.928	906.9
521.383	905.25
521.838	894.1
522.292	892.2
522.747	877.6
523.201	881.95
523.656	864.1
524.11	866.6
524.565	857.9
525.019	861.4
525.474	873.5
525.928	864.55
526.382	856.55
526.837	845.7
527.291	858.45
527.745	846.25
528.2	849.7
528.654	826.3
529.108	839.55
529.562	836.95
530.016	844.45
530.47	858.8
530.925	845.85
531.379	843.6
531.833	854.75
532.287	854.85
532.741	845.6
533.195	848.75
533.649	848.25
534.103	850.9
534.556	834.4
535.01	849.4
535.464	849.25
535.918	846.05
536.372	854.9
536.826	849.75
537.279	842.75
537.733	843.25
538.187	846.25
538.64	853.25
539.094	853.2
539.548	861.8
540.001	861.15
540.455	866.9
540.908	873.35
541.362	885.3
541.815	893.05
542.269	920.5
542.722	902.75
543.175	915
543.629	922.95
544.082	924.9
544.536	935.4
544.989	938.8
545.442	933.6
545.895	940.5
546.349	945.1
546.802	936.85
547.255	943.25
547.708	956.15
548.161	958.1
548.614	952
549.067	960.3
549.52	951.35
549.973	941
550.426	945.85
550.879	932.25
551.332	934.65
551.785	944.8
552.238	946.3
552.691	943.25
553.144	962.9
553.596	986.55
554.049	980.35
554.502	1009.3
554.955	1013.85
555.407	1032.8
555.86	1023.85
556.313	1013.3
556.765	1005.7
557.218	990.1
557.67	986.6
558.123	976.2
558.576	975.85
559.028	970.45
559.48	983
559.933	975.95
560.385	950.15
560.838	916.85
561.29	890.35
561.742	892.2
562.195	873.35
562.647	865.4
563.099	865.2
563.551	864.3
564.004	867.2
564.456	862.8
564.908	842.05
565.36	823.9
565.812	814.4
566.264	805.4
566.716	801.25
567.168	790.55
567.62	791.3
568.072	778.3
568.524	769.95
568.976	767.95
569.428	762.35
569.88	755.05
570.332	769.25
570.784	765.55
571.235	752.35
571.687	767.65
572.139	757.4
572.59	767.4
573.042	779.05
573.494	779
573.945	761.6
574.397	746.2
574.849	749.15
575.3	751
575.752	738.6
576.203	736.6
576.655	739.25
577.106	730.85
577.557	727
578.009	721.1
578.46	724.8
578.912	711.3
579.363	726.8
579.814	722.25
580.265	727
580.717	722.65
581.168	717.7
581.619	716.3
582.07	734.45
582.521	739.8
582.972	728.2
583.423	725.6
583.875	759.25
584.326	797.65
584.777	878.05
585.227	969.45
585.678	1037
586.129	1044.95
586.58	1065.5
587.031	1075.4
587.482	1141.65
587.933	1329.35
588.384	1220.5
588.834	1001.55
589.285	847.7
589.736	824.15
590.186	821.15
590.637	814.95
591.088	797.15
591.538	784.4
591.989	783.75
592.439	777.55
592.89	769.95
593.34	779.55
593.791	784.05
594.241	786.85
594.692	802.65
595.142	798.9
595.593	777
596.043	772.85
596.493	787.25
596.943	796.7
597.394	790.4
597.844	782.35
598.294	786.9
598.744	820.9
599.195	857.1
599.645	907.5
600.095	947.2
600.545	996.6
600.995	1033.85
601.445	1066.3
601.895	1108.3
602.345	1146.15
602.795	1119.35
603.245	1079.6
603.695	1010.45
604.145	954.95
604.594	924.05
605.044	870.7
605.494	819.95
605.944	780.9
606.393	765.65
606.843	762.6
607.293	762.35
607.743	752.95
608.192	765.9
608.642	764.2
609.091	767.8
609.541	762.6
609.99	759.9
610.44	745.85
610.889	737.9
611.339	732.85
611.788	730.5
612.238	737.7
612.687	753.65
613.136	760.35
613.586	767.35
614.035	770.95
614.484	782.9
614.933	787.95
615.383	770.6
615.832	744.1
616.281	722.55
616.73	701.9
617.179	688.6
617.628	672.8
618.077	662.65
618.526	653.75
618.975	651
619.424	631.2
619.873	635.15
620.322	630
620.771	628.3
621.22	627.8
621.669	612
622.118	612.75
622.567	604.1
623.015	585.95
623.464	598.65
623.913	583
624.361	582.95
624.81	585.25
625.259	574.85
625.707	564.05
626.156	572.25
626.604	580.2
627.053	582.2
627.501	579.2
627.95	585.8
628.398	584.55
628.847	579.4
629.295	586.9
629.744	596.55
630.192	615.1
630.64	666.65
631.089	742.3
631.537	779.25
631.985	772.5
632.433	806.25
632.881	800.15
633.33	958.15
633.778	1046.05
634.226	742.55
634.674	679.65
635.122	676.45
635.57	682.75
636.018	789.55
636.466	646.35
636.914	572
637.362	571.9
637.81	573.4
638.258	595.75
638.705	595.9
639.153	623.7
639.601	624.9
640.049	630.2
640.497	643.7
640.944	659.8
641.392	637.8
641.84	594.15
642.287	577.5
642.735	582.5
643.182	574.75
643.63	571.05
644.078	574.65
644.525	587.25
644.973	605.3
645.42	616.5
645.867	622.65
646.315	644.4
646.762	662.65
647.21	682.55
647.657	723.4
648.104	768.45
648.551	792.15
648.999	866.3
649.446	967.35
649.893	1100.5
650.34	1301.95
650.787	1631.35
651.234	2146.25
651.682	3027.85
652.129	4444.55
652.576	6459.1
653.023	8601
653.47	10011.3
653.917	10748.65
654.363	11057.65
654.81	11654.35
655.257	11687.85
655.704	7929.65
656.151	4610.85
656.598	2959.45
657.044	2092.15
657.491	1630.4
657.938	1298
658.385	1097.7
658.831	955.95
659.278	845.2
659.724	768.35
660.171	718
660.618	657.7
661.064	619.05
661.511	596
661.957	574.45
662.404	557.15
662.85	549.55
663.296	540.95
663.743	526.3
664.189	518.35
664.635	510.8
665.082	497.75
665.528	500.25
665.974	488.55
666.42	493.4
666.867	484.15
667.313	501.2
667.759	527.45
668.205	525.7
668.651	532.15
669.097	514.85
669.543	558.5
669.989	528.5
670.435	455.2
670.881	451.65
671.327	469.65
671.773	491.1
672.219	533.7
672.665	571.8
673.11	576.45
673.556	583.1
674.002	588.6
674.448	593.3
674.893	510.55
675.339	446.5
675.785	421.75
676.23	399.5
676.676	383.7
677.122	382.15
677.567	359.55
678.013	345.95
678.458	352.65
678.904	347.8
679.349	338.95
679.794	346.7
680.24	343.3
680.685	334.25
681.131	340.6
681.576	339.75
682.021	348.1
682.466	353.1
682.912	350.8
683.357	367.9
683.802	401.4
684.247	436.25
684.692	462.45
685.137	482.25
685.583	480.6
686.028	506.85
686.473	479.6
686.918	413.95
687.363	385.2
687.807	370.4
688.252	344.4
688.697	341.05
689.142	328.85
689.587	334.75
690.032	339.45
690.477	356.95
690.921	366.65
691.366	380.95
691.811	402.45
692.255	432.1
692.7	528.2
693.145	766.75
693.589	1145.6
694.034	1332.2
694.478	1391.55
694.923	1263.15
695.367	1720.2
695.812	1099.5
696.256	488.75
696.701	362.7
697.145	335.5
697.59	323.9
698.034	319.2
698.478	320.6
698.922	326.5
699.367	331.6
699.811	351.85
700.255	380
700.699	408.05
701.143	439.35
701.588	462.45
702.032	472.8
702.476	489.65
702.92	512.1
703.364	689.55
703.808	1057.25
704.252	1271.65
704.696	1325.05
705.14	1234.15
705.584	1638.3
706.027	960
706.471	498.95
706.915	371.8
707.359	334.55
707.803	312.35
708.246	304.9
708.69	301.9
709.134	297.05
709.577	298.85
710.021	305.05
710.465	301.7
710.908	297.25
711.352	315.8
711.795	343.65
712.239	371.25
712.682	383.9
713.126	375.3
713.569	413.35
714.012	345.2
714.456	304.9
714.899	286.35
715.342	269.45
715.786	252.35
716.229	246.75
716.672	245
717.115	241.4
717.558	248.85
718.002	246.75
718.445	263.5
718.888	277.9
719.331	286.3
719.774	286.05
720.217	283.95
720.66	258.7
721.103	255.25
721.546	238.8
721.989	232.25
722.432	234.5
722.874	236.4
723.317	233.5
723.76	253.8
724.203	318.05
724.645	421.3
725.088	482.5
725.531	468.5
725.974	496.65
726.416	455.35
726.859	289
727.301	241.35
727.744	231.4
728.187	233.15
728.629	237.2
729.071	244.2
729.514	260.9
729.956	263.1
730.399	265.85
730.841	264.25
731.283	256.35
731.726	254.7
732.168	255.75
732.61	269.8
733.053	289.85
733.495	322.85
733.937	356.7
734.379	424.4
734.821	543.25
735.263	864.45
735.705	1520.7
736.148	2163.3
736.59	2102.6
737.032	2216.1
737.474	1854.2
737.916	774.35
738.357	408.75
738.799	315.3
739.241	289.1
739.683	289.2
740.125	289
740.567	294.55
741.008	307
741.45	317.3
741.892	339.3
742.334	333.9
742.775	322.7
743.217	307.8
743.658	278
744.1	277.55
744.542	305.65
744.983	311.05
745.425	325.75
745.866	323.45
746.307	296.7
746.749	322
747.19	474.7
747.632	916.15
748.073	1653.7
748.514	2209.35
748.956	2892.7
749.397	3333.6
749.838	2314.35
750.279	2147.85
750.72	1176.05
751.162	512.35
751.603	289.5
752.044	235.55
752.485	211.55
752.926	196.35
753.367	189.05
753.808	183.55
754.249	183.85
754.69	176.3
755.131	179.1
755.572	180.9
756.013	179.75
756.453	182.15
756.894	189
757.335	180.45
757.776	186.2
758.216	195.1
758.657	205.75
759.098	227
759.538	275.25
759.979	401.3
760.42	811.35
760.86	2003.6
761.301	4054.95
761.741	4585.8
762.182	5110
762.622	3339.55
763.063	1302.2
763.503	589.65
763.943	462.7
764.384	509.55
764.824	485.9
765.264	474.85
765.705	338.7
766.145	238.15
766.585	209.85
767.025	225.5
767.465	302
767.906	367.85
768.346	379.6
768.786	386.85
769.226	399.05
769.666	675.1
770.106	1396.15
770.546	1877.7
770.986	2053.5
771.426	1571.3
771.866	696.8
772.306	323.6
772.745	206.25
773.185	177.2
773.625	183.8
774.065	218.4
774.505	367.15
774.944	739.9
775.384	1081.85
775.824	1204.45
776.263	978.7
776.703	490.9
777.142	251.95
777.582	169.65
778.021	156.75
778.461	143.25
778.9	141.2
779.34	124.55
779.779	119.4
780.219	116.45
780.658	116.95
781.097	108.7
781.537	106.6
781.976	110
782.415	116.2
782.855	110
783.294	109.45
783.733	105.2
784.172	106.4
784.611	104.5
785.05	109.45
785.489	114.4
785.928	113.45
786.367	120.15
786.806	125.65
787.245	133.55
787.684	136.25
788.123	133.2
788.562	131.45
789.001	126.05
789.44	124.6
789.879	124.35
790.317	124.35
790.756	129.9
791.195	157.45
791.634	204.2
792.072	372.35
792.511	905.6
792.95	1562.7
793.388	1818.3
793.827	1209.45
794.265	581.1
794.704	284.1
795.142	172.55
795.581	146.15
796.019	128.95
796.458	129.4
796.896	131.5
797.334	157.3
797.773	205.15
798.211	401.9
798.649	806.45
799.087	1319.35
799.526	1820.6
799.964	1833.3
800.402	1267.6
800.84	604.75
801.278	300.3
801.716	185.2
802.154	145.45
802.592	137.9
803.03	142.4
803.468	142.1
803.906	144.75
804.344	141.7
804.782	139.3
805.22	141.2
805.658	144.9
806.096	150.6
806.533	165.9
806.971	224.3
807.409	319.7
807.847	642.4
808.284	1581.45
808.722	2665.05
809.16	3725.15
809.597	5139.5
810.035	6118.25
810.472	3901.55
810.91	1775.7
811.347	812.15
811.785	380.75
812.222	236.55
812.66	183.55
813.097	155.8
813.535	140.15
813.972	123.75
814.409	110
814.846	108.8
815.284	102.9
815.721	110.4
816.158	113.95
816.595	137.8
817.032	173
817.47	157.5
817.907	127.75
818.344	109.15
818.781	106.85
819.218	124.5
819.655	177.3
820.092	217.6
820.529	209.2
820.966	172.9
821.403	129.85
821.839	115.1
822.276	123.75
822.713	137.95
823.15	132.5
823.587	141.35
824.023	272.3
824.46	657.4
824.897	1088.7
825.333	842.1
825.77	406.1
826.206	215.65
826.643	124.45
827.08	93.75
827.516	78.55
827.953	80.55
828.389	77.15
828.825	73.45
829.262	69.15
829.698	62.05
830.135	56.65
830.571	58.1
831.007	63.45
831.443	64.25
831.88	67.55
832.316	66.75
832.752	62.7
833.188	63.7
833.624	71.9
834.06	64.25
834.497	68.1
834.933	65.9
835.369	78.9
835.805	80.2
836.241	85.4
836.677	91.95
837.112	109.25
837.548	132.1
837.984	196.85
838.42	431.1
838.856	1137.5
839.292	2112.65
839.727	1563.5
840.163	1128.65
840.599	1669
841.034	2425.3
841.47	1257.9
841.906	640.35
842.341	368.05
842.777	325.2
843.212	379.25
843.648	225.4
844.083	140.75
844.519	95.9
844.954	77.85
845.39	63.5
845.825	61.7
846.261	61.95
846.696	56.5
847.131	51.7
847.566	53.15
848.002	56.8
848.437	62.65
848.872	59.9
849.307	78.3
849.742	144.45
850.177	379.7
850.613	771.4
851.048	545.6
851.483	265.7
851.918	148.1
852.353	86.75
852.788	66.5
853.223	61.8
853.657	48.25
854.092	50.55
854.527	43.9
854.962	43.2
855.397	54.95
855.832	43
856.266	40.35
856.701	40.95
857.136	39.8
857.57	47.15
858.005	53.4
858.44	47.7
858.874	45.65
859.309	51.85
859.743	48.8
860.178	44.35
860.612	50.7
861.047	65.2
861.481	79.5
861.915	53.9
862.35	49.05
862.784	38.5
863.218	37.85
863.653	42.05
864.087	47.95
864.521	65.25
864.955	105.9
865.39	181.4
865.824	128.65
866.258	151.35
866.692	207.6
867.126	147.6
867.56	89.15
867.994	58.3
868.428	48.2
868.862	54.7
869.296	53.1
869.73	67.9
870.164	56.8
870.598	48.8
871.031	38.6
871.465	35.15
871.899	33.3
872.333	27.9
872.766	31.35
873.2	33.1
873.634	29.9
874.067	31.45
874.501	30.4
874.935	29.8
875.368	34.1
875.802	26.05
876.235	20.45
876.669	24.45
877.102	22.6
877.535	21.7
877.969	24.4
878.402	25.15
878.836	22.95
879.269	20.4
879.702	23.25
880.135	22.1
880.569	23.5
881.002	21.3
881.435	26.7
881.868	27.6
882.301	22.8
882.734	22
883.167	22.9
883.601	24.95
884.034	25.55
884.467	16.15
884.899	23.5
885.332	18.45
885.765	20.45
886.198	15.95
886.631	18
887.064	16.3
887.497	17.6
887.929	20.15
888.362	14.75
888.795	17.6
889.228	20.2
889.66	22.25
890.093	18
890.526	19.45
890.958	21.6
891.391	19.85
891.823	16
892.256	20.25
892.688	20.45
893.121	12.9
893.553	23.6
893.985	12
894.418	13.1
894.85	14.75
895.282	15.5
895.715	14.2
896.147	11.2
896.579	10.95
897.011	18.55
897.444	16.8
897.876	9.5
898.308	12.65
898.74	13.9
899.172	18.35
899.604	17.6
900.036	18.05
900.468	6.85
900.9	16.3
901.332	22.05
901.764	17.05
902.196	22.3
902.628	20.85
903.06	23.2
903.491	27.05
903.923	20.85
904.355	24.3
904.787	28.45
905.218	20.1
905.65	22.3
906.082	17.95
906.513	21.1
906.945	21.5
907.376	24.95
907.808	24.35
908.239	25.35
908.671	25.95
909.102	29.35
909.534	36.25
909.965	69.8
910.397	188.45
910.828	505.75
911.259	310.15
911.691	175.05
912.122	102.9
912.553	50.35
912.984	24.1
913.415	28.1
913.847	18.9
914.278	19.1
914.709	19.4
915.14	16.1
915.571	16.3
916.002	20.25
916.433	10.6
916.864	13.8
917.295	15.25
917.726	19.35
918.157	23.75
918.587	22.7
919.018	21.9
919.449	21.45
919.88	20.8
920.311	35.3
920.741	111.05
921.172	190.55
921.603	89.6
922.033	57.25
922.464	41.45
922.895	29.4
923.325	14.55
923.756	17.65
924.186	29.8
924.617	41.8
925.047	66.25
925.478	66.1
925.908	43.8
926.338	29.35
926.769	21.6
927.199	21.85
927.629	16.4
928.06	19.05
928.49	18.6
928.92	12.25
929.35	14.45
929.78	11.3
930.21	8.2
930.641	4.8
931.071	8.4
931.501	6.2
931.931	7.45
932.361	9.45
932.791	11.2
933.221	7.4
933.651	9.55
934.08	23.95
934.51	11.35
934.94	12.4
935.37	6
935.8	8.05
936.229	4.9
936.659	5.85
937.089	9.9
937.519	12.45
937.948	24.7
938.378	13.55
938.807	9.65
939.237	6.9
939.666	8.15
940.096	6.15
940.525	0.6
940.955	4.8
941.384	6.3
941.814	4.85
942.243	2.5
942.672	2.55
943.102	1.7
943.531	3.9
943.96	0.1
944.39	1.65
944.819	6.05
945.248	2.9
945.677	3.25
946.106	1.55
946.535	3.25
946.964	2
947.393	1.5
947.822	-0.65
948.251	9.75
948.68	5.55
949.109	2.3
949.538	2.1
949.967	0.15
950.396	4.75
950.825	2.55
951.254	-0.4
951.682	-1.35
952.111	-1.25
952.54	4.25
952.969	1.25
953.397	-3.5
953.826	-0.85
954.254	4.65
954.683	4.4
955.112	5.3
955.54	1.4
955.969	-1.3
956.397	0.2
956.826	-0.85
957.254	1.7
957.682	2.4
958.111	5.3
958.539	3.95
958.967	-0.25
959.396	7.8
959.824	3.75
960.252	-2.05
960.68	3.45
961.109	2.5
961.537	2.55
961.965	0.4
962.393	0.55
962.821	0.65
963.249	5.2
963.677	3.1
964.105	29.55
964.533	52.5
964.961	20.8
965.389	12.95
965.817	7.2
966.245	2.8
966.672	4.05
967.1	0.95
967.528	-4.7
967.956	3.8
968.383	-0.45
968.811	0.55
969.239	2.9
969.666	2.25
970.094	2.1
970.522	-2.3
970.949	2.55
971.377	-5.7
971.804	-4.25
972.232	-3.85
972.659	-2.8
973.087	1.1
973.514	-1.75
973.941	-3.6
974.369	1.2
974.796	0.3
975.223	0.15
975.651	2.65
976.078	-0.5
976.505	6.7
976.932	14.95
977.359	11.9
977.786	8.5
978.214	10.45
978.641	-1
979.068	0.3
979.495	1.85
979.922	1.65
980.349	0.45
980.776	2.45
981.202	1.7
981.629	2.85
982.056	0.7
982.483	-7.1
982.91	1
983.337	-6.8
983.763	0.6
984.19	6.05
984.617	-4.1
985.043	1
985.47	0.75
985.897	3
986.323	4.9
986.75	-0.75
987.176	-1.8
987.603	0.3
988.029	3.15
988.456	3.15
988.882	-2.8
989.308	-0.95
989.735	-3.4
990.161	3.15
990.587	-1.8
991.014	-1.8
991.44	1.8
991.866	1.5
992.292	-0.1
992.719	3.15
993.145	-1.2
993.571	0.55
993.997	2.9
994.423	7.2
994.849	-2.75
995.275	0.35
995.701	1.25
996.127	-7
996.553	2.35
996.979	-1.35
997.405	0.2
997.83	0.5
998.256	3.1
998.682	-0.8
999.108	3.8
999.534	-6.85
999.959	-3.65
1000.385	1.4
1000.811	-3.8
1001.236	-4.2
1001.662	-0.9
1002.087	4.25
1002.513	-2.5
1002.938	-1.15
1003.364	1.35
1003.789	0.1
1004.215	-1.2
1004.64	-3
1005.066	0.6
1005.491	0.8
1005.916	-4
1006.342	2.2
1006.767	-1.95
1007.192	2.55
1007.617	0.2
1008.042	-0.3
1008.468	0.55
1008.893	-0.25
1009.318	-1.6
1009.743	0.85
1010.168	9.3
1010.593	10.1
1011.018	1.95
1011.443	-1.85
1011.868	4.85
1012.293	0.2
1012.718	0.25
1013.143	-3.75
1013.567	3.65
1013.992	3.4
1014.417	1.4
1014.842	-2.3
1015.267	2.05
1015.691	-0.25
1016.116	-2.5
1016.541	2.5
1016.965	-5.1
1017.39	0.4
1017.814	-4.95
1018.239	-1.55
1018.663	-8.2
1019.088	-5.2
1019.512	3.35
1019.937	-4.8
1020.361	-0.9
1020.785	-3.2
1021.21	-4.3
1021.634	0.25
1022.058	3
1022.483	-3.75
1022.907	-5.05
1023.331	-4.85
1023.755	-5.15
1024.179	-1.7
1024.604	1.8
1025.028	-0.95
1025.452	2.75
1025.876	3.95
1026.3	1.75
1026.724	-1.8
1027.148	-1.05
1027.572	0.9
1027.996	-0.4
1028.42	-0.9
1028.843	0.85
1029.267	-2.9
1029.691	2.8
1030.115	-1.35
1030.539	-1.85
1030.962	-4.45
1031.386	4.1
1031.81	-3.65
1032.233	-4.15
1032.657	-9.5
1033.08	-3.45
1033.504	-1.15
1033.927	-1.25
1034.351	-3.85
1034.774	-1.7
1035.198	-6.45
1035.621	0.15
1036.045	-5.15
1036.468	2.3
1036.891	-2.3
1037.315	-1.75
1037.738	0.2
1038.161	-0.55
1038.584	-0.25
1039.008	-3.45
1039.431	-0.05
1039.854	-5.35
1040.277	-1.85
1040.7	-3.5
1041.123	-1.1
1041.546	-3.1
1041.969	-0.6
1042.392	4.65
1042.815	-7.05
1043.238	-3.95
1043.661	-2.85
1044.084	-1.95
1044.507	2
1044.93	-1.9
1045.352	-3.9
1045.775	-5.6
1046.198	2.4
1046.621	3.05
1047.043	-4.4
1047.466	-1.95
1047.889	-2.6
1048.311	1.6
1048.734	-2.05
1049.156	0.2
1049.579	2.25
1050.001	-4.55
1050.424	-4.9
1050.846	-8.25
1051.269	-3.05
1051.691	-1.65
1052.113	-0.45
1052.536	-2.4
1052.958	-4.35
1053.38	-2.2
1053.802	-0.45
1054.225	1.65
1054.647	3.3
1055.069	-0.05
1055.491	-1.45
1055.913	-3.75
1056.335	-10.15
1056.757	-3.8
1057.179	-3.65
1057.601	-3.55
1058.023	1.65
1058.445	-7.95
1058.867	-1.4
1059.289	-0.05
1059.711	-7.2
1060.133	1.3
1060.555	-2
1060.976	-1.1
1061.398	-1.45
1061.82	-1.3
1062.241	-1.5
1062.663	-3.15
1063.085	-7.8
1063.506	-5.55
1063.928	-2.8
1064.35	-1.3
1064.771	0.3
1065.193	-4.25
1065.614	-2.7
1066.035	2.8
1066.457	5.05
1066.878	2.9
1067.3	-5.4
1067.721	0.55
1068.142	-0.85
1068.564	-2.95
1068.985	-5
1069.406	-4.6
1069.827	-2.15
1070.248	-1.1
1070.67	-4
1071.091	-9.7
1071.512	-4.95
1071.933	-2.1
1072.354	-3.65
1072.775	-3.5
1073.196	-4.3
1073.617	-3.05
1074.038	-0.3
1074.459	-5
1074.88	-2.65
1075.3	-4.2
1075.721	0.95
1076.142	-3.6
1076.563	-9.85
1076.983	2.15
1077.404	-6.6
1077.825	-1.7
1078.246	-6.45
1078.666	-5.75
1079.087	-4.1
1079.507	-2.1
1079.928	-3.45
1080.348	-1.45
1080.769	2.1
1081.189	0.1
1081.61	-6
1082.03	-1.9
1082.451	2.15
1082.871	-6.6
1083.291	-2.5
1083.711	-2.7
1084.132	-4.6
1084.552	-4.45
1084.972	-8.65
1085.392	-5.95
1085.813	0.45
1086.233	-7.9
1086.653	-2.55
1087.073	-5.9
1087.493	-8.3
1087.913	-6.75
1088.333	-5.65
1088.753	1.5
1089.173	1
1089.593	1.3
1090.013	-4.7
1090.433	-4.9
1090.852	-1.9
1091.272	-1.7
1091.692	0
1092.112	-5.1
1092.531	-5.4
1092.951	-0.6
1093.371	-3.35
1093.79	-7.15
1094.21	-6.15
1094.63	0.2
1095.049	-2.7
1095.469	-8.05
1095.888	-1.55
1096.308	-1.95
1096.727	-5.35
1097.146	-6.35
1097.566	0.1
1097.985	-0.1
1098.405	-4.1
1098.824	-1.6
1099.243	-3.65
1099.662	1.35
1100.082	-5.1
1100.501	-2.75
1100.92	1.05
1101.339	-0.3
1101.758	2.05
