Data from MSPlasma+Separation6_Subt14_10-14-52-556.txt Node
Date: Fri Jul 21 10:14:52 EDT 2017
User: Ender
Spectrometer: HR+D1039
Trigger mode: 0
Integration Time (sec): 6.430000E-3
Scans to average: 20
Electric dark correction enabled: true
Nonlinearity correction enabled: false
Boxcar width: 0
XAxis mode: Wavelengths
Number of Pixels in Spectrum: 2048
>>>>>Begin Spectral Data<<<<<
187.836	-0.95
188.309	-0.95
188.782	-0.95
189.255	3.55
189.728	1.45
190.201	-3.75
190.674	0.35
191.147	-0.5
191.619	1.6
192.092	-1.7
192.565	-0.65
193.038	6.4
193.511	0.8
193.984	-2.05
194.456	-0.75
194.929	1.3
195.402	-3.1
195.874	-2.05
196.347	3.1
196.82	0.7
197.292	-3.1
197.765	1
198.237	-2.05
198.71	-5.3
199.182	0.6
199.655	-0.1
200.127	2.25
200.6	-1.4
201.072	1.05
201.544	1.9
202.017	0.55
202.489	-1.35
202.961	2.75
203.433	-3.35
203.906	-0.3
204.378	5.2
204.85	6.15
205.322	-0.5
205.794	6.55
206.266	-1.35
206.739	5.5
207.211	1.85
207.683	2.05
208.155	3.45
208.627	-0.8
209.099	4.15
209.57	2.1
210.042	2.85
210.514	3.45
210.986	12.25
211.458	19.1
211.93	13.55
212.402	8.65
212.873	-1.5
213.345	-6.5
213.817	1.75
214.288	-2.05
214.76	-0.4
215.232	0.25
215.703	2.95
216.175	2.2
216.646	2.1
217.118	8.25
217.589	0.5
218.061	1.1
218.532	0.25
219.004	8.85
219.475	14.3
219.946	28.25
220.418	40.55
220.889	24.65
221.36	12.3
221.832	9.75
222.303	6.4
222.774	9.8
223.245	4.2
223.717	2.55
224.188	7.7
224.659	0.5
225.13	1.25
225.601	1.45
226.072	2.05
226.543	6.75
227.014	7.55
227.485	10.05
227.956	8.15
228.427	11.75
228.898	9.7
229.369	10.55
229.839	10.65
230.31	15.6
230.781	14.45
231.252	13.45
231.722	27.55
232.193	37.25
232.664	44.5
233.135	60.95
233.605	67
234.076	46.85
234.546	44.05
235.017	48.1
235.487	43.65
235.958	42.85
236.428	63.6
236.899	107.75
237.369	122.4
237.84	90.05
238.31	116.1
238.78	116.45
239.251	112.2
239.721	116.9
240.191	89.4
240.662	53.85
241.132	42.1
241.602	49.9
242.072	77.25
242.542	90.7
243.013	60.45
243.483	57.15
243.953	44.55
244.423	45.05
244.893	52.1
245.363	62.1
245.833	57.25
246.303	60.3
246.773	74.1
247.243	81.85
247.712	97.4
248.182	110.3
248.652	112.75
249.122	175.1
249.592	320.15
250.061	486.8
250.531	776.1
251.001	586.2
251.471	489.85
251.94	368.45
252.41	206.7
252.879	140.9
253.349	108.25
253.818	91.45
254.288	76.45
254.757	75.55
255.227	103.9
255.696	84.1
256.166	72.15
256.635	77.55
257.105	99.8
257.574	130.65
258.043	133.65
258.513	241.2
258.982	307.75
259.451	215.3
259.92	213.15
260.389	199.8
260.859	143.45
261.328	163.85
261.797	241.95
262.266	218.35
262.735	99.5
263.204	63.45
263.673	54.95
264.142	48.5
264.611	52
265.08	58.5
265.549	60.4
266.018	56.75
266.487	50.4
266.955	54.95
267.424	62.7
267.893	63.3
268.362	68
268.83	61
269.299	64.9
269.768	71.1
270.236	93.5
270.705	93.4
271.174	90.05
271.642	99.9
272.111	120.8
272.579	188.5
273.048	287.5
273.516	370.45
273.985	378.85
274.453	291.65
274.922	168.1
275.39	109.1
275.858	97.75
276.327	85.75
276.795	87.8
277.263	95.85
277.731	132.9
278.2	261.1
278.668	344.45
279.136	263.25
279.604	165.6
280.072	102.25
280.54	90.15
281.008	88.5
281.477	87.3
281.945	93.95
282.413	92.9
282.881	94.95
283.348	92.95
283.816	103.7
284.284	109.25
284.752	105.75
285.22	104.55
285.688	114.95
286.156	189.3
286.623	508.7
287.091	1011.95
287.559	522.75
288.026	202.1
288.494	127.4
288.962	108.05
289.429	98.15
289.897	96.35
290.364	91.85
290.832	99.1
291.3	94.55
291.767	104.35
292.234	104.5
292.702	110.55
293.169	110.55
293.637	121.2
294.104	112.95
294.571	110.05
295.039	106.9
295.506	103.9
295.973	110.9
296.44	104.05
296.908	121.4
297.375	136.95
297.842	139.1
298.309	113.5
298.776	115.05
299.243	115.7
299.71	116.65
300.177	114.25
300.644	127
301.111	140.65
301.578	128.6
302.045	119.8
302.512	118.95
302.979	123.4
303.446	129.7
303.913	130.6
304.379	140.85
304.846	155.5
305.313	177.25
305.78	204.45
306.246	246.45
306.713	260.55
307.18	230.4
307.646	255.25
308.113	221.6
308.579	173.65
309.046	170.95
309.512	173.05
309.979	158.7
310.445	148.35
310.912	155.2
311.378	155.15
311.845	156.1
312.311	149.45
312.777	148.45
313.244	158.35
313.71	168.4
314.176	179.9
314.642	209.3
315.109	241.75
315.575	221.85
316.041	205.1
316.507	193.7
316.973	220.3
317.439	207.15
317.905	230.7
318.371	226.6
318.837	217.6
319.303	228
319.769	210.4
320.235	234.6
320.701	270.8
321.167	287.3
321.633	333.3
322.099	476.85
322.564	633.05
323.03	498.55
323.496	344.9
323.962	324.55
324.427	308.9
324.893	268.05
325.359	255.2
325.824	228.9
326.29	235.85
326.755	240.7
327.221	242.25
327.686	255.95
328.152	230.45
328.617	215.1
329.083	220.55
329.548	233.6
330.014	240.3
330.479	263.05
330.944	304.25
331.41	348.15
331.875	333.6
332.34	346.8
332.805	400.45
333.271	507.25
333.736	670.75
334.201	609.4
334.666	445.65
335.131	510.35
335.596	408.3
336.061	432.7
336.526	435.6
336.991	377.55
337.456	409.1
337.921	325.45
338.386	268.45
338.851	249.05
339.316	226.95
339.781	222.15
340.246	226.8
340.711	223.3
341.175	233.1
341.64	237.1
342.105	236.05
342.569	260.1
343.034	276.85
343.499	274.35
343.963	266.9
344.428	264.45
344.893	273.75
345.357	279.5
345.822	271.65
346.286	276.95
346.751	286.95
347.215	286.2
347.679	294.55
348.144	308.7
348.608	305.35
349.073	324.15
349.537	364.45
350.001	351.35
350.465	328.9
350.93	319.65
351.394	320.1
351.858	312.55
352.322	334
352.786	327.6
353.25	315.95
353.715	329.55
354.179	346.95
354.643	360.45
355.107	370.65
355.571	387.1
356.035	396.75
356.498	381
356.962	414.65
357.426	399.95
357.89	364.85
358.354	344.2
358.818	336.95
359.281	348.95
359.745	365.85
360.209	357.45
360.673	367.4
361.136	369.95
361.6	367.25
362.064	388.1
362.527	398.05
362.991	394.7
363.454	392.6
363.918	407.45
364.381	392.95
364.845	389.45
365.308	384.2
365.772	378.25
366.235	382.5
366.698	403.3
367.162	496.35
367.625	552.9
368.088	444.05
368.552	403.2
369.015	409.05
369.478	437.85
369.941	445.9
370.404	456.7
370.867	478.35
371.331	490.3
371.794	495
372.257	548.95
372.72	580.75
373.183	548.9
373.646	561.1
374.109	561.95
374.572	644.4
375.035	766.75
375.497	580.9
375.96	473.05
376.423	443.1
376.886	450.85
377.349	456.2
377.811	461.5
378.274	464.5
378.737	473.15
379.199	486.1
379.662	496.5
380.125	521.45
380.587	587.1
381.05	624.2
381.512	625.5
381.975	602.95
382.437	599.1
382.9	586.9
383.362	595
383.825	637.35
384.287	802.6
384.75	896.9
385.212	783.25
385.674	651.55
386.136	586.35
386.599	583.6
387.061	618.6
387.523	642.3
387.985	637.45
388.447	659.6
388.91	739.45
389.372	897.3
389.834	842.25
390.296	697
390.758	708.85
391.22	740.4
391.682	906.75
392.144	1416.6
392.606	1326.65
393.068	777.35
393.529	702.75
393.991	691.05
394.453	663.9
394.915	702.75
395.377	862.05
395.838	1059.55
396.3	752.15
396.762	580.65
397.224	542.3
397.685	541.45
398.147	545.05
398.608	550.1
399.07	563.8
399.531	549.75
399.993	564.6
400.454	567.8
400.916	562.9
401.377	584.15
401.839	592.75
402.3	592.7
402.762	618.55
403.223	676.2
403.684	689.65
404.145	637.7
404.607	610.6
405.068	617.75
405.529	640.65
405.99	645.75
406.451	651.9
406.913	638.1
407.374	640.9
407.835	648.1
408.296	667.45
408.757	679.35
409.218	692.8
409.679	706.9
410.14	718.3
410.601	739.15
411.062	775.35
411.522	893.6
411.983	991.5
412.444	845.95
412.905	733.1
413.366	740.55
413.826	759.15
414.287	858.95
414.748	1018.5
415.208	1039.3
415.669	853.7
416.13	789.25
416.59	776.55
417.051	804.55
417.511	838.2
417.972	900.9
418.432	967.7
418.893	1075.55
419.353	1024.05
419.814	786.25
420.274	705.9
420.734	708
421.195	752.45
421.655	775.75
422.115	749.5
422.576	724.6
423.036	734.05
423.496	755.2
423.956	800.2
424.416	854.05
424.876	967.55
425.336	967.2
425.797	955.55
426.257	950.6
426.717	893.3
427.177	835
427.637	867.2
428.097	915.9
428.556	952.95
429.016	1030.6
429.476	1024.3
429.936	986.8
430.396	964.75
430.856	968.3
431.315	1001.35
431.775	1065.9
432.235	1125.45
432.694	1157
433.154	1078.9
433.614	1055.2
434.073	1013.1
434.533	921.25
434.993	897.15
435.452	900.75
435.912	881.3
436.371	882.45
436.83	878.2
437.29	894.75
437.749	851.35
438.209	837.1
438.668	845.7
439.127	859.2
439.587	841.15
440.046	809.55
440.505	826.5
440.964	818.3
441.424	850.6
441.883	860.3
442.342	820.35
442.801	792.9
443.26	812.2
443.719	801.55
444.178	792.55
444.637	807.05
445.096	803.15
445.555	823.6
446.014	812.35
446.473	790.25
446.932	787.6
447.391	805
447.849	832.05
448.308	820.55
448.767	834.65
449.226	855.35
449.685	856.75
450.143	896.4
450.602	894.05
451.061	860.4
451.519	875.6
451.978	893.6
452.436	920.1
452.895	883
453.353	845.9
453.812	861.65
454.27	853.65
454.729	827.9
455.187	839.7
455.646	840.85
456.104	848.3
456.562	844.9
457.021	838.9
457.479	805.1
457.937	824.85
458.395	852.45
458.854	839.05
459.312	830.45
459.77	834.9
460.228	850.7
460.686	861
461.144	861.8
461.602	851.5
462.06	856
462.518	865.4
462.976	874.55
463.434	883.05
463.892	889.35
464.35	906.35
464.808	923.3
465.266	937.55
465.724	941.15
466.181	947.45
466.639	940.6
467.097	985.25
467.555	1015.15
468.012	1003.7
468.47	1011.5
468.928	1045.7
469.385	1072.8
469.843	1083.05
470.3	1080.45
470.758	1116.25
471.215	1138.75
471.673	1158.05
472.13	1185.05
472.588	1208.3
473.045	1212.25
473.503	1225.6
473.96	1284.7
474.417	1302.4
474.875	1362.45
475.332	1400.2
475.789	1421.8
476.246	1475.5
476.704	1529.1
477.161	1580
477.618	1624.35
478.075	1712.9
478.532	1832.9
478.989	1983.4
479.446	2189.1
479.903	2310.55
480.36	2526.1
480.817	2697.1
481.274	2900.2
481.731	3159.4
482.188	3408.65
482.645	3682.25
483.102	3906.85
483.558	4196.9
484.015	4386.1
484.472	4426.15
484.929	4281.25
485.385	4091.4
485.842	3998.05
486.299	3797.15
486.755	3431.1
487.212	3076.6
487.668	2772
488.125	2559.6
488.582	2370.65
489.038	2261.6
489.494	2195.5
489.951	2131
490.407	2082.3
490.864	2042.65
491.32	2013.25
491.776	1973.05
492.233	1965.9
492.689	1943.6
493.145	1917
493.602	1902.55
494.058	1938.15
494.514	1961.25
494.97	1972.4
495.426	1992.25
495.882	1999.3
496.338	2013.1
496.794	2082.9
497.251	2100.1
497.707	2107.15
498.163	2109.2
498.618	2111.55
499.074	2136.15
499.53	2166.3
499.986	2199.75
500.442	2222.95
500.898	2221.6
501.354	2268.55
501.809	2268.2
502.265	2306.1
502.721	2413.75
503.177	2480.4
503.632	2356.75
504.088	2392
504.543	2616.55
504.999	2442
505.455	2159.35
505.91	2046.75
506.366	2022
506.821	2024.5
507.277	2008.35
507.732	2017.7
508.187	2009.25
508.643	2031.1
509.098	2024.45
509.553	2042.5
510.009	2089.4
510.464	2108.1
510.919	2149.85
511.375	2169.5
511.83	2192.05
512.285	2240.45
512.74	2286.4
513.195	2309.1
513.65	2362.7
514.105	2389.8
514.56	2402.85
515.015	2446.7
515.47	2468.7
515.925	2478.95
516.38	2457.2
516.835	2442.95
517.29	2450.6
517.745	2446.9
518.2	2417.55
518.655	2344.05
519.109	2302.9
519.564	2282.8
520.019	2286.2
520.474	2251.8
520.928	2227.2
521.383	2229.75
521.838	2211.85
522.292	2188.05
522.747	2164.75
523.201	2159.2
523.656	2128.4
524.11	2128.75
524.565	2119.9
525.019	2122.1
525.474	2139.35
525.928	2139.35
526.382	2110.95
526.837	2095.25
527.291	2096.7
527.745	2075.5
528.2	2085.55
528.654	2068.3
529.108	2078.35
529.562	2080.55
530.016	2083.6
530.47	2089.35
530.925	2072.05
531.379	2084.45
531.833	2124.3
532.287	2095.1
532.741	2092.95
533.195	2091.3
533.649	2088.65
534.103	2095.25
534.556	2077
535.01	2088.7
535.464	2093.35
535.918	2103.35
536.372	2111.05
536.826	2099.45
537.279	2082.3
537.733	2081.4
538.187	2095.85
538.64	2092
539.094	2106.65
539.548	2139.95
540.001	2125.5
540.455	2129.8
540.908	2156.55
541.362	2180.3
541.815	2189.25
542.269	2239.8
542.722	2226.05
543.175	2257.45
543.629	2270.35
544.082	2283.55
544.536	2318.85
544.989	2305.4
545.442	2329.65
545.895	2324.85
546.349	2318.85
546.802	2331.1
547.255	2332.7
547.708	2346.45
548.161	2360
548.614	2383.4
549.067	2383.5
549.52	2355.25
549.973	2331.5
550.426	2336.4
550.879	2310.25
551.332	2305.15
551.785	2314.8
552.238	2327.5
552.691	2343.9
553.144	2379.75
553.596	2421.75
554.049	2439.4
554.502	2503.3
554.955	2549.3
555.407	2575.4
555.86	2547.75
556.313	2515.7
556.765	2491.7
557.218	2464.1
557.67	2470.3
558.123	2433.8
558.576	2418.3
559.028	2414.2
559.48	2455.35
559.933	2432.55
560.385	2363.5
560.838	2281.8
561.29	2216
561.742	2209.15
562.195	2147.2
562.647	2138.6
563.099	2132.45
563.551	2126.1
564.004	2155.8
564.456	2125.65
564.908	2077
565.36	2052.1
565.812	2007.55
566.264	1993
566.716	1967.7
567.168	1944.85
567.62	1937.8
568.072	1920.85
568.524	1889.05
568.976	1890.75
569.428	1870.6
569.88	1869.7
570.332	1882.85
570.784	1870.75
571.235	1861.25
571.687	1878.05
572.139	1880.55
572.59	1895.45
573.042	1913.7
573.494	1912.85
573.945	1872.3
574.397	1843.5
574.849	1842.2
575.3	1853
575.752	1824.45
576.203	1801.45
576.655	1818.1
577.106	1793.45
577.557	1785.15
578.009	1766.75
578.46	1778.5
578.912	1761
579.363	1781.9
579.814	1775.1
580.265	1773.2
580.717	1767.3
581.168	1760.55
581.619	1771.4
582.07	1792.3
582.521	1790.55
582.972	1789.8
583.423	1805.9
583.875	1841.3
584.326	1934.5
584.777	2112
585.227	2314
585.678	2479
586.129	2518.75
586.58	2574.9
587.031	2608.05
587.482	2774.9
587.933	3256.3
588.384	2992.9
588.834	2455.5
589.285	2073.3
589.736	2020.8
590.186	2032
590.637	2009.75
591.088	1951.95
591.538	1928
591.989	1915.55
592.439	1901.25
592.89	1889.6
593.34	1891.4
593.791	1920.7
594.241	1914.5
594.692	1947.35
595.142	1912.8
595.593	1885
596.043	1889.3
596.493	1938.55
596.943	1959.45
597.394	1935.7
597.844	1908.8
598.294	1942.15
598.744	2002.1
599.195	2096.1
599.645	2217.1
600.095	2329.15
600.545	2435.45
600.995	2541.2
601.445	2641.7
601.895	2759.1
602.345	2843.7
602.795	2810.2
603.245	2685.25
603.695	2528.35
604.145	2391.35
604.594	2274.25
605.044	2147.05
605.494	2025.35
605.944	1914.15
606.393	1883.5
606.843	1855.5
607.293	1860.95
607.743	1842.85
608.192	1857.8
608.642	1873
609.091	1877.4
609.541	1871.8
609.99	1872.1
610.44	1829.4
610.889	1808.3
611.339	1787.15
611.788	1772.7
612.238	1786.7
612.687	1816.7
613.136	1845.7
613.586	1860.85
614.035	1856.7
614.484	1879.85
614.933	1893.4
615.383	1853.5
615.832	1792
616.281	1748.1
616.73	1707.35
617.179	1664.05
617.628	1619.85
618.077	1602.05
618.526	1567.3
618.975	1570.6
619.424	1536.85
619.873	1537.9
620.322	1531
620.771	1538.9
621.22	1498.8
621.669	1472.15
622.118	1466.75
622.567	1460.5
623.015	1428.35
623.464	1420.6
623.913	1398.35
624.361	1400.45
624.81	1404.15
625.259	1390.45
625.707	1378.25
626.156	1382.4
626.604	1405.75
627.053	1416.55
627.501	1400.3
627.95	1405.45
628.398	1432.05
628.847	1414.95
629.295	1419.75
629.744	1441.6
630.192	1481.4
630.64	1582.4
631.089	1738.25
631.537	1825.1
631.985	1824.65
632.433	1916.25
632.881	1913.75
633.33	2296.3
633.778	2500.6
634.226	1753.15
634.674	1621.65
635.122	1609.95
635.57	1634.1
636.018	1930.1
636.466	1549.2
636.914	1371.6
637.362	1371.3
637.81	1384.5
638.258	1427.95
638.705	1428.9
639.153	1482.15
639.601	1477.45
640.049	1515.9
640.497	1556.65
640.944	1604.65
641.392	1527.5
641.84	1441
642.287	1384.15
642.735	1362.4
643.182	1355.3
643.63	1342.5
644.078	1355.75
644.525	1378.5
644.973	1416.65
645.42	1433.4
645.867	1446.9
646.315	1480.7
646.762	1534.15
647.21	1570.75
647.657	1651
648.104	1711.15
648.551	1769.6
648.999	1926.5
649.446	2116.85
649.893	2361.75
650.34	2789.05
650.787	3447.4
651.234	4472.9
651.682	6235.7
652.129	8883.35
652.576	12728.25
653.023	15533.75
653.47	15536.95
653.917	15537
654.363	15536.9
654.81	15533.9
655.257	15534.55
655.704	15523.5
656.151	9845.25
656.598	6383.85
657.044	4530.7
657.491	3531
657.938	2862.35
658.385	2421.4
658.831	2129.9
659.278	1907.7
659.724	1742.2
660.171	1613.4
660.618	1495.8
661.064	1413.6
661.511	1367.95
661.957	1315.4
662.404	1286.3
662.85	1274.6
663.296	1268.6
663.743	1232.05
664.189	1224.7
664.635	1211.5
665.082	1190.05
665.528	1175.7
665.974	1156.6
666.42	1138.1
666.867	1148
667.313	1166.95
667.759	1216.3
668.205	1205
668.651	1219.9
669.097	1180.75
669.543	1283.5
669.989	1224.3
670.435	1079.2
670.881	1067.75
671.327	1105.45
671.773	1180.15
672.219	1270.55
672.665	1346.25
673.11	1394.55
673.556	1409.35
674.002	1441.7
674.448	1470.45
674.893	1251.3
675.339	1085.15
675.785	1001.3
676.23	959.05
676.676	921.05
677.122	893.85
677.567	871.1
678.013	846.55
678.458	842
678.904	833.35
679.349	818.45
679.794	823.95
680.24	821
680.685	811
681.131	819.7
681.576	817.3
682.021	824
682.466	835.1
682.912	834.3
683.357	883.2
683.802	959.95
684.247	1034.75
684.692	1111.1
685.137	1147.6
685.583	1179
686.028	1233
686.473	1166.5
686.918	1011.65
687.363	928.2
687.807	883.8
688.252	844.05
688.697	808.3
689.142	781.4
689.587	791.7
690.032	806.95
690.477	841
690.921	876.15
691.366	924.85
691.811	958.75
692.255	1041.6
692.7	1262.15
693.145	1826.45
693.589	2774.75
694.034	3288.3
694.478	3524.3
694.923	3218.8
695.367	4602.7
695.812	2796.7
696.256	1175.3
696.701	868.2
697.145	807.1
697.59	774.9
698.034	765.95
698.478	766.15
698.922	768.9
699.367	784.5
699.811	824.15
700.255	906.4
700.699	979
701.143	1055.8
701.588	1116.1
702.032	1160.25
702.476	1194.45
702.92	1261.95
703.364	1655.55
703.808	2543.75
704.252	3164.25
704.696	3345.9
705.14	3157.15
705.584	4361.5
706.027	2412.65
706.471	1206.45
706.915	908.8
707.359	802.05
707.803	753.25
708.246	728.4
708.69	734.85
709.134	712.55
709.577	719.05
710.021	723.4
710.465	721.7
710.908	722.6
711.352	743.8
711.795	824.5
712.239	895.1
712.682	916.6
713.126	906.65
713.569	1016.7
714.012	839
714.456	744
714.899	692.45
715.342	644.4
715.786	623
716.229	601.7
716.672	593
717.115	593.35
717.558	595.95
718.002	615.4
718.445	641.5
718.888	674.35
719.331	685.75
719.774	699.8
720.217	686.65
720.66	646.1
721.103	613.95
721.546	584.7
721.989	567.4
722.432	554.5
722.874	564.6
723.317	567.1
723.76	612.4
724.203	750.85
724.645	1000.1
725.088	1177
725.531	1156.25
725.974	1270.3
726.416	1137.8
726.859	703.9
727.301	577.45
727.744	551.9
728.187	553.3
728.629	566.6
729.071	590.7
729.514	616.05
729.956	640.05
730.399	640.1
730.841	647
731.283	634.05
731.726	618.9
732.168	624.5
732.61	659.3
733.053	708.35
733.495	785.8
733.937	872.7
734.379	1032.95
734.821	1323.7
735.263	2090.55
735.705	3757.6
736.148	5504.6
736.59	5512.1
737.032	5980.7
737.474	4932.45
737.916	1876.2
738.357	985.9
738.799	767.1
739.241	715.1
739.683	712.45
740.125	726.35
740.567	729.2
741.008	768.7
741.45	795.4
741.892	823.75
742.334	828.3
742.775	808.45
743.217	779.45
743.658	674.35
744.1	683.3
744.542	752.1
744.983	786.75
745.425	822.55
745.866	825.8
746.307	717.5
746.749	782.7
747.19	1131.55
747.632	2222.7
748.073	4124.45
748.514	5649.35
748.956	7516.55
749.397	8791.2
749.838	6063.75
750.279	5800.5
750.72	2984.1
751.162	1243.7
751.603	722.2
752.044	580.05
752.485	514.9
752.926	477.45
753.367	463.5
753.808	447.45
754.249	436.5
754.69	437.1
755.131	435.3
755.572	433.35
756.013	429.4
756.453	429.95
756.894	443.1
757.335	443.25
757.776	452.75
758.216	460.25
758.657	489.4
759.098	542.75
759.538	659.55
759.979	950.7
760.42	1934.2
760.86	4983.1
761.301	10287.4
761.741	12016.85
762.182	13781.25
762.622	8919.3
763.063	3199.55
763.503	1407.85
763.943	1059.75
764.384	1125.25
764.824	1075.65
765.264	1064.65
765.705	758.05
766.145	548.1
766.585	491.75
767.025	516.55
767.465	657.7
767.906	798
768.346	845.85
768.786	886.75
769.226	917.65
769.666	1583.65
770.106	3450.95
770.546	4871.45
770.986	5504.7
771.426	4145.35
771.866	1731.05
772.306	792.65
772.745	497.7
773.185	432.25
773.625	433.1
774.065	502.3
774.505	817
774.944	1625.1
775.384	2451.8
775.824	2800.5
776.263	2288.75
776.703	1123.15
777.142	565.15
777.582	390.1
778.021	346.55
778.461	333.85
778.9	322.85
779.34	299
779.779	285.4
780.219	282.2
780.658	270.75
781.097	266.4
781.537	258.6
781.976	255.6
782.415	261.65
782.855	260.2
783.294	259.95
783.733	249.7
784.172	258.55
784.611	261.2
785.05	263.4
785.489	271.65
785.928	279.65
786.367	287.95
786.806	301.2
787.245	324.1
787.684	335.85
788.123	327.6
788.562	315.8
789.001	303.6
789.44	294.05
789.879	289.95
790.317	300.8
790.756	312.3
791.195	360.15
791.634	493.4
792.072	889.6
792.511	2196.55
792.95	4044.25
793.388	4890.35
793.827	3144.8
794.265	1435.1
794.704	689.1
795.142	416.05
795.581	345.3
796.019	314.7
796.458	316.25
796.896	323.15
797.334	370.5
797.773	493.2
798.211	949.15
798.649	1995.6
799.087	3371.75
799.526	4740.65
799.964	4887.7
800.402	3352.6
800.84	1505.55
801.278	733.35
801.716	444
802.154	369.3
802.592	343.6
803.03	345
803.468	352.9
803.906	350.05
804.344	343.3
804.782	329.25
805.22	340.3
805.658	350.9
806.096	376.65
806.533	412.85
806.971	531.6
807.409	778.25
807.847	1560.4
808.284	4000.45
808.722	7005.95
809.16	9833.85
809.597	13249.85
810.035	15346.95
810.472	10649.5
810.91	4499.5
811.347	2006.3
811.785	941.9
812.222	598.55
812.66	458.7
813.097	384.6
813.535	334.75
813.972	299.85
814.409	281.2
814.846	275.9
815.284	255.75
815.721	259.7
816.158	284.6
816.595	360.6
817.032	447.8
817.47	412.4
817.907	318.8
818.344	276.65
818.781	266
819.218	311.65
819.655	454.8
820.092	587.35
820.529	540.85
820.966	445.15
821.403	322.45
821.839	285.1
822.276	304.35
822.713	351.35
823.15	333.7
823.587	356.35
824.023	649.4
824.46	1632.75
824.897	2861.45
825.333	2213.5
825.77	1007.45
826.206	529.85
826.643	313
827.08	234.2
827.516	204.65
827.953	189.8
828.389	180.75
828.825	175.1
829.262	165.8
829.698	157.55
830.135	152.3
830.571	152.95
831.007	162.1
831.443	152.5
831.88	159.65
832.316	167.85
832.752	164.45
833.188	161.45
833.624	161.95
834.06	163.65
834.497	166.55
834.933	171.35
835.369	183.3
835.805	197.3
836.241	201.2
836.677	225.55
837.112	258.65
837.548	321.1
837.984	480.2
838.42	1030.1
838.856	2886
839.292	5711.2
839.727	4192.8
840.163	2824.9
840.599	4315.85
841.034	6608
841.47	3275.8
841.906	1586.15
842.341	896.3
842.777	763.65
843.212	896.3
843.648	533.6
844.083	335.25
844.519	232.7
844.954	185.15
845.39	156.75
845.825	153.6
846.261	145.45
846.696	142.25
847.131	136.95
847.566	142.85
848.002	147.05
848.437	150.9
848.872	151.1
849.307	194.3
849.742	361.5
850.177	941.3
850.613	2000.55
851.048	1429
851.483	656.2
851.918	363.25
852.353	214.05
852.788	174.35
853.223	140.1
853.657	121.15
854.092	122.95
854.527	111.65
854.962	115.65
855.397	128.8
855.832	114.5
856.266	101.7
856.701	101.35
857.136	104.35
857.57	124.05
858.005	143.55
858.44	126.35
858.874	119
859.309	127.15
859.743	125.15
860.178	116.55
860.612	132.3
861.047	165.25
861.481	213.9
861.915	154.15
862.35	120.95
862.784	102.65
863.218	96.6
863.653	106.35
864.087	122.9
864.521	167.45
864.955	276.9
865.39	464.8
865.824	336.25
866.258	398
866.692	573.8
867.126	417.2
867.56	229.3
867.994	149.75
868.428	128.85
868.862	158.45
869.296	143.55
869.73	173.15
870.164	152.45
870.598	138.6
871.031	104.75
871.465	92.95
871.899	74.6
872.333	70.8
872.766	72.55
873.2	79.1
873.634	75.45
874.067	77.9
874.501	82
874.935	80.95
875.368	74
875.802	68.35
876.235	67.6
876.669	59.65
877.102	60.4
877.535	61
877.969	58.35
878.402	62.3
878.836	62.35
879.269	57.25
879.702	60.1
880.135	67.15
880.569	68.5
881.002	55.4
881.435	53
881.868	55.05
882.301	50.65
882.734	52.4
883.167	58.1
883.601	57.45
884.034	58.65
884.467	47.35
884.899	53.15
885.332	43.5
885.765	51.55
886.198	41.85
886.631	42.1
887.064	45.25
887.497	47.2
887.929	49.2
888.362	49
888.795	45.85
889.228	49.5
889.66	45.7
890.093	46.1
890.526	46
890.958	47.05
891.391	48.45
891.823	43.85
892.256	44.2
892.688	48.65
893.121	42.3
893.553	49.1
893.985	38.5
894.418	37.85
894.85	47.5
895.282	48.1
895.715	36.55
896.147	35.6
896.579	41.35
897.011	43.6
897.444	42.25
897.876	38.95
898.308	37
898.74	37.65
899.172	44.5
899.604	42.95
900.036	40.8
900.468	36.55
900.9	43.7
901.332	52.65
901.764	47.95
902.196	47.5
902.628	55.45
903.06	72.55
903.491	80.65
903.923	65.45
904.355	64.2
904.787	73.7
905.218	61.55
905.65	57.8
906.082	54.25
906.513	49.85
906.945	46.1
907.376	53.6
907.808	55.6
908.239	57.9
908.671	64.3
909.102	70.85
909.534	98.6
909.965	181.75
910.397	467.2
910.828	1343.5
911.259	813.1
911.691	441.45
912.122	252.6
912.553	131.75
912.984	71.65
913.415	62.05
913.847	57.15
914.278	54.15
914.709	49.55
915.14	42.8
915.571	48.3
916.002	41.5
916.433	44.4
916.864	40.9
917.295	45.3
917.726	52.55
918.157	64.7
918.587	63.65
919.018	64.6
919.449	53.75
919.88	66.95
920.311	100.85
920.741	279.9
921.172	492.5
921.603	244.4
922.033	157.25
922.464	95
922.895	67.2
923.325	45.6
923.756	43.8
924.186	64.35
924.617	99.95
925.047	161.55
925.478	151.95
925.908	103.4
926.338	74.2
926.769	54.65
927.199	43.15
927.629	36.45
928.06	46.8
928.49	45.5
928.92	35.6
929.35	28.1
929.78	23.4
930.21	23.75
930.641	21.2
931.071	20.6
931.501	24.7
931.931	22.85
932.361	22.25
932.791	25.6
933.221	26.85
933.651	40.35
934.08	67.15
934.51	40.1
934.94	31.8
935.37	27.35
935.8	22.25
936.229	17.75
936.659	19.4
937.089	30
937.519	51.05
937.948	69.25
938.378	34.8
938.807	23.6
939.237	19.1
939.666	18.25
940.096	16.15
940.525	11.35
940.955	14.8
941.384	11.9
941.814	11.5
942.243	7.4
942.672	6.2
943.102	2.65
943.531	7.55
943.96	4.7
944.39	12.65
944.819	11.55
945.248	13.8
945.677	11.65
946.106	14.2
946.535	12.1
946.964	10
947.393	5.95
947.822	9.35
948.251	12.5
948.68	14.05
949.109	13.2
949.538	8.85
949.967	6.65
950.396	10.15
950.825	11.85
951.254	7.8
951.682	3.6
952.111	4.8
952.54	6.95
952.969	6.9
953.397	6.1
953.826	4.05
954.254	9.5
954.683	6
955.112	11.75
955.54	6
955.969	10
956.397	8.1
956.826	5.8
957.254	4.05
957.682	6.95
958.111	10.9
958.539	11.7
958.967	11.1
959.396	9.5
959.824	10.15
960.252	9.4
960.68	7
961.109	9.25
961.537	11.55
961.965	7.65
962.393	6.85
962.821	7.7
963.249	8.85
963.677	16.5
964.105	80.65
964.533	143.8
964.961	67.7
965.389	34.4
965.817	22.45
966.245	12.4
966.672	12.9
967.1	12.25
967.528	2.15
967.956	3.15
968.383	4.05
968.811	0.65
969.239	6.55
969.666	7.85
970.094	8.35
970.522	0
970.949	4.2
971.377	-2.9
971.804	1.6
972.232	4.45
972.659	3.3
973.087	7.55
973.514	2.8
973.941	0.2
974.369	3.85
974.796	3.55
975.223	2.8
975.651	3.2
976.078	5
976.505	11.4
976.932	32.15
977.359	44.8
977.786	23.7
978.214	16.2
978.641	7.25
979.068	5.2
979.495	0.8
979.922	5.65
980.349	6.1
980.776	9.35
981.202	5.85
981.629	7.6
982.056	7.75
982.483	-4.25
982.91	7.7
983.337	-1.95
983.763	4
984.19	7.3
984.617	-0.95
985.043	5.85
985.47	4.9
985.897	3.95
986.323	5.15
986.75	3.75
987.176	4.45
987.603	3.15
988.029	3.75
988.456	5.35
988.882	1.85
989.308	-1.6
989.735	-1.95
990.161	-0.45
990.587	-0.05
991.014	2.95
991.44	6.15
991.866	1.65
992.292	-1.9
992.719	4.5
993.145	4.85
993.571	5.35
993.997	4.2
994.423	2
994.849	-2.4
995.275	-0.15
995.701	6.8
996.127	-1.85
996.553	2
996.979	0.3
997.405	6.5
997.83	0.7
998.256	1.85
998.682	6.7
999.108	0.7
999.534	-3.65
999.959	0.1
1000.385	9.6
1000.811	-2.25
1001.236	-2
1001.662	-1.2
1002.087	8
1002.513	3.3
1002.938	-3.65
1003.364	2.25
1003.789	8.05
1004.215	-0.5
1004.64	1.4
1005.066	7.3
1005.491	7.1
1005.916	1.85
1006.342	4.6
1006.767	4.9
1007.192	5.6
1007.617	3.25
1008.042	4.3
1008.468	4.2
1008.893	7.25
1009.318	5.35
1009.743	14.55
1010.168	21.3
1010.593	17.35
1011.018	7.95
1011.443	1.65
1011.868	8.8
1012.293	5.5
1012.718	-2.7
1013.143	3.5
1013.567	7.9
1013.992	3.45
1014.417	-1.15
1014.842	-0.85
1015.267	-4.2
1015.691	10.15
1016.116	-1.3
1016.541	6.7
1016.965	3.5
1017.39	1.25
1017.814	-3.15
1018.239	-4.05
1018.663	-4.9
1019.088	-6.5
1019.512	4.25
1019.937	-5.25
1020.361	0.15
1020.785	-1.9
1021.21	-4.55
1021.634	-3.55
1022.058	0.5
1022.483	-4.95
1022.907	-1.45
1023.331	-4.2
1023.755	-6.45
1024.179	-3.35
1024.604	0.6
1025.028	-1.75
1025.452	0.55
1025.876	-0.7
1026.3	1.15
1026.724	0
1027.148	3.2
1027.572	-1.25
1027.996	3.8
1028.42	3.5
1028.843	-2.25
1029.267	-1.8
1029.691	0.95
1030.115	-1.4
1030.539	-1.65
1030.962	-3.95
1031.386	0.35
1031.81	0
1032.233	-1.8
1032.657	-6.1
1033.08	0.5
1033.504	-3.1
1033.927	-2.15
1034.351	-2.9
1034.774	-5.8
1035.198	-5.85
1035.621	2.15
1036.045	-1.65
1036.468	2.5
1036.891	-1
1037.315	0.5
1037.738	-2.7
1038.161	-4.8
1038.584	-1.55
1039.008	-7.3
1039.431	-4.55
1039.854	-4.7
1040.277	1.95
1040.7	-0.9
1041.123	-4.75
1041.546	-1.2
1041.969	1.7
1042.392	-0.05
1042.815	-5.25
1043.238	-1
1043.661	-0.65
1044.084	-5.1
1044.507	-0.3
1044.93	-1.4
1045.352	-2.5
1045.775	5.05
1046.198	4.9
1046.621	2.7
1047.043	-3.3
1047.466	3.9
1047.889	-6.3
1048.311	2.4
1048.734	-4
1049.156	0.4
1049.579	-4.35
1050.001	-5.25
1050.424	1.3
1050.846	-4.6
1051.269	-6.65
1051.691	-5.75
1052.113	-1.2
1052.536	-3.55
1052.958	-3.8
1053.38	2.6
1053.802	0.3
1054.225	2.55
1054.647	-1.3
1055.069	-2.9
1055.491	-2.1
1055.913	-0.8
1056.335	-12.6
1056.757	-1.3
1057.179	3.35
1057.601	-3.45
1058.023	2.45
1058.445	-5.1
1058.867	-2.85
1059.289	-2.35
1059.711	-5.85
1060.133	-0.25
1060.555	-5.35
1060.976	-2.65
1061.398	-1.65
1061.82	-1.6
1062.241	-7.65
1062.663	-0.65
1063.085	-8.15
1063.506	-6.1
1063.928	-3.3
1064.35	-0.75
1064.771	-2.65
1065.193	-4.25
1065.614	-5.85
1066.035	4.3
1066.457	0.25
1066.878	-3.85
1067.3	0.65
1067.721	0.3
1068.142	1.45
1068.564	0.5
1068.985	-2.7
1069.406	-5.3
1069.827	-4.7
1070.248	-3.45
1070.67	-5.1
1071.091	-11.05
1071.512	-4.15
1071.933	-2.15
1072.354	-7.2
1072.775	-2.65
1073.196	-2.8
1073.617	-6.15
1074.038	-6.85
1074.459	-6.8
1074.88	-0.45
1075.3	-8.5
1075.721	-4.8
1076.142	-2.75
1076.563	-10.35
1076.983	-2.25
1077.404	-5.9
1077.825	2
1078.246	-6.9
1078.666	-3
1079.087	-4.5
1079.507	-5.35
1079.928	-5.4
1080.348	-5.75
1080.769	-3.3
1081.189	-5.85
1081.61	-5.85
1082.03	-0.85
1082.451	-1.75
1082.871	-5.85
1083.291	-4.65
1083.711	-3.15
1084.132	-6.2
1084.552	-7.55
1084.972	-9.15
1085.392	-3.25
1085.813	-1.55
1086.233	-5.75
1086.653	0.1
1087.073	-8.4
1087.493	-4.15
1087.913	-8.9
1088.333	-3
1088.753	-3.2
1089.173	0.7
1089.593	-2.15
1090.013	-2.15
1090.433	-8.15
1090.852	-0.95
1091.272	-8.85
1091.692	-3.25
1092.112	-3.9
1092.531	-12
1092.951	1.35
1093.371	-7.8
1093.79	0
1094.21	-3.6
1094.63	2.3
1095.049	-3.65
1095.469	-11.4
1095.888	-1.85
1096.308	3.4
1096.727	-4.5
1097.146	-8.95
1097.566	-5.2
1097.985	-2.2
1098.405	-2.9
1098.824	1
1099.243	-2.6
1099.662	-6.15
1100.082	-4.1
1100.501	1.75
1100.92	0.65
1101.339	-0.05
1101.758	4.55
