Data from MSPlasma+Separation6_Subt14_10-14-43-298.txt Node
Date: Fri Jul 21 10:14:43 EDT 2017
User: Ender
Spectrometer: HR+D1039
Trigger mode: 0
Integration Time (sec): 6.430000E-3
Scans to average: 20
Electric dark correction enabled: true
Nonlinearity correction enabled: false
Boxcar width: 0
XAxis mode: Wavelengths
Number of Pixels in Spectrum: 2048
>>>>>Begin Spectral Data<<<<<
187.836	0.67
188.309	0.67
188.782	0.67
189.255	0.92
189.728	0.07
190.201	-0.13
190.674	1.27
191.147	-3.08
191.619	-0.13
192.092	0.17
192.565	3.27
193.038	2.02
193.511	2.42
193.984	-4.13
194.456	-4.53
194.929	-0.53
195.402	0.72
195.874	1.07
196.347	-0.08
196.82	0.07
197.292	-3.33
197.765	-1.48
198.237	-4.98
198.71	0.32
199.182	-0.18
199.655	4.27
200.127	0.72
200.6	1.82
201.072	0.22
201.544	-1.68
202.017	1.07
202.489	1.77
202.961	1.02
203.433	-1.13
203.906	1.52
204.378	4.67
204.85	3.72
205.322	2.27
205.794	10.12
206.266	-0.18
206.739	4.07
207.211	5.17
207.683	0.52
208.155	1.72
208.627	4.17
209.099	4.57
209.57	5.57
210.042	7.27
210.514	5.72
210.986	18.47
211.458	22.42
211.93	13.02
212.402	5.97
212.873	1.82
213.345	-3.08
213.817	6.67
214.288	0.77
214.76	7.82
215.232	0.17
215.703	3.22
216.175	4.47
216.646	5.37
217.118	3.32
217.589	2.22
218.061	3.17
218.532	2.92
219.004	7.82
219.475	12.52
219.946	27.87
220.418	38.37
220.889	25.12
221.36	14.12
221.832	8.22
222.303	4.47
222.774	3.22
223.245	4.32
223.717	4.42
224.188	7.77
224.659	3.82
225.13	3.17
225.601	5.07
226.072	1.22
226.543	7.12
227.014	9.72
227.485	13.97
227.956	10.77
228.427	16.32
228.898	12.12
229.369	13.37
229.839	12.92
230.31	15.02
230.781	13.17
231.252	21.12
231.722	25.42
232.193	36.27
232.664	48.12
233.135	64.27
233.605	67.17
234.076	49.82
234.546	47.12
235.017	46.72
235.487	46.82
235.958	47.22
236.428	71.27
236.899	115.27
237.369	121.97
237.84	90.32
238.31	114.92
238.78	116.37
239.251	120.07
239.721	118.22
240.191	92.87
240.662	57.47
241.132	42.37
241.602	51.27
242.072	72.72
242.542	88.37
243.013	68.27
243.483	57.57
243.953	40.42
244.423	41.02
244.893	53.32
245.363	61.37
245.833	59.92
246.303	63.47
246.773	79.82
247.243	82.87
247.712	95.02
248.182	118.12
248.652	114.62
249.122	175.02
249.592	322.22
250.061	490.82
250.531	779.72
251.001	595.67
251.471	484.52
251.94	377.67
252.41	202.47
252.879	142.07
253.349	107.87
253.818	87.32
254.288	74.42
254.757	76.27
255.227	104.17
255.696	79.22
256.166	78.17
256.635	77.77
257.105	96.42
257.574	128.12
258.043	133.37
258.513	241.57
258.982	304.77
259.451	212.32
259.92	210.52
260.389	201.87
260.859	141.67
261.328	165.72
261.797	246.22
262.266	216.77
262.735	99.62
263.204	61.37
263.673	53.72
264.142	43.37
264.611	49.37
265.08	54.67
265.549	59.82
266.018	54.62
266.487	52.42
266.955	45.77
267.424	60.87
267.893	63.82
268.362	60.72
268.83	55.67
269.299	58.37
269.768	69.07
270.236	81.87
270.705	91.87
271.174	85.22
271.642	96.72
272.111	112.27
272.579	181.07
273.048	280.17
273.516	366.22
273.985	372.97
274.453	281.47
274.922	164.92
275.39	108.42
275.858	101.82
276.327	83.02
276.795	85.47
277.263	98.27
277.731	142.47
278.2	298.77
278.668	404.02
279.136	309.87
279.604	184.77
280.072	98.07
280.54	85.02
281.008	84.12
281.477	87.52
281.945	85.42
282.413	90.32
282.881	92.62
283.348	89.42
283.816	95.17
284.284	104.72
284.752	97.87
285.22	102.62
285.688	109.22
286.156	180.17
286.623	490.87
287.091	978.62
287.559	501.42
288.026	191.72
288.494	118.07
288.962	100.37
289.429	93.12
289.897	88.02
290.364	81.67
290.832	86.97
291.3	87.77
291.767	96.47
292.234	96.67
292.702	101.57
293.169	108.57
293.637	109.62
294.104	106.72
294.571	100.97
295.039	97.82
295.506	98.92
295.973	107.12
296.44	101.62
296.908	110.42
297.375	129.97
297.842	129.57
298.309	112.67
298.776	111.17
299.243	116.62
299.71	106.82
300.177	106.32
300.644	118.22
301.111	137.97
301.578	119.87
302.045	111.97
302.512	107.57
302.979	112.52
303.446	118.72
303.913	120.92
304.379	132.62
304.846	145.77
305.313	160.17
305.78	184.32
306.246	220.82
306.713	230.57
307.18	205.32
307.646	225.32
308.113	202.72
308.579	168.57
309.046	162.82
309.512	157.72
309.979	143.27
310.445	135.17
310.912	144.62
311.378	145.22
311.845	142.57
312.311	135.67
312.777	135.52
313.244	149.57
313.71	147.42
314.176	169.92
314.642	191.27
315.109	220.22
315.575	205.02
316.041	189.37
316.507	178.62
316.973	199.67
317.439	195.57
317.905	210.22
318.371	209.12
318.837	198.82
319.303	203.52
319.769	191.47
320.235	215.57
320.701	245.32
321.167	256.97
321.633	307.47
322.099	414.72
322.564	557.27
323.03	443.07
323.496	315.72
323.962	298.32
324.427	272.02
324.893	242.67
325.359	234.32
325.824	207.22
326.29	224.02
326.755	217.72
327.221	214.87
327.686	225.57
328.152	206.27
328.617	200.82
329.083	204.82
329.548	217.17
330.014	226.97
330.479	232.42
330.944	275.77
331.41	320.47
331.875	305.67
332.34	307.22
332.805	362.97
333.271	457.22
333.736	593.27
334.201	537.87
334.666	412.82
335.131	460.72
335.596	368.22
336.061	389.97
336.526	391.67
336.991	343.07
337.456	372.22
337.921	292.92
338.386	247.22
338.851	225.72
339.316	211.72
339.781	207.22
340.246	205.92
340.711	211.62
341.175	213.72
341.64	227.07
342.105	224.02
342.569	237.77
343.034	255.32
343.499	261.72
343.963	253.52
344.428	247.62
344.893	254.77
345.357	256.37
345.822	252.62
346.286	256.77
346.751	268.27
347.215	265.42
347.679	277.62
348.144	291.92
348.608	290.22
349.073	295.12
349.537	327.42
350.001	327.32
350.465	303.47
350.93	292.32
351.394	297.97
351.858	295.37
352.322	315.12
352.786	314.92
353.25	303.07
353.715	302.17
354.179	320.67
354.643	339.02
355.107	351.32
355.571	373.32
356.035	375.97
356.498	360.62
356.962	384.42
357.426	380.77
357.89	344.57
358.354	330.77
358.818	317.87
359.281	334.42
359.745	350.07
360.209	341.42
360.673	354.77
361.136	355.27
361.6	351.77
362.064	369.27
362.527	381.57
362.991	371.77
363.454	377.52
363.918	382.12
364.381	374.27
364.845	364.97
365.308	360.92
365.772	364.82
366.235	365.97
366.698	387.22
367.162	452.37
367.625	506.07
368.088	420.07
368.552	390.57
369.015	390.52
369.478	412.97
369.941	428.32
370.404	436.72
370.867	463.97
371.331	466.17
371.794	472.57
372.257	532.72
372.72	557.42
373.183	528.22
373.646	540.92
374.109	541.47
374.572	603.82
375.035	710.92
375.497	536.47
375.96	444.77
376.423	425.52
376.886	424.12
377.349	430.17
377.811	442.52
378.274	452.17
378.737	457.67
379.199	468.52
379.662	486.62
380.125	512.02
380.587	566.57
381.05	607.22
381.512	600.07
381.975	583.47
382.437	573.37
382.9	572.62
383.362	574.52
383.825	608.77
384.287	774.67
384.75	868.32
385.212	762.92
385.674	625.32
386.136	564.67
386.599	560.67
387.061	595.62
387.523	617.87
387.985	623.97
388.447	645.17
388.91	715.57
389.372	871.87
389.834	818.87
390.296	678.22
390.758	690.77
391.22	709.82
391.682	883.27
392.144	1387.42
392.606	1291.97
393.068	744.22
393.529	678.42
393.991	654.77
394.453	641.07
394.915	674.07
395.377	827.32
395.838	1030.52
396.3	728.57
396.762	545.12
397.224	517.67
397.685	513.17
398.147	521.87
398.608	526.92
399.07	533.47
399.531	523.57
399.993	535.07
400.454	540.57
400.916	535.52
401.377	554.42
401.839	567.47
402.3	556.37
402.762	588.02
403.223	653.37
403.684	659.52
404.145	603.42
404.607	589.77
405.068	593.22
405.529	607.87
405.99	612.57
406.451	620.82
406.913	603.57
407.374	623.17
407.835	626.22
408.296	646.22
408.757	643.52
409.218	659.92
409.679	675.17
410.14	684.17
410.601	714.87
411.062	735.17
411.522	851.62
411.983	938.17
412.444	802.17
412.905	700.42
413.366	707.57
413.826	729.92
414.287	811.37
414.748	960.72
415.208	977.17
415.669	820.62
416.13	745.27
416.59	728.92
417.051	754.92
417.511	791.87
417.972	843.47
418.432	909.02
418.893	1013.07
419.353	966.27
419.814	749.02
420.274	669.52
420.734	674.67
421.195	719.92
421.655	755.92
422.115	717.72
422.576	693.12
423.036	697.47
423.496	723.82
423.956	749.97
424.416	807.72
424.876	911.87
425.336	920.07
425.797	905.17
426.257	906.97
426.717	856.47
427.177	795.87
427.637	820.97
428.097	863.37
428.556	906.82
429.016	987.97
429.476	983.82
429.936	952.97
430.396	924.47
430.856	939.17
431.315	976.37
431.775	1037.52
432.235	1088.82
432.694	1104.97
433.154	1037.87
433.614	1006.67
434.073	969.97
434.533	895.37
434.993	857.57
435.452	870.32
435.912	846.82
436.371	844.52
436.83	843.87
437.29	853.92
437.749	808.47
438.209	786.12
438.668	806.92
439.127	805.22
439.587	792.67
440.046	759.17
440.505	776.67
440.964	773.97
441.424	798.72
441.883	811.87
442.342	771.47
442.801	748.47
443.26	761.52
443.719	756.77
444.178	754.32
444.637	755.27
445.096	748.57
445.555	774.77
446.014	767.72
446.473	748.82
446.932	748.87
447.391	761.47
447.849	775.47
448.308	770.92
448.767	784.92
449.226	803.42
449.685	811.52
450.143	837.67
450.602	850.82
451.061	812.17
451.519	818.77
451.978	842.17
452.436	869.72
452.895	826.07
453.353	796.77
453.812	814.92
454.27	803.47
454.729	776.22
455.187	788.57
455.646	787.52
456.104	797.72
456.562	793.27
457.021	792.27
457.479	753.42
457.937	772.17
458.395	801.37
458.854	793.97
459.312	772.32
459.77	789.12
460.228	795.12
460.686	816.02
461.144	816.47
461.602	796.47
462.06	802.57
462.518	816.82
462.976	818.62
463.434	828.77
463.892	839.07
464.35	859.17
464.808	867.32
465.266	882.17
465.724	893.27
466.181	885.97
466.639	882.12
467.097	930.37
467.555	958.22
468.012	947.62
468.47	956.02
468.928	990.07
469.385	1015.72
469.843	1018.82
470.3	1013.77
470.758	1048.52
471.215	1060.42
471.673	1090.22
472.13	1125.02
472.588	1148.32
473.045	1139.72
473.503	1162.72
473.96	1218.42
474.417	1233.67
474.875	1280.52
475.332	1332.37
475.789	1350.67
476.246	1397.77
476.704	1458.27
477.161	1499.92
477.618	1546.42
478.075	1630.97
478.532	1769.42
478.989	1913.82
479.446	2119.77
479.903	2236.92
480.36	2478.47
480.817	2643.42
481.274	2842.32
481.731	3120.37
482.188	3363.32
482.645	3647.72
483.102	3856.17
483.558	4128.62
484.015	4350.17
484.472	4352.82
484.929	4200.82
485.385	4016.37
485.842	3922.92
486.299	3717.97
486.755	3334.67
487.212	2975.32
487.668	2672.92
488.125	2473.27
488.582	2264.52
489.038	2167.42
489.494	2091.47
489.951	2032.92
490.407	1975.52
490.864	1954.52
491.32	1901.42
491.776	1868.22
492.233	1857.92
492.689	1836.32
493.145	1816.67
493.602	1803.67
494.058	1835.77
494.514	1863.87
494.97	1875.12
495.426	1891.82
495.882	1891.42
496.338	1899.57
496.794	1971.82
497.251	1971.32
497.707	1986.72
498.163	1985.32
498.618	1988.32
499.074	1995.52
499.53	2043.42
499.986	2083.97
500.442	2098.87
500.898	2110.22
501.354	2149.62
501.809	2152.32
502.265	2177.62
502.721	2295.27
503.177	2358.57
503.632	2240.47
504.088	2245.87
504.543	2465.42
504.999	2305.47
505.455	2032.37
505.91	1937.92
506.366	1907.82
506.821	1907.47
507.277	1884.32
507.732	1890.37
508.187	1901.07
508.643	1909.17
509.098	1913.42
509.553	1943.42
510.009	1965.47
510.464	1998.57
510.919	1993.52
511.375	2030.87
511.83	2064.17
512.285	2101.52
512.74	2147.92
513.195	2169.82
513.65	2218.72
514.105	2250.22
514.56	2253.37
515.015	2303.37
515.47	2339.92
515.925	2320.77
516.38	2311.32
516.835	2298.77
517.29	2304.87
517.745	2318.47
518.2	2276.57
518.655	2204.97
519.109	2179.02
519.564	2161.02
520.019	2141.77
520.474	2109.47
520.928	2093.32
521.383	2088.72
521.838	2095.77
522.292	2057.52
522.747	2037.02
523.201	2023.67
523.656	2001.42
524.11	1998.87
524.565	1985.27
525.019	2006.72
525.474	2020.22
525.928	2013.07
526.382	1993.47
526.837	1973.77
527.291	1981.07
527.745	1955.37
528.2	1962.17
528.654	1949.77
529.108	1953.47
529.562	1956.97
530.016	1960.52
530.47	1973.67
530.925	1967.32
531.379	1969.22
531.833	2000.17
532.287	1983.27
532.741	1965.22
533.195	1972.92
533.649	1972.57
534.103	1976.67
534.556	1951.37
535.01	1974.32
535.464	1963.17
535.918	1988.87
536.372	1984.32
536.826	1982.22
537.279	1953.07
537.733	1960.77
538.187	1973.67
538.64	1972.62
539.094	1991.67
539.548	2022.52
540.001	1994.62
540.455	2006.07
540.908	2035.12
541.362	2051.12
541.815	2058.47
542.269	2118.72
542.722	2102.57
543.175	2119.87
543.629	2125.97
544.082	2149.52
544.536	2185.17
544.989	2180.87
545.442	2183.32
545.895	2186.87
546.349	2186.27
546.802	2195.62
547.255	2195.22
547.708	2208.02
548.161	2227.47
548.614	2226.12
549.067	2241.97
549.52	2225.57
549.973	2199.57
550.426	2180.77
550.879	2171.37
551.332	2161.97
551.785	2188.87
552.238	2200.22
552.691	2197.27
553.144	2236.97
553.596	2270.47
554.049	2294.02
554.502	2343.87
554.955	2387.22
555.407	2416.27
555.86	2394.57
556.313	2358.92
556.765	2340.82
557.218	2318.27
557.67	2321.22
558.123	2284.22
558.576	2264.17
559.028	2257.42
559.48	2288.02
559.933	2271.77
560.385	2215.97
560.838	2139.97
561.29	2074.47
561.742	2060.97
562.195	2014.57
562.647	2022.47
563.099	2006.57
563.551	2004.67
564.004	2020.32
564.456	2003.77
564.908	1966.07
565.36	1936.87
565.812	1893.07
566.264	1885.07
566.716	1861.62
567.168	1830.77
567.62	1837.92
568.072	1816.82
568.524	1791.67
568.976	1785.37
569.428	1770.87
569.88	1764.42
570.332	1767.07
570.784	1774.67
571.235	1752.02
571.687	1772.52
572.139	1772.52
572.59	1791.27
573.042	1803.47
573.494	1799.37
573.945	1772.42
574.397	1739.12
574.849	1732.52
575.3	1741.32
575.752	1703.27
576.203	1697.57
576.655	1713.52
577.106	1691.57
577.557	1674.32
578.009	1664.27
578.46	1674.22
578.912	1665.42
579.363	1673.97
579.814	1669.37
580.265	1662.17
580.717	1666.37
581.168	1661.87
581.619	1675.72
582.07	1701.17
582.521	1698.57
582.972	1692.57
583.423	1705.72
583.875	1780.67
584.326	1899.62
584.777	2150.52
585.227	2459.42
585.678	2685.02
586.129	2741.57
586.58	2789.22
587.031	2829.82
587.482	3042.67
587.933	3751.92
588.384	3341.42
588.834	2542.27
589.285	1978.22
589.736	1918.52
590.186	1907.27
590.637	1895.17
591.088	1848.92
591.538	1812.87
591.989	1808.87
592.439	1789.87
592.89	1784.02
593.34	1788.37
593.791	1806.82
594.241	1814.37
594.692	1836.52
595.142	1807.87
595.593	1786.52
596.043	1791.12
596.493	1814.27
596.943	1860.92
597.394	1825.22
597.844	1798.67
598.294	1834.67
598.744	1894.37
599.195	1981.57
599.645	2090.37
600.095	2191.77
600.545	2304.17
600.995	2395.52
601.445	2475.77
601.895	2592.17
602.345	2680.02
602.795	2631.62
603.245	2511.07
603.695	2377.52
604.145	2242.77
604.594	2136.02
605.044	2034.32
605.494	1896.82
605.944	1813.37
606.393	1774.92
606.843	1750.32
607.293	1754.67
607.743	1741.92
608.192	1759.32
608.642	1768.47
609.091	1774.52
609.541	1767.52
609.99	1763.97
610.44	1729.47
610.889	1710.32
611.339	1704.52
611.788	1682.07
612.238	1707.62
612.687	1715.72
613.136	1746.17
613.586	1768.12
614.035	1776.82
614.484	1795.52
614.933	1803.12
615.383	1772.27
615.832	1698.67
616.281	1675.37
616.73	1613.37
617.179	1569.52
617.628	1538.52
618.077	1508.97
618.526	1493.07
618.975	1483.52
619.424	1455.62
619.873	1456.77
620.322	1449.22
620.771	1449.22
621.22	1424.52
621.669	1400.87
622.118	1380.62
622.567	1367.57
623.015	1346.67
623.464	1347.87
623.913	1328.17
624.361	1324.47
624.81	1329.12
625.259	1322.57
625.707	1303.92
626.156	1302.47
626.604	1326.87
627.053	1327.17
627.501	1325.47
627.95	1336.97
628.398	1351.37
628.847	1337.47
629.295	1348.42
629.744	1357.67
630.192	1401.07
630.64	1506.82
631.089	1669.87
631.537	1746.17
631.985	1754.52
632.433	1835.82
632.881	1817.62
633.33	2181.32
633.778	2418.02
634.226	1683.77
634.674	1548.12
635.122	1523.22
635.57	1559.57
636.018	1826.97
636.466	1471.22
636.914	1304.27
637.362	1291.67
637.81	1312.07
638.258	1345.32
638.705	1360.67
639.153	1405.52
639.601	1409.72
640.049	1438.77
640.497	1481.92
640.944	1511.72
641.392	1447.27
641.84	1375.17
642.287	1320.67
642.735	1297.92
643.182	1295.17
643.63	1289.37
644.078	1298.87
644.525	1319.67
644.973	1363.77
645.42	1378.07
645.867	1403.27
646.315	1421.02
646.762	1473.82
647.21	1508.67
647.657	1600.32
648.104	1662.57
648.551	1729.17
648.999	1879.82
649.446	2083.77
649.893	2340.27
650.34	2759.47
650.787	3466.82
651.234	4524.87
651.682	6349.92
652.129	9118.67
652.576	13066.17
653.023	15534.52
653.47	15537.72
653.917	15537.77
654.363	15537.67
654.81	15534.67
655.257	15535.32
655.704	15539.12
656.151	9877.37
656.598	6381.92
657.044	4514.22
657.491	3495.17
657.938	2813.57
658.385	2359.02
658.831	2074.17
659.278	1855.87
659.724	1685.32
660.171	1561.22
660.618	1448.72
661.064	1371.17
661.511	1319.72
661.957	1259.22
662.404	1234.97
662.85	1230.57
663.296	1209.67
663.743	1178.37
664.189	1173.72
664.635	1161.07
665.082	1131.77
665.528	1124.32
665.974	1097.97
666.42	1082.47
666.867	1105.97
667.313	1130.17
667.759	1184.17
668.205	1176.02
668.651	1196.07
669.097	1158.52
669.543	1275.92
669.989	1189.17
670.435	1022.82
670.881	1017.42
671.327	1049.27
671.773	1119.87
672.219	1205.67
672.665	1280.27
673.11	1317.02
673.556	1337.22
674.002	1365.67
674.448	1377.07
674.893	1167.07
675.339	1026.62
675.785	942.32
676.23	902.67
676.676	865.47
677.122	849.57
677.567	826.72
678.013	801.07
678.458	795.27
678.904	791.72
679.349	779.67
679.794	776.47
680.24	772.42
680.685	775.62
681.131	779.52
681.576	768.22
682.021	780.72
682.466	784.67
682.912	794.62
683.357	834.22
683.802	895.82
684.247	984.27
684.692	1051.37
685.137	1086.47
685.583	1103.97
686.028	1167.77
686.473	1098.52
686.918	956.37
687.363	869.17
687.807	835.72
688.252	782.87
688.697	765.87
689.142	747.47
689.587	746.32
690.032	762.87
690.477	783.77
690.921	829.67
691.366	870.17
691.811	914.17
692.255	980.82
692.7	1199.77
693.145	1723.17
693.589	2622.52
694.034	3112.77
694.478	3293.22
694.923	3014.62
695.367	4245.37
695.812	2605.02
696.256	1108.72
696.701	817.17
697.145	752.57
697.59	730.07
698.034	719.97
698.478	722.87
698.922	731.17
699.367	751.47
699.811	782.87
700.255	849.67
700.699	928.47
701.143	997.77
701.588	1052.87
702.032	1099.07
702.476	1130.47
702.92	1192.67
703.364	1569.02
703.808	2402.82
704.252	2991.52
704.696	3143.07
705.14	2959.92
705.584	4027.92
706.027	2246.32
706.471	1132.87
706.915	849.57
707.359	757.67
707.803	718.27
708.246	692.87
708.69	689.72
709.134	680.67
709.577	666.82
710.021	692.12
710.465	687.52
710.908	677.37
711.352	709.87
711.795	786.12
712.239	839.47
712.682	864.77
713.126	857.87
713.569	951.77
714.012	791.77
714.456	701.27
714.899	653.87
715.342	607.77
715.786	583.62
716.229	568.92
716.672	561.07
717.115	558.07
717.558	563.97
718.002	583.32
718.445	611.52
718.888	640.42
719.331	640.72
719.774	661.17
720.217	650.02
720.66	609.12
721.103	579.37
721.546	548.77
721.989	536.17
722.432	527.27
722.874	525.22
723.317	538.67
723.76	585.32
724.203	718.52
724.645	950.02
725.088	1110.72
725.531	1072.92
725.974	1179.82
726.416	1068.47
726.859	672.72
727.301	549.07
727.744	521.77
728.187	524.42
728.629	533.07
729.071	561.72
729.514	579.77
729.956	602.82
730.399	616.52
730.841	610.82
731.283	592.37
731.726	581.42
732.168	589.62
732.61	621.62
733.053	666.92
733.495	740.52
733.937	825.62
734.379	970.22
734.821	1237.82
735.263	1970.17
735.705	3552.97
736.148	5190.02
736.59	5145.97
737.032	5529.27
737.474	4564.77
737.916	1770.62
738.357	934.92
738.799	717.52
739.241	668.97
739.683	670.57
740.125	680.42
740.567	686.22
741.008	718.87
741.45	740.57
741.892	774.47
742.334	771.42
742.775	760.12
743.217	734.12
743.658	627.62
744.1	643.37
744.542	711.17
744.983	739.97
745.425	775.87
745.866	765.72
746.307	674.72
746.749	731.02
747.19	1066.32
747.632	2090.92
748.073	3874.97
748.514	5319.52
748.956	7045.37
749.397	8190.77
749.838	5648.92
750.279	5354.32
750.72	2775.07
751.162	1170.87
751.603	672.52
752.044	547.72
752.485	490.77
752.926	453.32
753.367	435.97
753.808	423.87
754.249	419.57
754.69	416.22
755.131	410.22
755.572	409.67
756.013	408.22
756.453	410.22
756.894	418.27
757.335	422.92
757.776	421.47
758.216	435.12
758.657	466.77
759.098	514.02
759.538	630.27
759.979	907.02
760.42	1841.02
760.86	4703.22
761.301	9690.02
761.741	11246.22
762.182	12823.82
762.622	8273.02
763.063	3008.77
763.503	1340.57
763.943	1060.92
764.384	1167.52
764.824	1114.72
765.264	1103.57
765.705	772.22
766.145	544.42
766.585	471.87
767.025	508.37
767.465	671.17
767.906	837.27
768.346	879.67
768.786	910.07
769.226	898.37
769.666	1507.72
770.106	3276.17
770.546	4577.52
770.986	5106.52
771.426	3855.92
771.866	1628.87
772.306	741.47
772.745	467.52
773.185	406.92
773.625	413.32
774.065	488.67
774.505	815.77
774.944	1644.82
775.384	2466.72
775.824	2807.52
776.263	2290.37
776.703	1115.62
777.142	562.52
777.582	380.72
778.021	349.47
778.461	320.17
778.9	316.97
779.34	282.87
779.779	268.92
780.219	262.37
780.658	255.47
781.097	254.72
781.537	248.87
781.976	250.37
782.415	245.32
782.855	246.42
783.294	248.37
783.733	239.02
784.172	247.17
784.611	243.42
785.05	254.07
785.489	254.72
785.928	263.27
786.367	268.22
786.806	284.62
787.245	307.62
787.684	307.62
788.123	312.72
788.562	297.12
789.001	287.62
789.44	274.82
789.879	283.87
790.317	276.67
790.756	293.62
791.195	347.32
791.634	461.57
792.072	843.02
792.511	2072.57
792.95	3781.47
793.388	4533.32
793.827	2946.62
794.265	1352.17
794.704	648.62
795.142	398.42
795.581	328.37
796.019	297.72
796.458	291.87
796.896	305.47
797.334	345.82
797.773	471.87
798.211	902.77
798.649	1873.97
799.087	3148.92
799.526	4424.37
799.964	4521.47
800.402	3116.92
800.84	1415.07
801.278	694.27
801.716	423.77
802.154	341.72
802.592	326.12
803.03	322.12
803.468	328.37
803.906	336.27
804.344	323.62
804.782	319.27
805.22	325.07
805.658	333.32
806.096	348.52
806.533	393.12
806.971	507.97
807.409	732.32
807.847	1469.62
808.284	3758.72
808.722	6534.42
809.16	9151.22
809.597	12449.77
810.035	15021.17
810.472	9905.37
810.91	4216.37
811.347	1884.62
811.785	883.22
812.222	551.82
812.66	429.17
813.097	366.17
813.535	320.42
813.972	289.87
814.409	264.92
814.846	253.42
815.284	240.62
815.721	248.22
816.158	269.42
816.595	354.87
817.032	440.87
817.47	405.72
817.907	322.82
818.344	281.67
818.781	261.22
819.218	293.17
819.655	427.42
820.092	547.22
820.529	510.67
820.966	419.27
821.403	301.22
821.839	268.27
822.276	283.42
822.713	322.87
823.15	311.62
823.587	341.17
824.023	616.52
824.46	1552.47
824.897	2662.47
825.333	2049.07
825.77	954.32
826.206	496.72
826.643	287.72
827.08	222.22
827.516	192.67
827.953	180.47
828.389	169.82
828.825	161.47
829.262	151.22
829.698	150.02
830.135	144.32
830.571	141.67
831.007	147.67
831.443	150.67
831.88	146.87
832.316	159.27
832.752	154.67
833.188	155.17
833.624	153.02
834.06	162.57
834.497	156.52
834.933	161.02
835.369	179.37
835.805	187.67
836.241	197.87
836.677	212.27
837.112	243.47
837.548	299.07
837.984	452.57
838.42	969.92
838.856	2698.27
839.292	5290.97
839.727	3896.02
840.163	2644.02
840.599	4026.12
841.034	6148.17
841.47	3048.77
841.906	1503.27
842.341	845.02
842.777	743.97
843.212	885.57
843.648	519.67
844.083	324.72
844.519	218.72
844.954	177.62
845.39	153.02
845.825	147.27
846.261	135.37
846.696	134.62
847.131	126.17
847.566	128.97
848.002	132.37
848.437	144.62
848.872	144.27
849.307	189.22
849.742	339.12
850.177	877.22
850.613	1863.07
851.048	1331.72
851.483	610.12
851.918	342.57
852.353	204.67
852.788	161.97
853.223	135.62
853.657	122.37
854.092	111.62
854.527	106.97
854.962	112.77
855.397	121.57
855.832	106.97
856.266	97.62
856.701	97.07
857.136	102.42
857.57	116.87
858.005	133.27
858.44	119.42
858.874	109.12
859.309	117.82
859.743	117.27
860.178	108.42
860.612	117.47
861.047	154.27
861.481	205.57
861.915	143.97
862.35	115.97
862.784	93.67
863.218	87.12
863.653	100.42
864.087	123.57
864.521	150.32
864.955	261.77
865.39	441.37
865.824	315.42
866.258	365.72
866.692	529.12
867.126	384.82
867.56	213.07
867.994	142.02
868.428	124.27
868.862	147.87
869.296	135.97
869.73	167.37
870.164	142.92
870.598	126.57
871.031	97.42
871.465	88.02
871.899	72.77
872.333	67.27
872.766	71.47
873.2	71.82
873.634	73.47
874.067	70.72
874.501	74.37
874.935	75.82
875.368	73.57
875.802	64.72
876.235	63.97
876.669	58.47
877.102	53.67
877.535	62.82
877.969	58.92
878.402	61.07
878.836	57.97
879.269	57.52
879.702	57.72
880.135	59.22
880.569	63.87
881.002	53.97
881.435	59.07
881.868	53.12
882.301	55.12
882.734	51.87
883.167	49.22
883.601	46.87
884.034	50.52
884.467	50.92
884.899	47.77
885.332	45.47
885.765	45.37
886.198	42.07
886.631	47.12
887.064	47.57
887.497	43.22
887.929	43.02
888.362	41.27
888.795	44.32
889.228	47.72
889.66	42.67
890.093	43.32
890.526	43.12
890.958	44.22
891.391	46.17
891.823	43.52
892.256	44.87
892.688	47.12
893.121	40.77
893.553	42.87
893.985	39.07
894.418	37.92
894.85	46.12
895.282	41.22
895.715	39.72
896.147	34.37
896.579	34.17
897.011	45.97
897.444	40.17
897.876	37.12
898.308	36.72
898.74	38.42
899.172	41.67
899.604	43.57
900.036	42.22
900.468	36.57
900.9	44.17
901.332	51.67
901.764	51.97
902.196	48.12
902.628	48.52
903.06	66.02
903.491	72.52
903.923	61.42
904.355	64.52
904.787	72.27
905.218	57.07
905.65	55.97
906.082	53.27
906.513	47.22
906.945	50.07
907.376	49.92
907.808	56.07
908.239	61.42
908.671	60.07
909.102	66.02
909.534	93.57
909.965	169.67
910.397	437.72
910.828	1249.37
911.259	763.82
911.691	416.42
912.122	242.07
912.553	119.72
912.984	67.22
913.415	58.62
913.847	53.77
914.278	50.92
914.709	43.67
915.14	46.07
915.571	47.27
916.002	39.92
916.433	43.17
916.864	35.92
917.295	42.12
917.726	50.72
918.157	61.12
918.587	59.42
919.018	54.47
919.449	50.17
919.88	60.47
920.311	93.02
920.741	268.42
921.172	457.52
921.603	233.17
922.033	144.72
922.464	99.37
922.895	60.92
923.325	47.02
923.756	47.42
924.186	63.87
924.617	103.87
925.047	163.72
925.478	144.42
925.908	109.42
926.338	74.67
926.769	55.42
927.199	48.27
927.629	36.67
928.06	41.87
928.49	41.47
928.92	38.17
929.35	33.02
929.78	24.57
930.21	27.57
930.641	22.22
931.071	27.32
931.501	22.12
931.931	18.62
932.361	22.02
932.791	26.57
933.221	30.22
933.651	38.12
934.08	65.02
934.51	38.62
934.94	31.02
935.37	25.77
935.8	20.57
936.229	21.02
936.659	16.12
937.089	31.52
937.519	42.07
937.948	61.77
938.378	38.17
938.807	24.22
939.237	22.87
939.666	19.97
940.096	14.17
940.525	7.77
940.955	17.52
941.384	7.67
941.814	11.87
942.243	12.52
942.672	12.07
943.102	9.37
943.531	8.07
943.96	8.97
944.39	13.17
944.819	14.52
945.248	9.52
945.677	12.77
946.106	13.82
946.535	12.62
946.964	10.67
947.393	8.97
947.822	9.17
948.251	15.57
948.68	15.37
949.109	9.32
949.538	6.82
949.967	7.12
950.396	11.87
950.825	11.72
951.254	10.67
951.682	4.72
952.111	2.57
952.54	6.67
952.969	8.37
953.397	3.52
953.826	3.82
954.254	11.02
954.683	9.92
955.112	13.27
955.54	7.77
955.969	6.92
956.397	12.82
956.826	9.47
957.254	8.57
957.682	7.67
958.111	12.77
958.539	10.77
958.967	10.22
959.396	9.37
959.824	6.97
960.252	4.72
960.68	7.07
961.109	8.67
961.537	11.37
961.965	1.92
962.393	5.97
962.821	6.47
963.249	8.57
963.677	18.92
964.105	75.62
964.533	131.97
964.961	66.12
965.389	42.42
965.817	22.07
966.245	10.27
966.672	8.97
967.1	13.67
967.528	6.42
967.956	7.62
968.383	7.62
968.811	9.27
969.239	6.17
969.666	0.72
970.094	9.57
970.522	2.22
970.949	7.57
971.377	1.97
971.804	4.17
972.232	3.67
972.659	3.57
973.087	7.87
973.514	1.57
973.941	1.77
974.369	0.07
974.796	3.12
975.223	2.67
975.651	5.47
976.078	3.92
976.505	14.92
976.932	32.82
977.359	40.42
977.786	20.82
978.214	14.42
978.641	3.52
979.068	2.67
979.495	8.17
979.922	2.27
980.349	9.82
980.776	7.82
981.202	1.22
981.629	6.12
982.056	4.67
982.483	1.37
982.91	5.67
983.337	3.57
983.763	7.37
984.19	7.37
984.617	-0.43
985.043	3.37
985.47	8.82
985.897	5.17
986.323	9.97
986.75	3.82
987.176	5.62
987.603	1.42
988.029	4.67
988.456	5.27
988.882	-0.98
989.308	-0.58
989.735	-0.53
990.161	0.42
990.587	5.17
991.014	4.47
991.44	6.67
991.866	3.52
992.292	0.17
992.719	3.77
993.145	6.92
993.571	4.77
993.997	6.62
994.423	5.07
994.849	0.12
995.275	7.32
995.701	2.32
996.127	0.02
996.553	4.52
996.979	0.32
997.405	0.57
997.83	1.27
998.256	6.22
998.682	0.27
999.108	3.52
999.534	-4.33
999.959	1.17
1000.385	7.47
1000.811	-1.73
1001.236	-3.38
1001.662	0.82
1002.087	5.77
1002.513	3.67
1002.938	2.67
1003.364	3.67
1003.789	7.57
1004.215	3.67
1004.64	0.97
1005.066	4.52
1005.491	8.02
1005.916	3.92
1006.342	2.32
1006.767	2.77
1007.192	5.77
1007.617	1.47
1008.042	5.42
1008.468	6.02
1008.893	5.97
1009.318	8.27
1009.743	12.67
1010.168	18.52
1010.593	18.32
1011.018	9.92
1011.443	6.42
1011.868	10.37
1012.293	5.97
1012.718	4.72
1013.143	4.62
1013.567	4.32
1013.992	6.62
1014.417	2.42
1014.842	1.37
1015.267	0.62
1015.691	1.62
1016.116	5.37
1016.541	6.02
1016.965	3.47
1017.39	-0.43
1017.814	0.57
1018.239	-1.18
1018.663	-6.03
1019.088	1.12
1019.512	5.32
1019.937	-1.03
1020.361	2.02
1020.785	0.17
1021.21	0.07
1021.634	0.82
1022.058	0.67
1022.483	-0.38
1022.907	-2.83
1023.331	-2.13
1023.755	-2.93
1024.179	2.47
1024.604	0.37
1025.028	2.02
1025.452	-0.13
1025.876	4.52
1026.3	3.22
1026.724	-3.13
1027.148	4.72
1027.572	0.82
1027.996	0.92
1028.42	1.87
1028.843	-2.43
1029.267	-4.83
1029.691	4.22
1030.115	-2.73
1030.539	0.27
1030.962	-1.93
1031.386	2.47
1031.81	1.37
1032.233	-0.88
1032.657	-5.68
1033.08	0.62
1033.504	-0.18
1033.927	-0.28
1034.351	-5.03
1034.774	-1.73
1035.198	-5.98
1035.621	-0.58
1036.045	-4.98
1036.468	3.87
1036.891	-1.63
1037.315	5.27
1037.738	-0.13
1038.161	2.47
1038.584	-1.08
1039.008	-2.18
1039.431	-2.28
1039.854	-6.08
1040.277	2.52
1040.7	-1.43
1041.123	2.77
1041.546	-4.88
1041.969	2.02
1042.392	5.92
1042.815	-8.68
1043.238	-3.23
1043.661	0.77
1044.084	-4.13
1044.507	-1.78
1044.93	-1.88
1045.352	1.32
1045.775	2.57
1046.198	4.92
1046.621	4.47
1047.043	4.32
1047.466	5.17
1047.889	-4.33
1048.311	4.82
1048.734	-2.78
1049.156	-0.73
1049.579	-2.23
1050.001	0.77
1050.424	-2.38
1050.846	-2.33
1051.269	-9.68
1051.691	-2.38
1052.113	-1.28
1052.536	-4.43
1052.958	-4.93
1053.38	-0.58
1053.802	1.77
1054.225	-1.58
1054.647	-2.03
1055.069	-0.48
1055.491	2.72
1055.913	0.77
1056.335	-8.78
1056.757	-4.18
1057.179	-4.18
1057.601	-2.93
1058.023	1.82
1058.445	-5.08
1058.867	4.17
1059.289	-0.63
1059.711	-2.48
1060.133	-0.48
1060.555	-0.88
1060.976	0.52
1061.398	-3.88
1061.82	-0.43
1062.241	-3.63
1062.663	-5.13
1063.085	-1.88
1063.506	-3.08
1063.928	-3.78
1064.35	-3.23
1064.771	2.92
1065.193	-1.78
1065.614	-2.58
1066.035	3.77
1066.457	3.37
1066.878	3.52
1067.3	-2.03
1067.721	3.77
1068.142	3.17
1068.564	5.42
1068.985	-0.08
1069.406	-7.43
1069.827	-4.78
1070.248	-6.58
1070.67	-6.53
1071.091	-7.18
1071.512	-0.73
1071.933	-0.18
1072.354	-4.58
1072.775	1.72
1073.196	2.82
1073.617	-5.98
1074.038	-0.28
1074.459	-3.73
1074.88	-2.53
1075.3	2.27
1075.721	3.27
1076.142	-4.18
1076.563	-4.93
1076.983	0.72
1077.404	-4.18
1077.825	-2.18
1078.246	-6.43
1078.666	-4.53
1079.087	1.82
1079.507	-4.28
1079.928	0.37
1080.348	-2.08
1080.769	2.22
1081.189	-2.33
1081.61	-5.63
1082.03	1.42
1082.451	-3.88
1082.871	-4.73
1083.291	-2.18
1083.711	-5.98
1084.132	-1.63
1084.552	-2.73
1084.972	-5.88
1085.392	-4.83
1085.813	-0.38
1086.233	-1.03
1086.653	0.37
1087.073	-2.88
1087.493	-2.53
1087.913	-4.63
1088.333	-6.73
1088.753	-2.23
1089.173	-0.28
1089.593	2.42
1090.013	-2.93
1090.433	-9.03
1090.852	2.57
1091.272	-4.28
1091.692	-2.28
1092.112	-8.48
1092.531	-5.53
1092.951	-2.93
1093.371	-2.93
1093.79	-3.78
1094.21	-0.18
1094.63	-5.53
1095.049	-2.08
1095.469	-9.13
1095.888	-4.23
1096.308	1.17
1096.727	-2.08
1097.146	-5.33
1097.566	-1.68
1097.985	-5.58
1098.405	-0.68
1098.824	-2.38
1099.243	-2.08
1099.662	0.02
1100.082	-3.68
1100.501	1.37
1100.92	5.82
1101.339	-0.68
1101.758	2.27
