Data from MSPlasma+Separation6_Subt14_10-15-19-614.txt Node
Date: Fri Jul 21 10:15:19 EDT 2017
User: Ender
Spectrometer: HR+D1039
Trigger mode: 0
Integration Time (sec): 6.430000E-3
Scans to average: 20
Electric dark correction enabled: true
Nonlinearity correction enabled: false
Boxcar width: 0
XAxis mode: Wavelengths
Number of Pixels in Spectrum: 2048
>>>>>Begin Spectral Data<<<<<
187.836	-1.13
188.309	-1.13
188.782	-1.13
189.255	0.52
189.728	2.27
190.201	-0.13
190.674	2.57
191.147	-0.78
191.619	4.47
192.092	1.12
192.565	-0.98
193.038	1.22
193.511	4.47
193.984	-2.88
194.456	-3.23
194.929	-1.98
195.402	-5.28
195.874	-0.23
196.347	-0.33
196.82	3.92
197.292	-0.33
197.765	0.07
198.237	-2.13
198.71	-5.03
199.182	-3.98
199.655	1.92
200.127	3.67
200.6	0.92
201.072	2.92
201.544	-1.48
202.017	0.07
202.489	1.47
202.961	-3.83
203.433	-0.33
203.906	-0.38
204.378	2.57
204.85	1.72
205.322	3.57
205.794	6.72
206.266	4.57
206.739	5.07
207.211	0.37
207.683	0.07
208.155	7.07
208.627	7.87
209.099	7.17
209.57	2.52
210.042	6.72
210.514	5.27
210.986	13.77
211.458	22.42
211.93	11.97
212.402	6.07
212.873	-3.38
213.345	-0.88
213.817	1.67
214.288	0.47
214.76	4.32
215.232	2.47
215.703	6.87
216.175	2.62
216.646	2.32
217.118	5.47
217.589	-0.58
218.061	2.02
218.532	-0.63
219.004	7.27
219.475	12.97
219.946	30.42
220.418	35.07
220.889	22.37
221.36	13.47
221.832	8.62
222.303	9.02
222.774	4.42
223.245	6.17
223.717	4.87
224.188	11.57
224.659	7.07
225.13	4.87
225.601	2.87
226.072	7.72
226.543	11.27
227.014	8.27
227.485	11.62
227.956	16.07
228.427	16.37
228.898	13.82
229.369	12.87
229.839	8.27
230.31	16.27
230.781	13.57
231.252	21.97
231.722	31.77
232.193	36.17
232.664	37.17
233.135	55.67
233.605	58.72
234.076	43.77
234.546	39.87
235.017	45.92
235.487	40.37
235.958	41.32
236.428	65.17
236.899	104.97
237.369	116.62
237.84	87.52
238.31	104.52
238.78	105.42
239.251	105.22
239.721	103.52
240.191	83.52
240.662	52.07
241.132	44.47
241.602	49.32
242.072	75.02
242.542	85.97
243.013	61.72
243.483	52.62
243.953	43.12
244.423	45.67
244.893	49.87
245.363	62.12
245.833	52.37
246.303	58.42
246.773	78.47
247.243	79.27
247.712	94.27
248.182	109.72
248.652	112.17
249.122	166.62
249.592	309.07
250.061	464.92
250.531	750.57
251.001	568.97
251.471	471.82
251.94	354.82
252.41	192.97
252.879	135.67
253.349	107.67
253.818	86.67
254.288	73.77
254.757	78.42
255.227	104.17
255.696	78.87
256.166	73.32
256.635	78.62
257.105	101.32
257.574	127.57
258.043	135.52
258.513	232.17
258.982	298.92
259.451	204.12
259.92	206.67
260.389	189.47
260.859	138.47
261.328	164.77
261.797	235.12
262.266	203.97
262.735	95.92
263.204	63.67
263.673	57.72
264.142	47.82
264.611	53.32
265.08	61.97
265.549	67.47
266.018	54.37
266.487	52.42
266.955	53.07
267.424	63.02
267.893	64.12
268.362	67.52
268.83	62.07
269.299	65.22
269.768	78.92
270.236	88.47
270.705	97.62
271.174	91.02
271.642	104.97
272.111	123.92
272.579	191.62
273.048	293.87
273.516	366.97
273.985	374.92
274.453	290.57
274.922	175.27
275.39	108.52
275.858	106.47
276.327	85.97
276.795	91.32
277.263	102.42
277.731	133.47
278.2	253.87
278.668	332.57
279.136	255.92
279.604	165.67
280.072	105.62
280.54	96.02
281.008	95.17
281.477	93.57
281.945	101.47
282.413	97.97
282.881	99.67
283.348	101.77
283.816	106.87
284.284	118.17
284.752	111.92
285.22	115.22
285.688	124.82
286.156	196.87
286.623	527.67
287.091	1049.47
287.559	545.12
288.026	214.32
288.494	139.47
288.962	114.37
289.429	112.62
289.897	109.02
290.364	99.42
290.832	94.92
291.3	106.67
291.767	111.62
292.234	110.87
292.702	115.42
293.169	121.27
293.637	132.22
294.104	123.12
294.571	118.12
295.039	120.82
295.506	121.07
295.973	124.92
296.44	116.37
296.908	134.97
297.375	150.27
297.842	147.77
298.309	127.92
298.776	123.97
299.243	130.72
299.71	119.52
300.177	129.07
300.644	138.67
301.111	150.97
301.578	138.37
302.045	130.77
302.512	126.32
302.979	134.07
303.446	140.27
303.913	144.02
304.379	153.87
304.846	174.97
305.313	189.87
305.78	217.87
306.246	263.32
306.713	282.62
307.18	244.97
307.646	267.92
308.113	235.22
308.579	188.47
309.046	186.67
309.512	190.07
309.979	171.87
310.445	164.57
310.912	167.32
311.378	166.67
311.845	170.07
312.311	166.62
312.777	164.17
313.244	169.72
313.71	179.57
314.176	199.17
314.642	220.67
315.109	264.02
315.575	237.37
316.041	222.42
316.507	210.12
316.973	233.32
317.439	224.27
317.905	246.72
318.371	244.27
318.837	230.27
319.303	239.57
319.769	223.12
320.235	246.22
320.701	282.67
321.167	306.62
321.633	361.32
322.099	504.37
322.564	672.92
323.03	523.87
323.496	370.02
323.962	353.92
324.427	325.87
324.893	289.67
325.359	277.17
325.824	244.82
326.29	255.52
326.755	262.12
327.221	260.37
327.686	270.47
328.152	253.27
328.617	231.47
329.083	236.87
329.548	255.67
330.014	262.27
330.479	281.02
330.944	326.37
331.41	378.22
331.875	360.07
332.34	370.37
332.805	428.87
333.271	540.17
333.736	721.37
334.201	639.77
334.666	479.72
335.131	549.07
335.596	429.97
336.061	459.77
336.526	461.77
336.991	408.37
337.456	436.92
337.921	348.52
338.386	283.52
338.851	267.87
339.316	249.32
339.781	240.37
340.246	248.27
340.711	247.12
341.175	253.72
341.64	263.62
342.105	262.92
342.569	274.62
343.034	294.22
343.499	306.02
343.963	294.22
344.428	290.52
344.893	292.47
345.357	305.87
345.822	297.97
346.286	301.37
346.751	319.12
347.215	307.32
347.679	319.27
348.144	346.42
348.608	339.42
349.073	352.17
349.537	381.87
350.001	380.82
350.465	354.37
350.93	345.12
351.394	337.97
351.858	344.47
352.322	353.97
352.786	361.02
353.25	348.37
353.715	354.72
354.179	372.92
354.643	385.87
355.107	401.77
355.571	421.97
356.035	435.17
356.498	416.02
356.962	440.62
357.426	427.47
357.89	401.02
358.354	377.87
358.818	369.87
359.281	384.12
359.745	402.22
360.209	390.82
360.673	397.32
361.136	403.17
361.6	401.82
362.064	425.57
362.527	427.87
362.991	432.27
363.454	427.32
363.918	431.62
364.381	431.47
364.845	426.37
365.308	410.07
365.772	422.72
366.235	417.22
366.698	441.22
367.162	530.82
367.625	587.07
368.088	474.32
368.552	438.77
369.015	444.07
369.478	475.67
369.941	477.47
370.404	486.57
370.867	516.72
371.331	524.92
371.794	533.82
372.257	587.62
372.72	615.07
373.183	591.27
373.646	607.12
374.109	596.42
374.572	695.77
375.035	813.57
375.497	622.72
375.96	505.87
376.423	485.12
376.886	484.97
377.349	495.67
377.811	491.22
378.274	504.67
378.737	516.52
379.199	525.82
379.662	531.77
380.125	569.97
380.587	631.02
381.05	664.67
381.512	660.22
381.975	648.22
382.437	636.82
382.9	637.57
383.362	634.92
383.825	688.52
384.287	848.02
384.75	941.52
385.212	833.62
385.674	695.12
386.136	630.67
386.599	631.32
387.061	658.27
387.523	677.17
387.985	691.07
388.447	705.12
388.91	783.67
389.372	935.67
389.834	888.47
390.296	749.67
390.758	760.97
391.22	780.27
391.682	953.27
392.144	1459.17
392.606	1365.12
393.068	819.62
393.529	750.82
393.991	732.62
394.453	708.57
394.915	748.62
395.377	898.07
395.838	1103.57
396.3	798.97
396.762	626.77
397.224	601.07
397.685	593.52
398.147	595.72
398.608	605.42
399.07	603.87
399.531	601.32
399.993	613.12
400.454	623.22
400.916	620.77
401.377	638.27
401.839	639.97
402.3	638.82
402.762	676.12
403.223	742.02
403.684	754.22
404.145	690.77
404.607	671.52
405.068	678.32
405.529	686.02
405.99	699.82
406.451	704.92
406.913	688.17
407.374	701.67
407.835	708.52
408.296	721.42
408.757	731.57
409.218	757.37
409.679	759.07
410.14	774.37
410.601	797.07
411.062	839.47
411.522	954.47
411.983	1047.87
412.444	915.72
412.905	804.62
413.366	809.17
413.826	834.67
414.287	926.07
414.748	1108.12
415.208	1135.92
415.669	952.42
416.13	860.27
416.59	844.72
417.051	879.72
417.511	912.92
417.972	986.37
418.432	1055.62
418.893	1190.07
419.353	1124.97
419.814	861.87
420.274	776.52
420.734	766.52
421.195	817.17
421.655	848.37
422.115	824.42
422.576	790.17
423.036	795.47
423.496	831.42
423.956	876.32
424.416	934.97
424.876	1053.37
425.336	1058.37
425.797	1037.92
426.257	1036.52
426.717	968.32
427.177	913.97
427.637	933.87
428.097	972.47
428.556	1023.32
429.016	1104.92
429.476	1101.47
429.936	1059.52
430.396	1029.02
430.856	1041.97
431.315	1069.92
431.775	1158.67
432.235	1219.12
432.694	1235.07
433.154	1161.47
433.614	1133.12
434.073	1089.62
434.533	993.72
434.993	964.32
435.452	971.52
435.912	957.57
436.371	944.32
436.83	958.62
437.29	969.57
437.749	922.07
438.209	903.92
438.668	924.12
439.127	928.72
439.587	908.37
440.046	877.57
440.505	893.52
440.964	902.47
441.424	929.82
441.883	943.47
442.342	887.37
442.801	857.57
443.26	878.17
443.719	868.17
444.178	859.72
444.637	876.42
445.096	886.47
445.555	893.72
446.014	892.82
446.473	870.57
446.932	865.82
447.391	879.92
447.849	901.47
448.308	892.72
448.767	909.22
449.226	933.67
449.685	932.37
450.143	977.02
450.602	983.77
451.061	940.02
451.519	951.67
451.978	973.67
452.436	996.12
452.895	955.27
453.353	927.72
453.812	941.77
454.27	931.07
454.729	908.12
455.187	908.62
455.646	924.22
456.104	932.82
456.562	923.82
457.021	916.77
457.479	878.22
457.937	912.22
458.395	937.22
458.854	918.02
459.312	901.22
459.77	911.02
460.228	924.72
460.686	943.12
461.144	952.07
461.602	921.97
462.06	933.47
462.518	950.12
462.976	950.27
463.434	954.57
463.892	973.32
464.35	984.17
464.808	1005.37
465.266	1016.22
465.724	1023.27
466.181	1035.77
466.639	1025.47
467.097	1067.67
467.555	1109.52
468.012	1100.27
468.47	1105.87
468.928	1150.37
469.385	1176.67
469.843	1181.42
470.3	1179.32
470.758	1219.67
471.215	1231.72
471.673	1249.32
472.13	1294.57
472.588	1323.32
473.045	1302.27
473.503	1335.12
473.96	1387.52
474.417	1399.47
474.875	1467.82
475.332	1519.82
475.789	1548.57
476.246	1595.72
476.704	1649.37
477.161	1695.92
477.618	1745.72
478.075	1833.72
478.532	1981.22
478.989	2122.87
479.446	2325.72
479.903	2461.12
480.36	2670.22
480.817	2843.37
481.274	3019.72
481.731	3309.27
482.188	3560.47
482.645	3841.27
483.102	4063.67
483.558	4351.57
484.015	4579.57
484.472	4565.67
484.929	4436.82
485.385	4255.62
485.842	4154.42
486.299	3952.47
486.755	3592.67
487.212	3227.67
487.668	2932.82
488.125	2717.02
488.582	2507.42
489.038	2414.97
489.494	2347.22
489.951	2284.27
490.407	2229.32
490.864	2199.32
491.32	2143.97
491.776	2122.12
492.233	2132.07
492.689	2100.12
493.145	2074.47
493.602	2047.57
494.058	2096.07
494.514	2127.27
494.97	2131.77
495.426	2160.52
495.882	2168.77
496.338	2183.12
496.794	2248.97
497.251	2260.92
497.707	2274.12
498.163	2276.12
498.618	2273.52
499.074	2292.77
499.53	2331.87
499.986	2380.82
500.442	2393.07
500.898	2398.52
501.354	2445.37
501.809	2442.92
502.265	2478.92
502.721	2600.57
503.177	2666.57
503.632	2543.32
504.088	2561.32
504.543	2795.87
504.999	2623.67
505.455	2324.82
505.91	2221.77
506.366	2201.72
506.821	2189.32
507.277	2182.27
507.732	2190.52
508.187	2182.32
508.643	2202.72
509.098	2191.02
509.553	2233.32
510.009	2261.22
510.464	2305.87
510.919	2315.47
511.375	2350.02
511.83	2382.07
512.285	2413.92
512.74	2463.37
513.195	2512.82
513.65	2553.87
514.105	2586.32
514.56	2612.52
515.015	2664.07
515.47	2677.92
515.925	2677.22
516.38	2667.17
516.835	2648.57
517.29	2669.22
517.745	2667.12
518.2	2606.27
518.655	2533.42
519.109	2513.42
519.564	2482.17
520.019	2463.17
520.474	2432.27
520.928	2411.02
521.383	2409.47
521.838	2408.67
522.292	2372.47
522.747	2342.07
523.201	2332.32
523.656	2295.12
524.11	2293.27
524.565	2294.62
525.019	2302.52
525.474	2311.12
525.928	2304.22
526.382	2284.02
526.837	2262.57
527.291	2281.42
527.745	2263.12
528.2	2258.52
528.654	2239.22
529.108	2244.42
529.562	2245.87
530.016	2245.07
530.47	2264.77
530.925	2260.92
531.379	2265.67
531.833	2291.22
532.287	2283.82
532.741	2263.97
533.195	2269.17
533.649	2265.52
534.103	2267.67
534.556	2249.57
535.01	2278.12
535.464	2259.22
535.918	2288.07
536.372	2280.42
536.826	2270.77
537.279	2251.52
537.733	2263.77
538.187	2266.02
538.64	2260.27
539.094	2299.42
539.548	2321.92
540.001	2303.67
540.455	2320.47
540.908	2337.17
541.362	2360.97
541.815	2373.82
542.269	2421.32
542.722	2412.97
543.175	2441.87
543.629	2442.87
544.082	2479.12
544.536	2508.62
544.989	2501.87
545.442	2519.72
545.895	2530.62
546.349	2519.37
546.802	2521.87
547.255	2518.77
547.708	2538.52
548.161	2567.37
548.614	2563.37
549.067	2573.92
549.52	2554.72
549.973	2529.02
550.426	2522.62
550.879	2500.17
551.332	2493.12
551.785	2515.97
552.238	2546.92
552.691	2543.62
553.144	2575.12
553.596	2616.27
554.049	2648.82
554.502	2707.92
554.955	2765.32
555.407	2791.97
555.86	2757.57
556.313	2728.27
556.765	2700.52
557.218	2666.12
557.67	2682.02
558.123	2638.17
558.576	2615.87
559.028	2622.77
559.48	2656.22
559.933	2628.22
560.385	2549.37
560.838	2461.12
561.29	2396.27
561.742	2390.62
562.195	2325.47
562.647	2314.82
563.099	2325.82
563.551	2301.97
564.004	2331.02
564.456	2300.92
564.908	2263.42
565.36	2209.47
565.812	2174.32
566.264	2139.97
566.716	2123.77
567.168	2087.67
567.62	2095.22
568.072	2069.47
568.524	2054.22
568.976	2042.07
569.428	2034.97
569.88	2024.52
570.332	2033.72
570.784	2030.07
571.235	2010.62
571.687	2033.67
572.139	2033.02
572.59	2050.92
573.042	2059.47
573.494	2067.27
573.945	2035.22
574.397	1995.17
574.849	1993.87
575.3	2001.52
575.752	1969.42
576.203	1958.27
576.655	1959.12
577.106	1946.47
577.557	1922.27
578.009	1920.42
578.46	1919.27
578.912	1907.52
579.363	1926.62
579.814	1915.97
580.265	1909.92
580.717	1912.52
581.168	1903.47
581.619	1917.52
582.07	1934.97
582.521	1935.52
582.972	1932.87
583.423	1946.17
583.875	1993.52
584.326	2082.82
584.777	2252.07
585.227	2449.47
585.678	2589.27
586.129	2654.57
586.58	2699.57
587.031	2745.02
587.482	2910.92
587.933	3391.22
588.384	3134.67
588.834	2596.02
589.285	2221.12
589.736	2185.17
590.186	2188.57
590.637	2165.97
591.088	2116.32
591.538	2085.07
591.989	2068.97
592.439	2055.07
592.89	2032.97
593.34	2040.37
593.791	2047.47
594.241	2053.37
594.692	2096.12
595.142	2065.02
595.593	2044.57
596.043	2027.72
596.493	2068.57
596.943	2122.82
597.394	2087.72
597.844	2071.22
598.294	2103.37
598.744	2160.02
599.195	2271.57
599.645	2411.42
600.095	2516.37
600.545	2642.27
600.995	2755.87
601.445	2860.12
601.895	3010.22
602.345	3098.77
602.795	3039.12
603.245	2909.42
603.695	2734.87
604.145	2576.12
604.594	2467.12
605.044	2341.37
605.494	2194.77
605.944	2079.57
606.393	2026.37
606.843	2010.57
607.293	2011.42
607.743	2007.82
608.192	2017.32
608.642	2019.47
609.091	2027.47
609.541	2026.27
609.99	2010.52
610.44	1973.57
610.889	1945.82
611.339	1938.72
611.788	1911.62
612.238	1939.17
612.687	1952.77
613.136	1976.92
613.586	2007.87
614.035	2002.67
614.484	2035.27
614.933	2038.87
615.383	1993.67
615.832	1933.62
616.281	1896.72
616.73	1846.42
617.179	1790.27
617.628	1759.02
618.077	1725.27
618.526	1699.57
618.975	1687.47
619.424	1650.22
619.873	1673.92
620.322	1649.82
620.771	1650.92
621.22	1624.42
621.669	1588.32
622.118	1568.72
622.567	1565.42
623.015	1541.57
623.464	1528.87
623.913	1509.97
624.361	1502.77
624.81	1503.52
625.259	1506.97
625.707	1491.07
626.156	1499.92
626.604	1511.12
627.053	1516.97
627.501	1506.12
627.95	1511.82
628.398	1548.67
628.847	1522.87
629.295	1522.82
629.744	1551.27
630.192	1585.37
630.64	1690.62
631.089	1839.52
631.537	1927.27
631.985	1908.12
632.433	2005.57
632.881	1993.57
633.33	2389.37
633.778	2594.67
634.226	1852.22
634.674	1716.92
635.122	1701.67
635.57	1739.72
636.018	2015.27
636.466	1648.27
636.914	1484.77
637.362	1474.87
637.81	1497.87
638.258	1538.52
638.705	1554.32
639.153	1589.77
639.601	1610.07
640.049	1632.82
640.497	1681.62
640.944	1725.67
641.392	1645.12
641.84	1544.67
642.287	1486.27
642.735	1453.82
643.182	1444.37
643.63	1447.72
644.078	1447.07
644.525	1470.92
644.973	1508.37
645.42	1524.27
645.867	1532.62
646.315	1564.32
646.762	1629.57
647.21	1663.32
647.657	1750.82
648.104	1807.67
648.551	1856.17
648.999	2006.72
649.446	2195.32
649.893	2454.77
650.34	2858.27
650.787	3522.67
651.234	4549.72
651.682	6318.82
652.129	8962.52
652.576	12780.42
653.023	15536.92
653.47	15540.12
653.917	15540.17
654.363	15540.07
654.81	15537.07
655.257	15537.72
655.704	15525.42
656.151	9825.27
656.598	6390.42
657.044	4582.47
657.491	3581.47
657.938	2905.57
658.385	2496.12
658.831	2203.07
659.278	1978.82
659.724	1816.62
660.171	1699.12
660.618	1578.77
661.064	1492.17
661.511	1445.82
661.957	1397.32
662.404	1373.67
662.85	1364.27
663.296	1345.42
663.743	1316.12
664.189	1308.62
664.635	1299.67
665.082	1277.42
665.528	1247.27
665.974	1229.17
666.42	1222.42
666.867	1235.42
667.313	1240.77
667.759	1280.37
668.205	1277.87
668.651	1287.42
669.097	1256.42
669.543	1363.87
669.989	1295.12
670.435	1147.82
670.881	1143.97
671.327	1190.52
671.773	1271.27
672.219	1364.72
672.665	1460.12
673.11	1506.47
673.556	1516.57
674.002	1558.22
674.448	1587.82
674.893	1339.67
675.339	1176.57
675.785	1080.32
676.23	1032.47
676.676	995.27
677.122	969.72
677.567	938.77
678.013	908.67
678.458	916.97
678.904	901.47
679.349	893.82
679.794	897.87
680.24	900.22
680.685	882.62
681.131	885.62
681.576	892.42
682.021	892.07
682.466	894.77
682.912	909.82
683.357	954.87
683.802	1028.62
684.247	1130.37
684.692	1208.07
685.137	1253.97
685.583	1274.32
686.028	1343.57
686.473	1276.77
686.918	1096.42
687.363	998.07
687.807	955.72
688.252	915.52
688.697	871.27
689.142	852.62
689.587	860.67
690.032	875.22
690.477	907.27
690.921	953.17
691.366	993.07
691.811	1037.47
692.255	1125.42
692.7	1379.62
693.145	1993.97
693.589	3026.67
694.034	3594.82
694.478	3834.82
694.923	3496.67
695.367	5015.17
695.812	3006.17
696.256	1267.67
696.701	929.72
697.145	870.17
697.59	831.52
698.034	824.87
698.478	832.42
698.922	836.97
699.367	852.27
699.811	901.02
700.255	975.47
700.699	1062.52
701.143	1147.67
701.588	1206.12
702.032	1261.77
702.476	1297.42
702.92	1371.67
703.364	1805.17
703.808	2774.12
704.252	3455.92
704.696	3624.62
705.14	3426.32
705.584	4737.72
706.027	2601.87
706.471	1311.82
706.915	974.07
707.359	874.37
707.803	817.72
708.246	788.42
708.69	785.97
709.134	775.47
709.577	776.67
710.021	792.92
710.465	779.17
710.908	780.57
711.352	812.67
711.795	898.17
712.239	965.02
712.682	989.97
713.126	977.97
713.569	1095.12
714.012	899.37
714.456	796.17
714.899	745.62
715.342	696.37
715.786	674.62
716.229	650.32
716.672	635.02
717.115	640.12
717.558	646.22
718.002	664.92
718.445	697.17
718.888	734.42
719.331	741.37
719.774	762.12
720.217	740.62
720.66	698.07
721.103	666.12
721.546	630.22
721.989	614.77
722.432	605.07
722.874	602.92
723.317	617.77
723.76	667.77
724.203	818.37
724.645	1088.47
725.088	1281.97
725.531	1247.87
725.974	1374.92
726.416	1231.72
726.859	765.02
727.301	630.17
727.744	600.57
728.187	604.37
728.629	616.32
729.071	647.62
729.514	671.12
729.956	690.12
730.399	705.52
730.841	701.37
731.283	685.87
731.726	668.47
732.168	674.42
732.61	709.37
733.053	772.07
733.495	848.72
733.937	949.12
734.379	1120.87
734.821	1430.32
735.263	2299.47
735.705	4120.87
736.148	6013.07
736.59	5969.92
737.032	6502.12
737.474	5338.02
737.916	2028.72
738.357	1070.47
738.799	827.57
739.241	767.87
739.683	768.22
740.125	782.22
740.567	782.17
741.008	820.52
741.45	861.92
741.892	882.12
742.334	886.87
742.775	876.67
743.217	833.62
743.658	727.42
744.1	728.47
744.542	804.57
744.983	844.27
745.425	882.62
745.866	874.47
746.307	770.52
746.749	842.37
747.19	1241.42
747.632	2424.37
748.073	4488.72
748.514	6152.72
748.956	8160.52
749.397	9535.62
749.838	6550.87
750.279	6264.72
750.72	3211.72
751.162	1352.37
751.603	782.07
752.044	624.92
752.485	552.67
752.926	522.97
753.367	503.52
753.808	489.52
754.249	482.17
754.69	478.32
755.131	472.97
755.572	470.17
756.013	469.87
756.453	469.42
756.894	474.92
757.335	480.42
757.776	489.47
758.216	503.17
758.657	533.47
759.098	589.97
759.538	712.27
759.979	1044.62
760.42	2123.67
760.86	5467.77
761.301	11166.07
761.741	12900.77
762.182	14739.87
762.622	9595.77
763.063	3445.47
763.503	1505.77
763.943	1124.37
764.384	1176.57
764.824	1110.37
765.264	1098.52
765.705	795.37
766.145	584.52
766.585	522.62
767.025	551.52
767.465	702.52
767.906	845.97
768.346	882.12
768.786	936.97
769.226	979.92
769.666	1730.42
770.106	3778.32
770.546	5272.17
770.986	5954.97
771.426	4474.72
771.866	1868.42
772.306	1179.42
772.745	881.37
773.185	812.47
773.625	803.87
774.065	878.22
774.505	1195.57
774.944	1998.97
775.384	2788.27
775.824	3151.12
776.263	2626.32
776.703	1487.72
777.142	942.82
777.582	766.37
778.021	724.77
778.461	705.77
778.9	697.47
779.34	674.62
779.779	659.62
780.219	658.97
780.658	647.72
781.097	646.37
781.537	640.27
781.976	634.02
782.415	634.97
782.855	635.07
783.294	631.62
783.733	630.57
784.172	636.17
784.611	633.07
785.05	638.07
785.489	644.52
785.928	651.42
786.367	662.72
786.806	684.92
787.245	703.07
787.684	710.02
788.123	709.42
788.562	692.47
789.001	680.07
789.44	674.07
789.879	670.72
790.317	673.52
790.756	696.67
791.195	738.07
791.634	874.12
792.072	1296.02
792.511	2659.82
792.95	4537.37
793.388	5369.02
793.827	3592.02
794.265	1830.82
794.704	1074.07
795.142	802.27
795.581	727.37
796.019	692.57
796.458	697.37
796.896	702.27
797.334	748.27
797.773	883.12
798.211	1368.67
798.649	2438.92
799.087	3860.27
799.526	5264.52
799.964	5393.12
800.402	3786.12
800.84	1912.22
801.278	1126.62
801.716	827.67
802.154	741.27
802.592	725.32
803.03	717.72
803.468	728.37
803.906	733.72
804.344	729.97
804.782	714.52
805.22	712.97
805.658	725.87
806.096	754.47
806.533	801.37
806.971	925.07
807.409	1172.42
807.847	1994.32
808.284	4540.92
808.722	7569.12
809.16	10510.67
809.597	13930.87
810.035	15132.52
810.472	11202.57
810.91	4978.62
811.347	2418.92
811.785	1336.77
812.222	978.42
812.66	842.62
813.097	766.22
813.535	715.32
813.972	682.42
814.409	658.72
814.846	643.87
815.284	631.72
815.721	635.87
816.158	661.07
816.595	731.57
817.032	819.62
817.47	777.17
817.907	690.62
818.344	653.57
818.781	640.27
819.218	688.47
819.655	823.67
820.092	958.97
820.529	908.17
820.966	810.22
821.403	699.67
821.839	654.17
822.276	671.77
822.713	720.17
823.15	703.02
823.587	744.07
824.023	1047.32
824.46	2076.02
824.897	3319.72
825.333	2621.82
825.77	1403.77
826.206	912.37
826.643	686.82
827.08	605.62
827.516	575.07
827.953	565.47
828.389	555.42
828.825	549.47
829.262	545.97
829.698	536.32
830.135	529.72
830.571	528.07
831.007	534.62
831.443	533.32
831.88	530.42
832.316	541.12
832.752	532.17
833.188	540.57
833.624	539.02
834.06	538.82
834.497	541.82
834.933	547.42
835.369	556.17
835.805	562.97
836.241	577.82
836.677	602.27
837.112	637.77
837.548	702.27
837.984	861.92
838.42	1445.87
838.856	3362.82
839.292	6241.22
839.727	4645.87
840.163	3282.42
840.599	4814.02
841.034	7106.02
841.47	3690.42
841.906	1993.27
842.341	1276.62
842.777	1147.72
843.212	1263.07
843.648	902.82
844.083	704.47
844.519	603.32
844.954	558.32
845.39	528.72
845.825	522.02
846.261	520.87
846.696	517.82
847.131	508.97
847.566	512.72
848.002	515.07
848.437	522.12
848.872	530.87
849.307	575.17
849.742	742.22
850.177	1345.57
850.613	2438.77
851.048	1825.32
851.483	1036.97
851.918	737.87
852.353	586.52
852.788	541.27
853.223	511.42
853.657	497.52
854.092	486.57
854.527	487.82
854.962	493.92
855.397	496.52
855.832	486.47
856.266	473.67
856.701	475.02
857.136	472.97
857.57	494.72
858.005	513.12
858.44	494.92
858.874	490.92
859.309	498.32
859.743	497.12
860.178	491.72
860.612	503.52
861.047	537.32
861.481	586.42
861.915	523.47
862.35	487.92
862.784	469.57
863.218	467.92
863.653	474.02
864.087	492.72
864.521	536.72
864.955	658.02
865.39	853.02
865.824	715.02
866.258	769.02
866.692	936.57
867.126	777.17
867.56	599.97
867.994	517.02
868.428	500.77
868.862	529.37
869.296	514.17
869.73	542.77
870.164	519.12
870.598	503.52
871.031	469.17
871.465	460.17
871.899	448.07
872.333	442.97
872.766	441.37
873.2	447.07
873.634	443.67
874.067	449.67
874.501	447.92
874.935	448.27
875.368	449.67
875.802	444.02
876.235	438.52
876.669	433.72
877.102	430.92
877.535	432.07
877.969	427.92
878.402	434.67
878.836	431.72
879.269	432.47
879.702	429.37
880.135	430.57
880.569	438.27
881.002	432.57
881.435	429.97
881.868	431.37
882.301	420.77
882.734	424.27
883.167	428.77
883.601	421.82
884.034	423.82
884.467	416.32
884.899	423.37
885.332	416.87
885.765	418.32
886.198	417.87
886.631	421.07
887.064	422.12
887.497	415.02
887.929	423.37
888.362	416.12
888.795	414.42
889.228	422.52
889.66	415.47
890.093	418.97
890.526	419.22
890.958	413.97
891.391	417.57
891.823	411.37
892.256	417.62
892.688	416.52
893.121	411.62
893.553	417.12
893.985	413.97
894.418	411.62
894.85	419.47
895.282	412.07
895.715	408.27
896.147	405.92
896.579	403.62
897.011	416.77
897.444	416.12
897.876	408.22
898.308	408.97
898.74	412.92
899.172	413.02
899.604	412.82
900.036	410.52
900.468	413.32
900.9	410.77
901.332	421.57
901.764	428.32
902.196	428.67
902.628	422.47
903.06	441.67
903.491	445.92
903.923	435.52
904.355	435.77
904.787	438.82
905.218	430.77
905.65	428.47
906.082	421.42
906.513	424.97
906.945	419.97
907.376	421.62
907.808	429.47
908.239	434.07
908.671	433.37
909.102	440.22
909.534	469.02
909.965	559.22
910.397	851.57
910.828	1751.97
911.259	1188.27
911.691	811.97
912.122	630.47
912.553	496.52
912.984	442.92
913.415	435.67
913.847	427.47
914.278	424.97
914.709	419.62
915.14	414.12
915.571	417.77
916.002	417.22
916.433	410.72
916.864	409.22
917.295	417.37
917.726	419.12
918.157	439.52
918.587	429.67
919.018	429.92
919.449	423.02
919.88	439.32
920.311	476.22
920.741	662.32
921.172	870.37
921.603	619.12
922.033	533.37
922.464	470.77
922.895	437.17
923.325	416.67
923.756	418.22
924.186	434.67
924.617	475.17
925.047	531.52
925.478	518.57
925.908	471.22
926.338	442.02
926.769	423.82
927.199	416.87
927.629	410.52
928.06	412.07
928.49	413.67
928.92	402.62
929.35	404.77
929.78	396.67
930.21	394.12
930.641	386.87
931.071	394.32
931.501	386.97
931.931	392.72
932.361	393.42
932.791	399.37
933.221	397.52
933.651	407.22
934.08	437.72
934.51	406.52
934.94	400.62
935.37	399.27
935.8	388.27
936.229	388.37
936.659	387.17
937.089	405.67
937.519	419.62
937.948	428.72
938.378	406.52
938.807	396.37
939.237	388.82
939.666	387.52
940.096	381.97
940.525	380.32
940.955	387.67
941.384	378.47
941.814	380.32
942.243	384.67
942.672	380.47
943.102	379.87
943.531	379.72
943.96	379.57
944.39	379.52
944.819	382.32
945.248	380.77
945.677	384.07
946.106	383.27
946.535	381.27
946.964	379.22
947.393	378.72
947.822	373.52
948.251	380.12
948.68	380.22
949.109	383.97
949.538	379.62
949.967	379.02
950.396	376.77
950.825	382.32
951.254	377.67
951.682	373.67
952.111	371.87
952.54	378.57
952.969	376.37
953.397	371.22
953.826	372.82
954.254	381.77
954.683	376.72
955.112	378.87
955.54	375.97
955.969	377.47
956.397	379.42
956.826	373.77
957.254	375.62
957.682	378.62
958.111	377.87
958.539	377.57
958.967	374.12
959.396	381.92
959.824	382.07
960.252	380.72
960.68	376.42
961.109	378.07
961.537	379.57
961.965	376.32
962.393	377.57
962.821	379.02
963.249	378.67
963.677	389.37
964.105	454.62
964.533	514.87
964.961	439.32
965.389	405.02
965.817	388.37
966.245	382.57
966.672	378.52
967.1	379.92
967.528	372.72
967.956	375.22
968.383	373.12
968.811	374.92
969.239	374.52
969.666	374.67
970.094	375.97
970.522	372.07
970.949	370.37
971.377	372.67
971.804	373.72
972.232	375.62
972.659	374.87
973.087	377.67
973.514	371.32
973.941	374.52
974.369	371.37
974.796	370.67
975.223	370.97
975.651	378.67
976.078	374.02
976.505	382.77
976.932	406.17
977.359	414.02
977.786	392.92
978.214	384.82
978.641	378.32
979.068	375.72
979.495	374.82
979.922	374.47
980.349	372.17
980.776	374.77
981.202	375.12
981.629	376.12
982.056	375.32
982.483	368.42
982.91	376.07
983.337	368.77
983.763	372.22
984.19	372.82
984.617	369.07
985.043	373.77
985.47	376.57
985.897	370.47
986.323	376.47
986.75	366.62
987.176	369.97
987.603	374.92
988.029	370.62
988.456	378.37
988.882	369.62
989.308	366.27
989.735	372.77
990.161	371.47
990.587	371.72
991.014	373.37
991.44	373.82
991.866	372.52
992.292	368.32
992.719	368.87
993.145	371.92
993.571	376.42
993.997	373.77
994.423	370.77
994.849	366.32
995.275	369.67
995.701	371.32
996.127	367.82
996.553	372.17
996.979	369.62
997.405	375.22
997.83	371.72
998.256	372.42
998.682	371.37
999.108	374.57
999.534	367.17
999.959	369.82
1000.385	376.52
1000.811	368.62
1001.236	367.37
1001.662	370.57
1002.087	371.72
1002.513	374.12
1002.938	366.57
1003.364	372.67
1003.789	373.17
1004.215	374.57
1004.64	372.02
1005.066	371.42
1005.491	373.02
1005.916	373.67
1006.342	371.77
1006.767	373.02
1007.192	374.57
1007.617	374.87
1008.042	371.52
1008.468	369.47
1008.893	373.52
1009.318	376.17
1009.743	381.22
1010.168	387.47
1010.593	386.32
1011.018	377.82
1011.443	373.82
1011.868	375.17
1012.293	371.72
1012.718	368.57
1013.143	370.47
1013.567	373.57
1013.992	370.92
1014.417	373.57
1014.842	372.42
1015.267	371.72
1015.691	373.72
1016.116	369.17
1016.541	369.87
1016.965	371.82
1017.39	372.47
1017.814	367.42
1018.239	367.42
1018.663	362.12
1019.088	367.77
1019.512	373.72
1019.937	367.37
1020.361	369.37
1020.785	364.67
1021.21	361.67
1021.634	365.82
1022.058	368.12
1022.483	365.97
1022.907	369.67
1023.331	367.07
1023.755	370.12
1024.179	368.67
1024.604	370.77
1025.028	369.22
1025.452	368.47
1025.876	374.17
1026.3	369.77
1026.724	365.02
1027.148	370.67
1027.572	368.02
1027.996	375.32
1028.42	370.07
1028.843	368.02
1029.267	368.47
1029.691	370.67
1030.115	367.92
1030.539	368.52
1030.962	367.77
1031.386	369.07
1031.81	367.92
1032.233	365.27
1032.657	364.87
1033.08	367.22
1033.504	370.77
1033.927	366.77
1034.351	368.02
1034.774	366.62
1035.198	365.77
1035.621	365.77
1036.045	367.17
1036.468	371.77
1036.891	369.52
1037.315	368.77
1037.738	366.37
1038.161	370.32
1038.584	366.57
1039.008	364.72
1039.431	367.57
1039.854	361.22
1040.277	373.02
1040.7	365.32
1041.123	368.17
1041.546	370.52
1041.969	365.07
1042.392	371.52
1042.815	365.97
1043.238	371.37
1043.661	368.12
1044.084	366.47
1044.507	366.22
1044.93	370.17
1045.352	370.32
1045.775	371.52
1046.198	373.27
1046.621	374.37
1047.043	369.47
1047.466	368.47
1047.889	368.62
1048.311	372.62
1048.734	365.52
1049.156	366.82
1049.579	368.97
1050.001	366.32
1050.424	366.37
1050.846	362.72
1051.269	366.12
1051.691	366.02
1052.113	373.42
1052.536	365.27
1052.958	363.62
1053.38	368.92
1053.802	370.72
1054.225	368.12
1054.647	369.27
1055.069	367.77
1055.491	367.02
1055.913	368.27
1056.335	362.97
1056.757	367.52
1057.179	364.12
1057.601	367.42
1058.023	368.82
1058.445	362.67
1058.867	368.67
1059.289	371.02
1059.711	364.12
1060.133	368.92
1060.555	366.57
1060.976	370.47
1061.398	367.22
1061.82	371.52
1062.241	367.12
1062.663	367.72
1063.085	361.57
1063.506	360.97
1063.928	364.22
1064.35	367.67
1064.771	364.02
1065.193	364.97
1065.614	367.47
1066.035	370.82
1066.457	371.07
1066.878	367.22
1067.3	368.12
1067.721	370.22
1068.142	370.57
1068.564	370.62
1068.985	371.22
1069.406	364.42
1069.827	368.97
1070.248	361.27
1070.67	364.12
1071.091	367.67
1071.512	368.32
1071.933	365.57
1072.354	363.22
1072.775	364.72
1073.196	366.67
1073.617	363.67
1074.038	365.67
1074.459	365.42
1074.88	365.92
1075.3	366.27
1075.721	366.62
1076.142	367.27
1076.563	364.37
1076.983	372.17
1077.404	362.52
1077.825	366.67
1078.246	364.72
1078.666	362.47
1079.087	362.97
1079.507	364.07
1079.928	368.72
1080.348	365.72
1080.769	362.97
1081.189	366.27
1081.61	363.57
1082.03	366.92
1082.451	366.07
1082.871	363.42
1083.291	363.62
1083.711	367.12
1084.132	366.17
1084.552	360.12
1084.972	360.27
1085.392	363.72
1085.813	369.92
1086.233	365.07
1086.653	368.32
1087.073	364.42
1087.493	367.17
1087.913	362.77
1088.333	369.17
1088.753	370.22
1089.173	369.77
1089.593	366.42
1090.013	367.97
1090.433	365.42
1090.852	369.32
1091.272	364.67
1091.692	367.47
1092.112	363.87
1092.531	365.77
1092.951	368.72
1093.371	365.17
1093.79	366.12
1094.21	363.57
1094.63	368.37
1095.049	367.12
1095.469	359.07
1095.888	368.42
1096.308	367.97
1096.727	360.97
1097.146	363.82
1097.566	364.42
1097.985	362.97
1098.405	367.37
1098.824	369.37
1099.243	365.12
1099.662	365.07
1100.082	365.47
1100.501	365.47
1100.92	370.67
1101.339	371.42
1101.758	365.12
