Data from MSPlasma+Separation6_Subt14_10-15-34-154.txt Node
Date: Fri Jul 21 10:15:34 EDT 2017
User: Ender
Spectrometer: HR+D1039
Trigger mode: 0
Integration Time (sec): 2.510000E-3
Scans to average: 20
Electric dark correction enabled: true
Nonlinearity correction enabled: false
Boxcar width: 0
XAxis mode: Wavelengths
Number of Pixels in Spectrum: 2048
>>>>>Begin Spectral Data<<<<<
187.836	1.68
188.309	1.68
188.782	1.68
189.255	0.73
189.728	1.88
190.201	0.63
190.674	0.28
191.147	-0.97
191.619	2.28
192.092	-1.82
192.565	2.03
193.038	0.38
193.511	1.63
193.984	1.78
194.456	-3.17
194.929	-1.82
195.402	-5.82
195.874	0.33
196.347	2.08
196.82	3.28
197.292	-1.82
197.765	-1.72
198.237	1.63
198.71	-6.37
199.182	2.53
199.655	3.93
200.127	-1.07
200.6	-2.12
201.072	1.78
201.544	-2.12
202.017	-2.82
202.489	0.33
202.961	-5.67
203.433	-1.32
203.906	-2.52
204.378	1.03
204.85	-7.07
205.322	-2.62
205.794	1.88
206.266	-4.72
206.739	2.18
207.211	-2.37
207.683	-1.37
208.155	-0.22
208.627	0.28
209.099	1.28
209.57	0.98
210.042	-1.57
210.514	6.83
210.986	3.68
211.458	8.03
211.93	3.08
212.402	2.53
212.873	-2.17
213.345	-4.27
213.817	-0.37
214.288	-0.87
214.76	4.68
215.232	-2.02
215.703	-2.52
216.175	4.03
216.646	-0.42
217.118	1.38
217.589	-4.47
218.061	-1.07
218.532	-1.87
219.004	1.13
219.475	5.33
219.946	10.48
220.418	14.53
220.889	7.58
221.36	6.13
221.832	4.53
222.303	6.18
222.774	1.03
223.245	-4.22
223.717	-0.17
224.188	3.73
224.659	4.48
225.13	-1.77
225.601	1.28
226.072	0.63
226.543	5.78
227.014	1.63
227.485	0.78
227.956	2.18
228.427	8.73
228.898	4.38
229.369	3.13
229.839	7.18
230.31	5.38
230.781	0.48
231.252	7.78
231.722	8.13
232.193	9.48
232.664	12.53
233.135	22.58
233.605	23.58
234.076	18.63
234.546	14.28
235.017	18.18
235.487	15.38
235.958	12.98
236.428	28.68
236.899	38.73
237.369	47.73
237.84	31.58
238.31	41.68
238.78	37.18
239.251	40.73
239.721	42.73
240.191	29.78
240.662	19.03
241.132	10.08
241.602	21.13
242.072	28.43
242.542	30.43
243.013	19.68
243.483	19.58
243.953	12.48
244.423	11.53
244.893	15.23
245.363	24.43
245.833	21.23
246.303	18.68
246.773	30.63
247.243	31.43
247.712	37.73
248.182	42.73
248.652	42.88
249.122	66.83
249.592	125.18
250.061	185.28
250.531	304.53
251.001	231.43
251.471	195.28
251.94	143.38
252.41	75.73
252.879	50.58
253.349	45.78
253.818	32.58
254.288	28.08
254.757	29.38
255.227	41.13
255.696	30.83
256.166	28.48
256.635	30.98
257.105	36.93
257.574	46.83
258.043	50.53
258.513	100.48
258.982	121.78
259.451	86.68
259.92	81.03
260.389	76.43
260.859	56.78
261.328	67.83
261.797	96.88
262.266	88.03
262.735	40.28
263.204	22.48
263.673	25.78
264.142	12.78
264.611	20.43
265.08	19.08
265.549	20.03
266.018	19.93
266.487	21.58
266.955	20.18
267.424	24.68
267.893	24.38
268.362	25.13
268.83	22.43
269.299	24.23
269.768	27.83
270.236	35.88
270.705	35.13
271.174	36.78
271.642	37.88
272.111	42.58
272.579	80.73
273.048	120.18
273.516	150.88
273.985	156.63
274.453	117.93
274.922	64.43
275.39	42.78
275.858	40.38
276.327	35.78
276.795	37.18
277.263	37.18
277.731	49.98
278.2	104.03
278.668	135.23
279.136	109.53
279.604	66.88
280.072	39.93
280.54	35.83
281.008	41.08
281.477	38.23
281.945	36.78
282.413	36.73
282.881	41.53
283.348	43.98
283.816	40.58
284.284	44.13
284.752	39.53
285.22	44.43
285.688	45.33
286.156	80.63
286.623	229.58
287.091	439.43
287.559	230.13
288.026	90.18
288.494	55.18
288.962	43.88
289.429	41.93
289.897	41.23
290.364	38.08
290.832	35.78
291.3	36.28
291.767	42.38
292.234	43.18
292.702	41.78
293.169	46.33
293.637	49.58
294.104	44.83
294.571	47.73
295.039	47.43
295.506	41.48
295.973	49.78
296.44	43.23
296.908	48.38
297.375	57.83
297.842	59.53
298.309	46.98
298.776	49.18
299.243	56.88
299.71	50.58
300.177	51.63
300.644	50.08
301.111	60.08
301.578	59.08
302.045	55.48
302.512	47.88
302.979	51.23
303.446	51.38
303.913	57.08
304.379	63.63
304.846	69.63
305.313	79.63
305.78	89.48
306.246	110.53
306.713	113.28
307.18	99.23
307.646	115.13
308.113	98.43
308.579	77.53
309.046	77.08
309.512	75.78
309.979	70.43
310.445	62.08
310.912	68.18
311.378	68.38
311.845	68.33
312.311	61.43
312.777	61.43
313.244	64.53
313.71	67.28
314.176	81.88
314.642	88.88
315.109	109.93
315.575	97.73
316.041	91.63
316.507	83.53
316.973	97.58
317.439	92.43
317.905	101.33
318.371	98.98
318.837	93.48
319.303	95.23
319.769	92.38
320.235	103.98
320.701	119.98
321.167	124.93
321.633	152.68
322.099	210.38
322.564	277.63
323.03	221.88
323.496	153.78
323.962	148.13
324.427	139.58
324.893	122.13
325.359	114.78
325.824	98.23
326.29	106.13
326.755	106.53
327.221	103.03
327.686	111.58
328.152	101.13
328.617	94.33
329.083	100.98
329.548	104.63
330.014	103.13
330.479	119.23
330.944	136.68
331.41	155.68
331.875	144.13
332.34	153.58
332.805	178.83
333.271	224.73
333.736	300.73
334.201	267.33
334.666	203.38
335.131	226.03
335.596	182.88
336.061	189.03
336.526	193.08
336.991	172.58
337.456	183.08
337.921	146.73
338.386	116.38
338.851	108.58
339.316	101.98
339.781	96.58
340.246	100.08
340.711	97.53
341.175	103.28
341.64	101.78
342.105	103.98
342.569	113.88
343.034	117.88
343.499	122.53
343.963	120.38
344.428	116.28
344.893	121.18
345.357	125.83
345.822	122.28
346.286	123.48
346.751	129.18
347.215	125.13
347.679	129.23
348.144	143.08
348.608	137.63
349.073	144.98
349.537	161.28
350.001	156.93
350.465	152.13
350.93	140.98
351.394	142.18
351.858	139.63
352.322	148.98
352.786	146.18
353.25	144.43
353.715	147.13
354.179	155.13
354.643	156.18
355.107	161.98
355.571	170.83
356.035	181.18
356.498	174.68
356.962	179.98
357.426	179.83
357.89	162.78
358.354	159.08
358.818	152.93
359.281	156.88
359.745	162.93
360.209	162.98
360.673	163.53
361.136	170.73
361.6	161.23
362.064	172.38
362.527	181.58
362.991	182.23
363.454	180.08
363.918	184.08
364.381	179.13
364.845	174.13
365.308	177.58
365.772	171.28
366.235	174.23
366.698	180.93
367.162	219.58
367.625	247.18
368.088	203.43
368.552	181.23
369.015	180.08
369.478	201.33
369.941	201.48
370.404	208.33
370.867	215.48
371.331	220.48
371.794	221.68
372.257	248.68
372.72	261.98
373.183	248.73
373.646	253.53
374.109	249.68
374.572	294.23
375.035	351.68
375.497	264.68
375.96	216.98
376.423	202.73
376.886	200.63
377.349	205.83
377.811	212.58
378.274	211.98
378.737	211.93
379.199	218.98
379.662	217.98
380.125	241.73
380.587	263.83
381.05	283.43
381.512	280.03
381.975	273.58
382.437	269.78
382.9	269.58
383.362	260.98
383.825	292.63
384.287	365.63
384.75	405.63
385.212	361.08
385.674	295.73
386.136	270.68
386.599	266.38
387.061	276.43
387.523	283.93
387.985	289.08
388.447	299.73
388.91	338.33
389.372	415.88
389.834	386.08
390.296	324.58
390.758	325.53
391.22	343.03
391.682	413.18
392.144	629.88
392.606	595.13
393.068	353.33
393.529	318.48
393.991	309.13
394.453	305.43
394.915	320.73
395.377	389.58
395.838	473.78
396.3	338.03
396.762	260.58
397.224	251.08
397.685	248.43
398.147	251.58
398.608	257.53
399.07	255.53
399.531	249.58
399.993	253.38
400.454	259.73
400.916	255.08
401.377	263.78
401.839	266.03
402.3	266.58
402.762	280.23
403.223	310.73
403.684	315.98
404.145	287.08
404.607	284.28
405.068	283.58
405.529	285.08
405.99	289.98
406.451	296.88
406.913	287.43
407.374	295.23
407.835	295.68
408.296	310.88
408.757	311.08
409.218	318.33
409.679	317.63
410.14	324.83
410.601	338.53
411.062	354.18
411.522	408.93
411.983	450.53
412.444	383.58
412.905	336.08
413.366	342.33
413.826	343.03
414.287	387.68
414.748	454.03
415.208	458.88
415.669	388.58
416.13	359.23
416.59	349.28
417.051	357.03
417.511	380.98
417.972	400.33
418.432	433.93
418.893	477.78
419.353	462.38
419.814	356.03
420.274	322.68
420.734	319.68
421.195	332.83
421.655	349.63
422.115	344.68
422.576	329.88
423.036	327.28
423.496	345.48
423.956	363.83
424.416	389.08
424.876	436.43
425.336	431.88
425.797	430.73
426.257	432.88
426.717	403.33
427.177	388.13
427.637	396.63
428.097	417.68
428.556	435.33
429.016	473.78
429.476	476.53
429.936	461.28
430.396	450.38
430.856	452.68
431.315	460.33
431.775	499.98
432.235	522.88
432.694	535.13
433.154	507.83
433.614	491.83
434.073	473.28
434.533	429.63
434.993	416.03
435.452	418.93
435.912	407.33
436.371	405.43
436.83	404.28
437.29	410.03
437.749	379.48
438.209	383.13
438.668	381.23
439.127	387.88
439.587	379.13
440.046	364.03
440.505	369.13
440.964	368.28
441.424	378.03
441.883	385.98
442.342	371.93
442.801	350.43
443.26	361.43
443.719	357.38
444.178	357.63
444.637	361.58
445.096	356.68
445.555	375.03
446.014	374.63
446.473	358.88
446.932	361.88
447.391	359.93
447.849	365.13
448.308	356.68
448.767	378.08
449.226	378.73
449.685	381.83
450.143	393.93
450.602	400.03
451.061	379.73
451.519	388.88
451.978	396.43
452.436	410.33
452.895	390.48
453.353	382.18
453.812	386.83
454.27	375.03
454.729	365.88
455.187	367.18
455.646	378.13
456.104	373.93
456.562	381.03
457.021	367.63
457.479	358.78
457.937	366.58
458.395	374.93
458.854	377.13
459.312	367.78
459.77	371.38
460.228	378.48
460.686	383.13
461.144	383.08
461.602	378.03
462.06	375.73
462.518	385.98
462.976	386.28
463.434	390.98
463.892	392.48
464.35	398.73
464.808	400.83
465.266	412.43
465.724	424.08
466.181	417.83
466.639	411.58
467.097	436.53
467.555	440.58
468.012	444.78
468.47	444.53
468.928	462.98
469.385	474.78
469.843	484.13
470.3	480.88
470.758	494.88
471.215	502.83
471.673	505.68
472.13	529.88
472.588	537.73
473.045	540.93
473.503	540.63
473.96	573.38
474.417	580.83
474.875	606.63
475.332	630.63
475.789	642.03
476.246	659.28
476.704	690.98
477.161	700.58
477.618	729.18
478.075	769.48
478.532	831.58
478.989	909.68
479.446	1009.98
479.903	1070.78
480.36	1183.53
480.817	1266.48
481.274	1363.18
481.731	1499.58
482.188	1619.23
482.645	1752.28
483.102	1851.48
483.558	1989.43
484.015	2096.13
484.472	2087.48
484.929	2028.38
485.385	1933.03
485.842	1883.98
486.299	1780.33
486.755	1602.43
487.212	1435.58
487.668	1274.03
488.125	1170.48
488.582	1078.13
489.038	1035.48
489.494	992.08
489.951	951.58
490.407	923.03
490.864	909.93
491.32	891.83
491.776	877.48
492.233	871.13
492.689	855.23
493.145	851.53
493.602	837.23
494.058	854.13
494.514	865.63
494.97	863.33
495.426	872.33
495.882	877.18
496.338	881.03
496.794	904.23
497.251	905.98
497.707	911.63
498.163	920.68
498.618	909.93
499.074	926.03
499.53	941.73
499.986	960.58
500.442	970.98
500.898	973.28
501.354	992.43
501.809	990.43
502.265	1005.03
502.721	1050.88
503.177	1083.08
503.632	1022.13
504.088	1034.23
504.543	1125.38
504.999	1060.18
505.455	936.33
505.91	882.33
506.366	878.18
506.821	873.18
507.277	878.33
507.732	870.53
508.187	869.08
508.643	882.28
509.098	880.58
509.553	885.08
510.009	905.78
510.464	926.73
510.919	932.83
511.375	933.58
511.83	943.03
512.285	960.53
512.74	980.78
513.195	990.28
513.65	1017.18
514.105	1026.58
514.56	1030.28
515.015	1047.78
515.47	1064.33
515.925	1059.18
516.38	1046.53
516.835	1047.98
517.29	1046.78
517.745	1052.58
518.2	1034.98
518.655	1009.68
519.109	990.98
519.564	981.38
520.019	982.53
520.474	968.58
520.928	964.43
521.383	959.53
521.838	954.53
522.292	944.18
522.747	931.93
523.201	928.58
523.656	925.43
524.11	921.03
524.565	909.13
525.019	913.73
525.474	925.88
525.928	919.58
526.382	908.38
526.837	907.68
527.291	906.58
527.745	904.08
528.2	895.78
528.654	888.03
529.108	902.18
529.562	898.63
530.016	903.03
530.47	903.93
530.925	900.18
531.379	897.48
531.833	914.48
532.287	897.58
532.741	900.83
533.195	901.88
533.649	894.98
534.103	900.93
534.556	892.63
535.01	904.08
535.464	895.78
535.918	900.23
536.372	905.18
536.826	900.63
537.279	899.58
537.733	890.63
538.187	898.28
538.64	899.28
539.094	912.23
539.548	918.93
540.001	916.63
540.455	923.63
540.908	932.33
541.362	941.48
541.815	944.68
542.269	974.78
542.722	948.58
543.175	968.38
543.629	974.98
544.082	980.03
544.536	991.33
544.989	981.28
545.442	994.53
545.895	993.23
546.349	999.78
546.802	1000.78
547.255	1004.73
547.708	1004.78
548.161	1015.63
548.614	1006.83
549.067	1022.48
549.52	1019.43
549.973	1005.53
550.426	998.23
550.879	980.93
551.332	984.68
551.785	995.13
552.238	1007.08
552.691	1002.18
553.144	1010.28
553.596	1032.98
554.049	1042.08
554.502	1058.73
554.955	1076.68
555.407	1088.93
555.86	1079.08
556.313	1072.88
556.765	1067.38
557.218	1044.68
557.67	1057.03
558.123	1032.18
558.576	1028.13
559.028	1018.68
559.48	1039.18
559.933	1043.53
560.385	1002.68
560.838	977.23
561.29	942.83
561.742	952.53
562.195	925.58
562.647	917.43
563.099	918.23
563.551	916.68
564.004	923.68
564.456	907.53
564.908	900.68
565.36	881.08
565.812	861.73
566.264	859.43
566.716	844.78
567.168	837.13
567.62	842.28
568.072	831.28
568.524	818.73
568.976	812.33
569.428	813.23
569.88	805.38
570.332	812.83
570.784	807.48
571.235	796.68
571.687	812.23
572.139	815.93
572.59	817.23
573.042	822.58
573.494	823.68
573.945	807.13
574.397	790.78
574.849	784.73
575.3	798.33
575.752	780.88
576.203	772.18
576.655	777.23
577.106	773.48
577.557	762.88
578.009	761.63
578.46	773.83
578.912	754.93
579.363	768.48
579.814	763.53
580.265	760.13
580.717	761.58
581.168	755.33
581.619	760.68
582.07	779.03
582.521	770.48
582.972	758.23
583.423	769.38
583.875	792.83
584.326	837.43
584.777	909.93
585.227	993.23
585.678	1061.38
586.129	1080.23
586.58	1100.68
587.031	1102.53
587.482	1174.13
587.933	1359.33
588.384	1271.63
588.834	1046.93
589.285	889.23
589.736	863.13
590.186	871.53
590.637	857.28
591.088	839.68
591.538	827.23
591.989	825.53
592.439	818.13
592.89	811.08
593.34	820.28
593.791	821.78
594.241	820.38
594.692	836.93
595.142	823.33
595.593	808.33
596.043	818.13
596.493	830.53
596.943	843.38
597.394	839.13
597.844	821.63
598.294	836.03
598.744	859.53
599.195	898.08
599.645	951.88
600.095	990.88
600.545	1039.38
600.995	1092.18
601.445	1120.43
601.895	1179.03
602.345	1207.03
602.795	1190.93
603.245	1133.43
603.695	1070.03
604.145	1018.43
604.594	965.33
605.044	912.63
605.494	869.78
605.944	821.48
606.393	809.43
606.843	799.43
607.293	807.73
607.743	797.93
608.192	802.13
608.642	803.53
609.091	806.38
609.541	802.93
609.99	808.18
610.44	784.98
610.889	783.03
611.339	773.33
611.788	768.18
612.238	774.88
612.687	779.23
613.136	793.78
613.586	805.13
614.035	805.78
614.484	812.08
614.933	823.33
615.383	805.08
615.832	771.98
616.281	764.33
616.73	735.23
617.179	712.53
617.628	698.83
618.077	697.13
618.526	687.88
618.975	681.68
619.424	663.28
619.873	664.88
620.322	663.93
620.771	666.53
621.22	646.78
621.669	641.38
622.118	632.78
622.567	631.88
623.015	620.68
623.464	620.28
623.913	608.98
624.361	614.98
624.81	605.83
625.259	604.93
625.707	589.53
626.156	599.18
626.604	606.83
627.053	610.28
627.501	609.28
627.95	617.68
628.398	620.68
628.847	611.63
629.295	621.78
629.744	622.58
630.192	644.08
630.64	694.43
631.089	761.78
631.537	792.48
631.985	797.63
632.433	834.18
632.881	828.03
633.33	985.43
633.778	1082.58
634.226	770.33
634.674	709.18
635.122	710.38
635.57	714.48
636.018	829.23
636.466	678.03
636.914	595.23
637.362	599.53
637.81	603.68
638.258	621.93
638.705	623.63
639.153	654.23
639.601	648.18
640.049	660.13
640.497	679.73
640.944	698.38
641.392	678.18
641.84	633.18
642.287	608.33
642.735	597.23
643.182	600.08
643.63	601.33
644.078	600.03
644.525	611.48
644.973	633.08
645.42	642.68
645.867	644.18
646.315	669.58
646.762	689.03
647.21	719.73
647.657	746.93
648.104	792.73
648.551	821.48
648.999	891.48
649.446	992.93
649.893	1133.13
650.34	1335.03
650.787	1649.08
651.234	2170.53
651.682	3034.78
652.129	4401.23
652.576	6385.98
653.023	8518.53
653.47	9952.48
653.917	10770.53
654.363	11158.73
654.81	11830.98
655.257	11902.48
655.704	8126.83
656.151	4751.18
656.598	3061.18
657.044	2163.93
657.491	1678.83
657.938	1355.23
658.385	1134.58
658.831	991.08
659.278	882.83
659.724	798.08
660.171	745.38
660.618	688.63
661.064	648.73
661.511	619.58
661.957	604.48
662.404	578.68
662.85	575.63
663.296	568.88
663.743	553.18
664.189	544.98
664.635	537.13
665.082	525.03
665.528	523.48
665.974	507.18
666.42	509.13
666.867	507.68
667.313	507.68
667.759	546.68
668.205	535.48
668.651	539.88
669.097	519.48
669.543	568.33
669.989	537.68
670.435	478.08
670.881	466.28
671.327	491.68
671.773	523.18
672.219	561.53
672.665	588.33
673.11	609.98
673.556	617.28
674.002	625.48
674.448	626.93
674.893	536.83
675.339	480.78
675.785	440.73
676.23	416.78
676.676	400.43
677.122	392.53
677.567	383.83
678.013	369.08
678.458	366.58
678.904	369.88
679.349	362.93
679.794	363.38
680.24	363.88
680.685	357.88
681.131	354.13
681.576	356.23
682.021	365.33
682.466	371.78
682.912	368.33
683.357	388.58
683.802	418.28
684.247	461.53
684.692	484.73
685.137	502.78
685.583	511.78
686.028	534.88
686.473	508.73
686.918	442.43
687.363	399.98
687.807	387.33
688.252	368.63
688.697	356.08
689.142	346.78
689.587	351.08
690.032	360.13
690.477	366.33
690.921	383.78
691.366	404.38
691.811	421.98
692.255	455.73
692.7	549.13
693.145	794.13
693.589	1187.03
694.034	1390.28
694.478	1470.28
694.923	1343.63
695.367	1857.83
695.812	1177.03
696.256	513.78
696.701	381.28
697.145	350.98
697.59	340.53
698.034	336.98
698.478	334.08
698.922	338.83
699.367	344.58
699.811	365.33
700.255	392.98
700.699	425.83
701.143	458.73
701.588	487.73
702.032	496.78
702.476	509.08
702.92	549.73
703.364	725.63
703.808	1098.33
704.252	1340.23
704.696	1398.78
705.14	1317.08
705.584	1754.68
706.027	1020.93
706.471	527.68
706.915	398.03
707.359	351.43
707.803	335.38
708.246	315.28
708.69	320.08
709.134	311.78
709.577	313.23
710.021	317.43
710.465	315.83
710.908	314.53
711.352	329.98
711.795	362.38
712.239	387.63
712.682	397.88
713.126	389.93
713.569	433.93
714.012	368.98
714.456	324.68
714.899	305.23
715.342	279.18
715.786	270.13
716.229	264.08
716.672	260.88
717.115	259.93
717.558	263.13
718.002	266.68
718.445	280.03
718.888	296.73
719.331	296.43
719.774	311.03
720.217	298.78
720.66	279.83
721.103	268.63
721.546	253.73
721.989	242.03
722.432	242.53
722.874	241.33
723.317	246.63
723.76	269.48
724.203	329.78
724.645	437.98
725.088	514.23
725.531	491.28
725.974	539.98
726.416	481.33
726.859	310.93
727.301	248.58
727.744	238.13
728.187	244.18
728.629	243.53
729.071	258.93
729.514	263.28
729.956	274.03
730.399	281.03
730.841	286.53
731.283	272.78
731.726	261.38
732.168	268.33
732.61	286.63
733.053	310.33
733.495	340.58
733.937	381.33
734.379	443.68
734.821	559.98
735.263	901.83
735.705	1582.63
736.148	2258.73
736.59	2231.93
737.032	2403.48
737.474	2001.93
737.916	811.58
738.357	425.83
738.799	335.18
739.241	304.78
739.683	308.13
740.125	306.58
740.567	308.33
741.008	336.08
741.45	342.83
741.892	361.63
742.334	353.18
742.775	354.68
743.217	326.63
743.658	291.18
744.1	289.33
744.542	325.03
744.983	331.78
745.425	341.48
745.866	347.23
746.307	314.93
746.749	341.68
747.19	489.23
747.632	960.93
748.073	1720.23
748.514	2318.38
748.956	3079.83
749.397	3556.73
749.838	2476.68
750.279	2327.03
750.72	1255.73
751.162	543.83
751.603	317.73
752.044	252.93
752.485	220.43
752.926	213.63
753.367	201.83
753.808	201.28
754.249	194.68
754.69	190.33
755.131	189.68
755.572	191.33
756.013	190.18
756.453	189.03
756.894	197.48
757.335	191.13
757.776	196.18
758.216	206.08
758.657	212.08
759.098	231.38
759.538	287.28
759.979	418.88
760.42	844.58
760.86	2090.13
761.301	4230.98
761.741	4889.73
762.182	5559.78
762.622	3604.38
763.063	1384.53
763.503	615.68
763.943	472.43
764.384	501.33
764.824	470.08
765.264	465.23
765.705	337.03
766.145	236.93
766.585	210.58
767.025	229.48
767.465	297.53
767.906	361.58
768.346	377.58
768.786	386.33
769.226	400.98
769.666	684.73
770.106	1446.33
770.546	1991.63
770.986	2215.58
771.426	1693.33
771.866	743.18
772.306	340.63
772.745	217.68
773.185	182.03
773.625	189.58
774.065	222.78
774.505	360.43
774.944	712.08
775.384	1039.58
775.824	1181.28
776.263	967.78
776.703	491.43
777.142	249.33
777.582	172.93
778.021	156.43
778.461	148.48
778.9	143.68
779.34	128.38
779.779	128.63
780.219	125.13
780.658	117.53
781.097	119.23
781.537	115.23
781.976	115.53
782.415	114.83
782.855	115.88
783.294	111.43
783.733	106.63
784.172	117.43
784.611	111.18
785.05	114.53
785.489	121.03
785.928	121.03
786.367	126.98
786.806	132.33
787.245	144.23
787.684	146.68
788.123	137.23
788.562	135.13
789.001	133.58
789.44	131.43
789.879	127.68
790.317	130.23
790.756	138.48
791.195	159.98
791.634	213.68
792.072	388.33
792.511	935.73
792.95	1647.68
793.388	1957.63
793.827	1300.48
794.265	614.23
794.704	299.78
795.142	187.83
795.581	151.58
796.019	134.83
796.458	139.73
796.896	136.58
797.334	160.78
797.773	216.58
798.211	417.03
798.649	853.53
799.087	1391.13
799.526	1933.03
799.964	1964.98
800.402	1371.23
800.84	646.28
801.278	315.38
801.716	193.13
802.154	152.33
802.592	149.78
803.03	151.83
803.468	155.93
803.906	152.88
804.344	147.28
804.782	138.13
805.22	144.58
805.658	151.38
806.096	162.33
806.533	177.73
806.971	227.03
807.409	332.33
807.847	673.73
808.284	1658.48
808.722	2821.73
809.16	3976.03
809.597	5454.03
810.035	6596.08
810.472	4234.73
810.91	1889.83
811.347	863.83
811.785	407.88
812.222	253.23
812.66	197.33
813.097	167.63
813.535	148.33
813.972	123.58
814.409	126.18
814.846	119.58
815.284	111.98
815.721	114.58
816.158	114.08
816.595	153.53
817.032	187.33
817.47	171.48
817.907	133.13
818.344	118.03
818.781	110.33
819.218	136.83
819.655	187.63
820.092	238.33
820.529	222.03
820.966	182.68
821.403	139.68
821.839	121.48
822.276	128.53
822.713	149.98
823.15	137.98
823.587	148.88
824.023	280.93
824.46	693.03
824.897	1167.98
825.333	909.68
825.77	428.73
826.206	224.68
826.643	134.93
827.08	98.08
827.516	87.13
827.953	83.38
828.389	78.78
828.825	77.53
829.262	70.73
829.698	71.63
830.135	65.43
830.571	65.88
831.007	66.18
831.443	68.88
831.88	69.08
832.316	80.03
832.752	74.68
833.188	73.63
833.624	70.13
834.06	72.38
834.497	71.08
834.933	72.53
835.369	88.73
835.805	87.08
836.241	88.73
836.677	97.63
837.112	110.43
837.548	137.53
837.984	206.93
838.42	443.33
838.856	1204.03
839.292	2270.08
839.727	1692.03
840.163	1193.53
840.599	1763.88
841.034	2610.68
841.47	1347.48
841.906	676.28
842.341	383.98
842.777	333.73
843.212	381.33
843.648	228.33
844.083	146.98
844.519	99.53
844.954	80.68
845.39	69.58
845.825	67.68
846.261	64.28
846.696	61.78
847.131	58.83
847.566	58.23
848.002	61.13
848.437	66.38
848.872	68.23
849.307	80.38
849.742	158.28
850.177	403.98
850.613	827.28
851.048	595.03
851.483	277.98
851.918	157.93
852.353	89.28
852.788	75.13
853.223	68.33
853.657	55.13
854.092	50.33
854.527	49.08
854.962	53.73
855.397	57.18
855.832	53.93
856.266	40.38
856.701	44.58
857.136	43.58
857.57	53.13
858.005	54.83
858.44	50.53
858.874	47.73
859.309	51.83
859.743	52.93
860.178	48.18
860.612	55.73
861.047	68.98
861.481	89.68
861.915	58.73
862.35	50.83
862.784	40.18
863.218	38.83
863.653	45.78
864.087	49.18
864.521	72.68
864.955	119.88
865.39	198.18
865.824	138.68
866.258	161.58
866.692	232.18
867.126	166.33
867.56	92.48
867.994	60.28
868.428	50.33
868.862	67.73
869.296	59.73
869.73	72.03
870.164	63.93
870.598	55.38
871.031	43.18
871.465	41.53
871.899	28.38
872.333	33.03
872.766	34.38
873.2	31.03
873.634	28.58
874.067	36.83
874.501	34.98
874.935	33.33
875.368	36.48
875.802	28.98
876.235	29.73
876.669	29.23
877.102	21.08
877.535	26.03
877.969	21.68
878.402	26.28
878.836	27.33
879.269	27.63
879.702	25.18
880.135	25.73
880.569	29.78
881.002	22.93
881.435	28.18
881.868	23.88
882.301	24.43
882.734	19.73
883.167	27.33
883.601	19.23
884.034	23.18
884.467	19.13
884.899	18.53
885.332	21.08
885.765	20.53
886.198	21.08
886.631	18.63
887.064	23.83
887.497	17.53
887.929	22.58
888.362	18.23
888.795	16.58
889.228	27.13
889.66	19.93
890.093	25.08
890.526	21.43
890.958	19.83
891.391	18.88
891.823	20.18
892.256	25.03
892.688	21.93
893.121	17.78
893.553	21.03
893.985	16.53
894.418	14.48
894.85	19.58
895.282	17.63
895.715	15.08
896.147	13.63
896.579	14.28
897.011	22.63
897.444	17.88
897.876	14.93
898.308	11.28
898.74	18.83
899.172	19.88
899.604	18.98
900.036	16.23
900.468	10.28
900.9	16.68
901.332	21.13
901.764	22.03
902.196	20.63
902.628	19.23
903.06	28.33
903.491	28.78
903.923	26.38
904.355	28.28
904.787	30.88
905.218	22.38
905.65	24.88
906.082	24.48
906.513	20.03
906.945	23.63
907.376	20.68
907.808	28.23
908.239	24.28
908.671	29.08
909.102	30.83
909.534	41.18
909.965	77.98
910.397	190.43
910.828	548.63
911.259	333.98
911.691	188.93
912.122	106.03
912.553	56.13
912.984	28.28
913.415	26.08
913.847	25.23
914.278	24.53
914.709	21.78
915.14	16.43
915.571	23.88
916.002	16.68
916.433	15.53
916.864	13.28
917.295	18.23
917.726	21.53
918.157	27.08
918.587	28.18
919.018	22.93
919.449	16.33
919.88	24.33
920.311	35.38
920.741	114.38
921.172	204.98
921.603	98.33
922.033	62.83
922.464	43.83
922.895	24.53
923.325	16.88
923.756	18.18
924.186	28.48
924.617	42.83
925.047	72.18
925.478	63.23
925.908	42.18
926.338	28.53
926.769	23.13
927.199	23.03
927.629	15.13
928.06	17.13
928.49	19.03
928.92	14.88
929.35	13.78
929.78	12.63
930.21	9.83
930.641	10.88
931.071	10.03
931.501	8.68
931.931	8.08
932.361	6.98
932.791	14.48
933.221	14.43
933.651	16.18
934.08	30.73
934.51	13.13
934.94	14.88
935.37	7.83
935.8	6.33
936.229	5.38
936.659	4.83
937.089	8.73
937.519	17.03
937.948	29.43
938.378	17.43
938.807	7.63
939.237	7.53
939.666	7.73
940.096	4.18
940.525	1.03
940.955	9.03
941.384	1.53
941.814	4.83
942.243	3.23
942.672	2.48
943.102	0.73
943.531	0.98
943.96	2.38
944.39	3.48
944.819	6.38
945.248	-1.97
945.677	3.23
946.106	2.98
946.535	2.83
946.964	0.98
947.393	3.48
947.822	2.33
948.251	5.58
948.68	4.88
949.109	-0.27
949.538	0.63
949.967	3.33
950.396	3.28
950.825	5.03
951.254	4.33
951.682	-0.07
952.111	-3.87
952.54	-1.62
952.969	2.78
953.397	-0.82
953.826	-1.07
954.254	2.13
954.683	2.93
955.112	2.83
955.54	-0.97
955.969	-0.17
956.397	3.33
956.826	4.23
957.254	0.73
957.682	3.03
958.111	7.23
958.539	6.38
958.967	2.78
959.396	6.48
959.824	3.28
960.252	6.43
960.68	1.63
961.109	3.23
961.537	9.18
961.965	-3.17
962.393	0.48
962.821	3.83
963.249	4.68
963.677	6.03
964.105	32.53
964.533	58.88
964.961	29.28
965.389	13.38
965.817	7.83
966.245	5.08
966.672	1.78
967.1	2.83
967.528	0.28
967.956	3.68
968.383	4.38
968.811	-1.87
969.239	1.53
969.666	4.43
970.094	1.13
970.522	-1.02
970.949	-2.12
971.377	-6.92
971.804	-3.32
972.232	-0.22
972.659	-3.07
973.087	2.33
973.514	-3.02
973.941	-0.27
974.369	-2.02
974.796	0.73
975.223	-1.62
975.651	-1.67
976.078	0.68
976.505	5.53
976.932	4.78
977.359	11.18
977.786	4.98
978.214	4.48
978.641	1.23
979.068	-1.02
979.495	2.03
979.922	1.98
980.349	3.33
980.776	3.23
981.202	0.73
981.629	7.58
982.056	3.68
982.483	-2.72
982.91	4.43
983.337	-2.82
983.763	0.03
984.19	3.28
984.617	-0.12
985.043	-2.67
985.47	2.88
985.897	6.13
986.323	5.88
986.75	-2.62
987.176	1.03
987.603	1.53
988.029	0.33
988.456	6.18
988.882	0.68
989.308	-1.37
989.735	-3.82
990.161	-2.02
990.587	-2.87
991.014	-2.17
991.44	-1.57
991.866	1.43
992.292	-2.62
992.719	-1.17
993.145	1.43
993.571	-2.62
993.997	5.73
994.423	2.98
994.849	-5.97
995.275	3.43
995.701	2.23
996.127	-5.62
996.553	0.48
996.979	-3.12
997.405	4.93
997.83	1.13
998.256	0.68
998.682	-3.17
999.108	3.38
999.534	-7.07
999.959	-3.62
1000.385	-0.67
1000.811	-4.77
1001.236	-3.37
1001.662	-2.07
1002.087	0.53
1002.513	1.18
1002.938	-2.52
1003.364	0.18
1003.789	-1.97
1004.215	2.23
1004.64	-1.17
1005.066	1.23
1005.491	4.13
1005.916	2.13
1006.342	1.33
1006.767	-0.67
1007.192	-1.42
1007.617	2.48
1008.042	0.03
1008.468	2.18
1008.893	3.78
1009.318	2.38
1009.743	-0.67
1010.168	11.23
1010.593	7.23
1011.018	5.93
1011.443	3.63
1011.868	6.33
1012.293	2.58
1012.718	1.13
1013.143	0.98
1013.567	0.78
1013.992	-0.52
1014.417	1.83
1014.842	-4.37
1015.267	-0.02
1015.691	3.33
1016.116	-0.62
1016.541	0.53
1016.965	4.03
1017.39	2.58
1017.814	-5.67
1018.239	-4.42
1018.663	-8.72
1019.088	-4.82
1019.512	3.93
1019.937	-2.72
1020.361	-1.02
1020.785	-2.17
1021.21	-3.32
1021.634	-1.17
1022.058	3.98
1022.483	-3.62
1022.907	-1.37
1023.331	-5.97
1023.755	-3.72
1024.179	-3.47
1024.604	-0.67
1025.028	0.08
1025.452	4.08
1025.876	3.03
1026.3	-1.92
1026.724	-1.97
1027.148	2.48
1027.572	-5.82
1027.996	-1.42
1028.42	-2.62
1028.843	-1.57
1029.267	-1.07
1029.691	0.33
1030.115	-0.37
1030.539	-0.62
1030.962	-4.52
1031.386	2.23
1031.81	2.88
1032.233	-2.92
1032.657	-7.32
1033.08	-1.07
1033.504	-2.72
1033.927	-1.12
1034.351	2.63
1034.774	-2.67
1035.198	-3.42
1035.621	-2.27
1036.045	-3.42
1036.468	4.53
1036.891	-3.87
1037.315	3.98
1037.738	-1.12
1038.161	4.78
1038.584	-4.32
1039.008	-3.52
1039.431	-3.92
1039.854	-4.42
1040.277	1.23
1040.7	0.28
1041.123	-5.02
1041.546	-2.12
1041.969	2.08
1042.392	-0.27
1042.815	-2.77
1043.238	-2.37
1043.661	-1.57
1044.084	-1.17
1044.507	-1.57
1044.93	3.13
1045.352	-3.72
1045.775	-4.97
1046.198	-2.87
1046.621	-0.42
1047.043	-1.97
1047.466	1.28
1047.889	-2.22
1048.311	1.28
1048.734	1.28
1049.156	-2.87
1049.579	-4.92
1050.001	-3.02
1050.424	-1.32
1050.846	-4.67
1051.269	-3.27
1051.691	1.18
1052.113	0.23
1052.536	-1.67
1052.958	-8.12
1053.38	-3.22
1053.802	-6.67
1054.225	0.13
1054.647	3.78
1055.069	0.58
1055.491	-1.32
1055.913	-0.27
1056.335	-10.67
1056.757	-7.32
1057.179	-2.42
1057.601	-3.92
1058.023	3.38
1058.445	-8.12
1058.867	4.08
1059.289	-0.22
1059.711	-4.82
1060.133	0.93
1060.555	-2.37
1060.976	0.03
1061.398	-2.62
1061.82	-0.67
1062.241	-1.82
1062.663	-5.82
1063.085	-1.92
1063.506	-8.02
1063.928	-5.57
1064.35	-3.37
1064.771	1.63
1065.193	-5.87
1065.614	-4.72
1066.035	1.38
1066.457	2.58
1066.878	-1.87
1067.3	-3.92
1067.721	-1.07
1068.142	-0.47
1068.564	0.58
1068.985	-0.07
1069.406	-7.32
1069.827	2.53
1070.248	-3.52
1070.67	-0.12
1071.091	-6.77
1071.512	-3.22
1071.933	-8.17
1072.354	-13.77
1072.775	-3.07
1073.196	-3.07
1073.617	-5.02
1074.038	-3.37
1074.459	-4.27
1074.88	-5.77
1075.3	0.53
1075.721	-1.92
1076.142	-2.82
1076.563	-6.42
1076.983	-0.97
1077.404	-8.22
1077.825	-0.92
1078.246	-4.42
1078.666	-4.57
1079.087	-3.47
1079.507	-5.57
1079.928	1.38
1080.348	-0.42
1080.769	-4.72
1081.189	-2.97
1081.61	-7.62
1082.03	-0.62
1082.451	-0.72
1082.871	-9.92
1083.291	0.03
1083.711	-1.47
1084.132	-5.67
1084.552	-7.27
1084.972	-7.57
1085.392	-5.67
1085.813	0.23
1086.233	-0.82
1086.653	0.48
1087.073	-6.27
1087.493	-5.02
1087.913	-7.72
1088.333	-5.72
1088.753	0.78
1089.173	-0.62
1089.593	-2.47
1090.013	-3.57
1090.433	-5.52
1090.852	6.03
1091.272	-4.62
1091.692	-0.92
1092.112	-6.42
1092.531	-6.77
1092.951	-3.32
1093.371	-2.47
1093.79	-5.97
1094.21	-1.82
1094.63	-2.62
1095.049	-2.32
1095.469	-8.62
1095.888	-1.97
1096.308	0.98
1096.727	-1.37
1097.146	-2.37
1097.566	-5.67
1097.985	-5.22
1098.405	-3.37
1098.824	1.73
1099.243	-3.92
1099.662	-1.22
1100.082	-4.62
1100.501	-4.12
1100.92	1.18
1101.339	-4.37
1101.758	0.53
