Data from MSPlasma+Separation6_Subt14_10-15-33-150.txt Node
Date: Fri Jul 21 10:15:33 EDT 2017
User: Ender
Spectrometer: HR+D1039
Trigger mode: 0
Integration Time (sec): 2.510000E-3
Scans to average: 20
Electric dark correction enabled: true
Nonlinearity correction enabled: false
Boxcar width: 0
XAxis mode: Wavelengths
Number of Pixels in Spectrum: 2048
>>>>>Begin Spectral Data<<<<<
187.836	-2.9
188.309	-2.9
188.782	-2.9
189.255	1.4
189.728	4.1
190.201	-0.6
190.674	1.15
191.147	0.15
191.619	0.9
192.092	-1
192.565	-2.45
193.038	1.85
193.511	3.55
193.984	-1.3
194.456	0.05
194.929	-1.05
195.402	-3.75
195.874	-0.15
196.347	0.75
196.82	3.2
197.292	-4.55
197.765	-2.6
198.237	1.05
198.71	-2.45
199.182	3.15
199.655	0.6
200.127	-0.1
200.6	-2.05
201.072	-0.15
201.544	-1.2
202.017	-1.05
202.489	3
202.961	-1.45
203.433	-3.75
203.906	-3.05
204.378	4.25
204.85	-2.05
205.322	1.45
205.794	2.55
206.266	-2.35
206.739	1.2
207.211	-5.15
207.683	-5.75
208.155	2.05
208.627	-2.95
209.099	3.55
209.57	1.05
210.042	3.45
210.514	-0.9
210.986	8
211.458	8.6
211.93	3.85
212.402	2.55
212.873	-4.3
213.345	-5.55
213.817	4.4
214.288	-3.55
214.76	0.8
215.232	-4.05
215.703	-0.55
216.175	5.3
216.646	-0.65
217.118	1.55
217.589	-1.55
218.061	0.3
218.532	-4.75
219.004	2.25
219.475	2.05
219.946	5.35
220.418	16.1
220.889	11.95
221.36	4.15
221.832	4.45
222.303	2.55
222.774	3.15
223.245	-5
223.717	-1.4
224.188	1.15
224.659	-0.6
225.13	-1.85
225.601	-1.25
226.072	-2.2
226.543	-1.1
227.014	-0.2
227.485	2.45
227.956	3.55
228.427	9.4
228.898	3.4
229.369	3.5
229.839	-0.9
230.31	7.1
230.781	6.25
231.252	5.75
231.722	7.55
232.193	9.5
232.664	15.25
233.135	16.9
233.605	22.15
234.076	18.55
234.546	11.85
235.017	18.45
235.487	19.6
235.958	14.25
236.428	29.5
236.899	34.4
237.369	42.65
237.84	34.45
238.31	44.2
238.78	34.5
239.251	40.35
239.721	35.2
240.191	31.55
240.662	17.15
241.132	12.65
241.602	18
242.072	24.8
242.542	29.2
243.013	20.55
243.483	18.8
243.953	14.3
244.423	10.85
244.893	17
245.363	21.85
245.833	16.6
246.303	19.75
246.773	28.2
247.243	29.45
247.712	34.35
248.182	39.7
248.652	43.35
249.122	66.35
249.592	120.45
250.061	181.6
250.531	287.05
251.001	226.4
251.471	187.25
251.94	142
252.41	75.2
252.879	51.8
253.349	35.95
253.818	28.75
254.288	25.45
254.757	27
255.227	35.9
255.696	29.9
256.166	26.25
256.635	27.9
257.105	35.2
257.574	46.25
258.043	51.3
258.513	94.65
258.982	113.9
259.451	82.85
259.92	84.35
260.389	76
260.859	58
261.328	62.55
261.797	98.75
262.266	86.05
262.735	42.45
263.204	18.05
263.673	18.5
264.142	15.1
264.611	18.7
265.08	20.75
265.549	22.8
266.018	24.2
266.487	18.05
266.955	15.1
267.424	24.95
267.893	23.85
268.362	23.35
268.83	23.35
269.299	22.3
269.768	24.25
270.236	31.7
270.705	37.2
271.174	34.35
271.642	37.1
272.111	45.05
272.579	79.9
273.048	120.6
273.516	151
273.985	151.1
274.453	114.75
274.922	68.9
275.39	41.25
275.858	35.15
276.327	29.6
276.795	30.75
277.263	33.8
277.731	44.05
278.2	95.15
278.668	132.55
279.136	100.45
279.604	59.4
280.072	35.85
280.54	32.2
281.008	37.25
281.477	35
281.945	33.35
282.413	33.05
282.881	33.3
283.348	36.5
283.816	36.55
284.284	42.25
284.752	41.4
285.22	43.05
285.688	43.5
286.156	78.55
286.623	220.2
287.091	422.25
287.559	218.35
288.026	84.35
288.494	50.35
288.962	40
289.429	35.9
289.897	35.95
290.364	32.6
290.832	37.2
291.3	34.25
291.767	36.3
292.234	38.8
292.702	38.45
293.169	42.1
293.637	45.7
294.104	45.75
294.571	42.6
295.039	43.15
295.506	36.4
295.973	44.7
296.44	39.75
296.908	46.95
297.375	54.35
297.842	57.45
298.309	46.7
298.776	41.6
299.243	48.35
299.71	44.5
300.177	45.4
300.644	45.3
301.111	54.85
301.578	47.6
302.045	41.65
302.512	43.65
302.979	48.65
303.446	53.65
303.913	50.25
304.379	54.1
304.846	62.35
305.313	74.7
305.78	87.6
306.246	103.45
306.713	108.8
307.18	88.45
307.646	99.35
308.113	88
308.579	71.35
309.046	72.1
309.512	70.1
309.979	65.85
310.445	61.3
310.912	61.55
311.378	63.65
311.845	59.65
312.311	55.1
312.777	58.35
313.244	67.45
313.71	69.7
314.176	70.6
314.642	86.25
315.109	99.1
315.575	87.25
316.041	88.55
316.507	74.1
316.973	90.3
317.439	88.25
317.905	101.65
318.371	93.6
318.837	84.65
319.303	90.45
319.769	83.8
320.235	93.9
320.701	113
321.167	118.8
321.633	142.55
322.099	193.35
322.564	265.35
323.03	211.8
323.496	142.1
323.962	132.05
324.427	125.05
324.893	107.8
325.359	109.8
325.824	92
326.29	102.35
326.755	96.9
327.221	93.55
327.686	104.7
328.152	91.95
328.617	90.6
329.083	95.05
329.548	99.7
330.014	96
330.479	108.45
330.944	123.65
331.41	145.8
331.875	135.8
332.34	143.65
332.805	164.65
333.271	216.4
333.736	284.6
334.201	256.8
334.666	198.9
335.131	214.6
335.596	172.7
336.061	176.5
336.526	185.15
336.991	156.7
337.456	169.9
337.921	131.45
338.386	106.05
338.851	101.45
339.316	91.5
339.781	88.85
340.246	92.05
340.711	93.4
341.175	91.55
341.64	91.2
342.105	90.75
342.569	108.1
343.034	109.5
343.499	115.55
343.963	110.15
344.428	106.5
344.893	111.05
345.357	114.15
345.822	112.25
346.286	111.35
346.751	115.55
347.215	117.4
347.679	122.95
348.144	130.6
348.608	127.5
349.073	130.8
349.537	145.5
350.001	147.2
350.465	134.4
350.93	127.55
351.394	132.85
351.858	125.4
352.322	134.45
352.786	137.3
353.25	133.2
353.715	132.95
354.179	143.15
354.643	149.55
355.107	156.9
355.571	160.75
356.035	167.15
356.498	158.45
356.962	174.1
357.426	168.2
357.89	147.8
358.354	142.25
358.818	140.05
359.281	145.7
359.745	149.45
360.209	149.5
360.673	147.2
361.136	155.75
361.6	149.45
362.064	163.55
362.527	171.95
362.991	166.65
363.454	170.75
363.918	168.95
364.381	167.9
364.845	168.75
365.308	158.8
365.772	160.4
366.235	166.15
366.698	169.15
367.162	204.1
367.625	234.45
368.088	193.6
368.552	174.3
369.015	170.95
369.478	185.05
369.941	188.75
370.404	195.15
370.867	201.05
371.331	209.3
371.794	210.15
372.257	237.85
372.72	245.15
373.183	238.1
373.646	241.15
374.109	237.5
374.572	274.5
375.035	326.15
375.497	243.7
375.96	199.15
376.423	192.3
376.886	185.9
377.349	188.05
377.811	197.4
378.274	199.1
378.737	194.2
379.199	207.5
379.662	208.4
380.125	224.7
380.587	246.2
381.05	267.95
381.512	267.4
381.975	255.55
382.437	257.35
382.9	252.9
383.362	251.8
383.825	274.6
384.287	343.4
384.75	395.2
385.212	338.6
385.674	276.3
386.136	257.5
386.599	254.05
387.061	262.2
387.523	270.6
387.985	275
388.447	285.85
388.91	322.35
389.372	394.5
389.834	366.8
390.296	303
390.758	308.55
391.22	320.1
391.682	387.15
392.144	589
392.606	559.25
393.068	339.1
393.529	302.25
393.991	285.45
394.453	283.85
394.915	292.45
395.377	362.85
395.838	446.3
396.3	315.2
396.762	247.35
397.224	235
397.685	226.6
398.147	235.5
398.608	234.9
399.07	231.7
399.531	235
399.993	243.95
400.454	241
400.916	239.3
401.377	242.85
401.839	250.25
402.3	244.45
402.762	264.95
403.223	288.9
403.684	287.35
404.145	268.3
404.607	262.3
405.068	262.15
405.529	267.5
405.99	275.25
406.451	277.95
406.913	271.4
407.374	280.25
407.835	277.65
408.296	292.75
408.757	287.75
409.218	292.85
409.679	302.95
410.14	304.7
410.601	319.3
411.062	334.1
411.522	384.55
411.983	431.2
412.444	359.05
412.905	312.3
413.366	309.9
413.826	318.95
414.287	355.3
414.748	423
415.208	428.75
415.669	357.75
416.13	334.75
416.59	320.9
417.051	333.15
417.511	346.2
417.972	366.9
418.432	404.85
418.893	442.4
419.353	420.85
419.814	331.55
420.274	288.95
420.734	294.4
421.195	318.65
421.655	325.1
422.115	316.65
422.576	310.3
423.036	304.9
423.496	321.65
423.956	340.05
424.416	364.8
424.876	404
425.336	404.45
425.797	396.3
426.257	404.45
426.717	380.9
427.177	364.15
427.637	371.85
428.097	395.65
428.556	411.7
429.016	448.55
429.476	439.8
429.936	435.75
430.396	420.65
430.856	431.15
431.315	440.9
431.775	466.3
432.235	492.05
432.694	499.55
433.154	470.35
433.614	460.75
434.073	445.35
434.533	403.6
434.993	382.75
435.452	395.5
435.912	381.75
436.371	377.75
436.83	380.4
437.29	379.8
437.749	365.6
438.209	362.45
438.668	357.5
439.127	362.7
439.587	350.8
440.046	335.4
440.505	347
440.964	345.9
441.424	353.2
441.883	359.35
442.342	342.6
442.801	319.95
443.26	343.05
443.719	335.95
444.178	331.5
444.637	333.7
445.096	338.8
445.555	342.8
446.014	344.65
446.473	334.55
446.932	327.2
447.391	334.25
447.849	347.45
448.308	343.9
448.767	349.4
449.226	357.2
449.685	360.05
450.143	373
450.602	375.15
451.061	358
451.519	369.25
451.978	371.2
452.436	384.15
452.895	364.6
453.353	355.7
453.812	366.3
454.27	353
454.729	347.15
455.187	349.4
455.646	354.75
456.104	353.25
456.562	353.15
457.021	348.2
457.479	335.85
457.937	347.2
458.395	352.7
458.854	344.55
459.312	341.35
459.77	343.05
460.228	355.5
460.686	355.85
461.144	359.1
461.602	352.05
462.06	356.05
462.518	364.55
462.976	355
463.434	365.4
463.892	364.45
464.35	377.05
464.808	383.45
465.266	388.3
465.724	388.5
466.181	391.15
466.639	390.75
467.097	405.95
467.555	417.45
468.012	419.65
468.47	417.65
468.928	431.05
469.385	442.9
469.843	456.85
470.3	448.5
470.758	465.55
471.215	468.85
471.673	478.4
472.13	489.9
472.588	504.2
473.045	507.05
473.503	511
473.96	529.2
474.417	546.45
474.875	573.3
475.332	597.4
475.789	602.65
476.246	615.45
476.704	647.05
477.161	672.75
477.618	685.9
478.075	733.6
478.532	787.35
478.989	864.35
479.446	959.95
479.903	1021.85
480.36	1117.75
480.817	1214.85
481.274	1288.35
481.731	1426.15
482.188	1528.45
482.645	1654.1
483.102	1748.65
483.558	1870.65
484.015	1968.85
484.472	1963.85
484.929	1900.4
485.385	1812.45
485.842	1763.45
486.299	1661.9
486.755	1499.4
487.212	1338.6
487.668	1194.6
488.125	1091.9
488.582	1009.9
489.038	969
489.494	921.4
489.951	899.95
490.407	873.05
490.864	858.8
491.32	836.45
491.776	819.6
492.233	818.35
492.689	811.05
493.145	796.25
493.602	790.9
494.058	802.95
494.514	811.9
494.97	821.4
495.426	823.5
495.882	823.9
496.338	831.05
496.794	862.15
497.251	866.7
497.707	872.85
498.163	862.45
498.618	872.25
499.074	872.4
499.53	893.65
499.986	909.8
500.442	928.2
500.898	926.85
501.354	939.45
501.809	950.35
502.265	957.9
502.721	998.65
503.177	1025.6
503.632	978.9
504.088	988.95
504.543	1079
504.999	1000.75
505.455	891.85
505.91	838.85
506.366	819.9
506.821	830.75
507.277	819.9
507.732	824.75
508.187	826.35
508.643	826.9
509.098	831.4
509.553	848.95
510.009	852.75
510.464	870.9
510.919	872.35
511.375	886.1
511.83	894.65
512.285	913.95
512.74	937.55
513.195	952.75
513.65	966.2
514.105	976.1
514.56	979.3
515.015	993.7
515.47	1006.15
515.925	998.9
516.38	993.15
516.835	993.2
517.29	989.7
517.745	997.75
518.2	981.05
518.655	942
519.109	934.45
519.564	927.25
520.019	922.45
520.474	913.95
520.928	902.85
521.383	903.55
521.838	894.6
522.292	882.35
522.747	888.25
523.201	880.1
523.656	867.85
524.11	866.9
524.565	861.5
525.019	860.9
525.474	869.55
525.928	868.9
526.382	864.6
526.837	856.45
527.291	852.8
527.745	841
528.2	850.4
528.654	845.65
529.108	847.85
529.562	848.9
530.016	848.45
530.47	852.95
530.925	839.65
531.379	852.3
531.833	857.1
532.287	857.8
532.741	841.95
533.195	855.3
533.649	847.15
534.103	847.45
534.556	845.25
535.01	857.1
535.464	848.1
535.918	858.5
536.372	861.7
536.826	853.7
537.279	851.55
537.733	844.85
538.187	857.8
538.64	847.85
539.094	865.55
539.548	874.35
540.001	867.05
540.455	869.3
540.908	883.15
541.362	886.7
541.815	895.05
542.269	921.15
542.722	907.65
543.175	910.6
543.629	914.55
544.082	930.05
544.536	933.6
544.989	932.55
545.442	941.8
545.895	948.75
546.349	939.95
546.802	939.75
547.255	947.7
547.708	954.75
548.161	969.15
548.614	956.1
549.067	972.7
549.52	959.45
549.973	944.05
550.426	945.75
550.879	935.75
551.332	933.7
551.785	948.1
552.238	950.2
552.691	945.45
553.144	968.65
553.596	981.45
554.049	991.85
554.502	1009.7
554.955	1023.55
555.407	1038.65
555.86	1028.9
556.313	1017.7
556.765	1011.6
557.218	1000.4
557.67	995.1
558.123	977.55
558.576	969.4
559.028	967.45
559.48	982.05
559.933	977.5
560.385	951.5
560.838	925.3
561.29	900.95
561.742	896.05
562.195	881.3
562.647	874.85
563.099	875.3
563.551	869.6
564.004	869.85
564.456	868.45
564.908	850.9
565.36	831.9
565.812	815.7
566.264	812.65
566.716	809.2
567.168	791.4
567.62	795.7
568.072	781.2
568.524	777.3
568.976	769.65
569.428	773.25
569.88	762.55
570.332	769.65
570.784	759.75
571.235	759.5
571.687	765.35
572.139	764.2
572.59	773.9
573.042	778.15
573.494	779.8
573.945	772.15
574.397	752.5
574.849	754.65
575.3	757.3
575.752	742.5
576.203	737.35
576.655	742.2
577.106	727.55
577.557	733.1
578.009	725.45
578.46	729.4
578.912	725.55
579.363	718.55
579.814	727.4
580.265	726.1
580.717	722.45
581.168	717.4
581.619	732.45
582.07	736.1
582.521	730.9
582.972	729.8
583.423	737.75
583.875	754.55
584.326	795.55
584.777	865.85
585.227	949.3
585.678	1017.25
586.129	1036.65
586.58	1052.6
587.031	1063.25
587.482	1119.65
587.933	1304.75
588.384	1214.6
588.834	1002.3
589.285	842.2
589.736	834.15
590.186	825.5
590.637	816.75
591.088	800.95
591.538	792.95
591.989	792
592.439	775.75
592.89	776.5
593.34	780.25
593.791	786.15
594.241	786.5
594.692	806.8
595.142	789.65
595.593	787.25
596.043	775.15
596.493	788.3
596.943	813.7
597.394	789.55
597.844	785
598.294	791.6
598.744	819
599.195	855.25
599.645	904.05
600.095	954.35
600.545	993.4
600.995	1036.75
601.445	1072.7
601.895	1109.4
602.345	1138.8
602.795	1125.3
603.245	1074.65
603.695	1010.8
604.145	960.4
604.594	924.5
605.044	865.15
605.494	820.05
605.944	780.4
606.393	767.85
606.843	764.6
607.293	761
607.743	760.15
608.192	767.95
608.642	766.85
609.091	773
609.541	771.1
609.99	767.15
610.44	740.2
610.889	741.3
611.339	731.75
611.788	725.45
612.238	735.35
612.687	744.2
613.136	755.8
613.586	767.65
614.035	765.75
614.484	776.05
614.933	781.9
615.383	762.8
615.832	735.7
616.281	722.25
616.73	708.8
617.179	684.15
617.628	666.85
618.077	663.7
618.526	654.1
618.975	650.45
619.424	636.55
619.873	633.35
620.322	628.55
620.771	627.75
621.22	625.85
621.669	606.95
622.118	603.4
622.567	600.05
623.015	590
623.464	592.05
623.913	573
624.361	583.45
624.81	582.7
625.259	577.65
625.707	569.95
626.156	572.8
626.604	576.95
627.053	576.25
627.501	576.35
627.95	585.3
628.398	588.1
628.847	588.8
629.295	590.2
629.744	598.95
630.192	621.2
630.64	670.1
631.089	741.75
631.537	782.75
631.985	780.35
632.433	814.8
632.881	813.7
633.33	977.25
633.778	1065.4
634.226	754.35
634.674	689.45
635.122	686.45
635.57	691.55
636.018	800.75
636.466	655.2
636.914	568.95
637.362	574.6
637.81	577
638.258	593
638.705	597.5
639.153	615.5
639.601	618.6
640.049	633.8
640.497	646.95
640.944	661.65
641.392	633.85
641.84	598.8
642.287	583.4
642.735	576.6
643.182	570.15
643.63	573.5
644.078	570.45
644.525	581.7
644.973	596.3
645.42	605.4
645.867	619.7
646.315	634.65
646.762	661.4
647.21	672.95
647.657	714.05
648.104	745.05
648.551	781.2
648.999	853.25
649.446	949.2
649.893	1074.6
650.34	1280.3
650.787	1592.1
651.234	2077.95
651.682	2913.55
652.129	4262.3
652.576	6160.7
653.023	8226.15
653.47	9562.35
653.917	10298.65
654.363	10618.05
654.81	11228.9
655.257	11248
655.704	7651.8
656.151	4474.15
656.598	2885.15
657.044	2057.55
657.491	1591.8
657.938	1281.4
658.385	1075.6
658.831	946.5
659.278	839.7
659.724	761.8
660.171	706.4
660.618	656
661.064	613.4
661.511	588.3
661.957	564.15
662.404	555.8
662.85	546.5
663.296	535.5
663.743	521
664.189	521.9
664.635	515.45
665.082	500.4
665.528	501.85
665.974	485.7
666.42	481.55
666.867	490.75
667.313	494.6
667.759	521.55
668.205	519.45
668.651	526.75
669.097	501.7
669.543	553.2
669.989	518.05
670.435	450.7
670.881	444.05
671.327	466.05
671.773	496.6
672.219	530.8
672.665	570.75
673.11	584.45
673.556	585.85
674.002	591.35
674.448	595.65
674.893	513.65
675.339	448
675.785	416.85
676.23	398.6
676.676	381.25
677.122	371.75
677.567	369.6
678.013	352.15
678.458	351
678.904	349.45
679.349	342.4
679.794	344.05
680.24	344.75
680.685	338.15
681.131	343.3
681.576	344.8
682.021	345.65
682.466	354.1
682.912	351.3
683.357	369.75
683.802	401.3
684.247	436.15
684.692	460.4
685.137	483.5
685.583	481.95
686.028	505.65
686.473	476.95
686.918	418
687.363	385.55
687.807	365.4
688.252	348.95
688.697	338.15
689.142	328.55
689.587	329.1
690.032	342.4
690.477	346.35
690.921	367
691.366	386.2
691.811	401.35
692.255	430.6
692.7	526.85
693.145	766.1
693.589	1140.65
694.034	1343.1
694.478	1396.25
694.923	1273.95
695.367	1740.55
695.812	1109.15
696.256	490.45
696.701	362.75
697.145	335.65
697.59	319.5
698.034	318.1
698.478	312.9
698.922	321.3
699.367	332.3
699.811	348.85
700.255	372.7
700.699	406.05
701.143	438.15
701.588	455.95
702.032	479.9
702.476	485.75
702.92	522.05
703.364	695.95
703.808	1048.85
704.252	1279.35
704.696	1333.2
705.14	1245.3
705.584	1647.65
706.027	967.95
706.471	497.05
706.915	377.65
707.359	336.45
707.803	316.45
708.246	299.45
708.69	305.2
709.134	300.8
709.577	298.4
710.021	302.5
710.465	299.85
710.908	298.3
711.352	312.6
711.795	342.85
712.239	366.55
712.682	371.45
713.126	371.35
713.569	411.8
714.012	352.75
714.456	303.05
714.899	283.85
715.342	267.75
715.786	256
716.229	254.05
716.672	241.5
717.115	248.7
717.558	244.9
718.002	254.55
718.445	265.65
718.888	280.05
719.331	280.55
719.774	284.5
720.217	286.75
720.66	262.9
721.103	255.1
721.546	235.15
721.989	232.1
722.432	226.8
722.874	226.85
723.317	233.2
723.76	255.15
724.203	317.3
724.645	423.9
725.088	489.6
725.531	472.5
725.974	507.25
726.416	453.9
726.859	296.75
727.301	236.05
727.744	229.4
728.187	234.9
728.629	234.95
729.071	243.45
729.514	255.05
729.956	265.05
730.399	269.05
730.841	262.65
731.283	259.8
731.726	251.35
732.168	254.3
732.61	273.2
733.053	288.5
733.495	320.85
733.937	362.65
734.379	426.6
734.821	542.35
735.263	866.65
735.705	1512.45
736.148	2155.35
736.59	2116.15
737.032	2237.85
737.474	1879.55
737.916	771.5
738.357	407.15
738.799	318.35
739.241	295.45
739.683	285.6
740.125	296.45
740.567	292.65
741.008	310.45
741.45	324.7
741.892	335.8
742.334	329.6
742.775	325.25
743.217	310.6
743.658	271
744.1	278.7
744.542	307.05
744.983	323.9
745.425	326.95
745.866	328.4
746.307	296.55
746.749	321.9
747.19	472.75
747.632	926.55
748.073	1643.75
748.514	2205.8
748.956	2897.2
749.397	3351.75
749.838	2337.75
750.279	2177.15
750.72	1187.05
751.162	510.6
751.603	294.65
752.044	235.2
752.485	212.25
752.926	198.7
753.367	184.95
753.808	184.05
754.249	180
754.69	185.25
755.131	175.55
755.572	178.85
756.013	176.35
756.453	175.45
756.894	185.4
757.335	183.7
757.776	186.8
758.216	193.55
758.657	204.05
759.098	225.65
759.538	268.45
759.979	398.45
760.42	805.75
760.86	1999.05
761.301	4014.55
761.741	4612.65
762.182	5173.9
762.622	3379.2
763.063	1316.1
763.503	585.8
763.943	459.55
764.384	496.6
764.824	463.55
765.264	460.65
765.705	332.3
766.145	236.25
766.585	202
767.025	220.6
767.465	284.75
767.906	354.05
768.346	370.45
768.786	379.25
769.226	387.8
769.666	658.95
770.106	1381.25
770.546	1879.85
770.986	2067.7
771.426	1586.75
771.866	701.25
772.306	330
772.745	207.7
773.185	175.75
773.625	183.8
774.065	213.5
774.505	352.65
774.944	691.1
775.384	1017.45
775.824	1126.15
776.263	928.2
776.703	473
777.142	242.6
777.582	161.5
778.021	149.5
778.461	140.3
778.9	142.95
779.34	131.75
779.779	121.35
780.219	116.5
780.658	118.9
781.097	111.7
781.537	105.3
781.976	110
782.415	110.65
782.855	113.25
783.294	109.1
783.733	105.2
784.172	107.85
784.611	106.5
785.05	107.95
785.489	109.3
785.928	117.15
786.367	115.1
786.806	126.7
787.245	131.9
787.684	134.6
788.123	132.7
788.562	126.1
789.001	124.7
789.44	121.5
789.879	125.55
790.317	123.95
790.756	129.55
791.195	154.9
791.634	206.45
792.072	374.15
792.511	897.5
792.95	1572.45
793.388	1830.6
793.827	1212.1
794.265	586.1
794.704	286.8
795.142	174.8
795.581	142.5
796.019	129.8
796.458	125.2
796.896	130.45
797.334	153.9
797.773	203.45
798.211	397
798.649	816.25
799.087	1320.55
799.526	1815
799.964	1855.15
800.402	1287.3
800.84	614.65
801.278	297.45
801.716	188.65
802.154	146.25
802.592	140.65
803.03	140.75
803.468	144.6
803.906	144.95
804.344	137.35
804.782	134.85
805.22	142.3
805.658	146.45
806.096	153.35
806.533	167.4
806.971	220.7
807.409	318.7
807.847	642.95
808.284	1585.15
808.722	2673.55
809.16	3749.3
809.597	5150.35
810.035	6180.6
810.472	3953.55
810.91	1795.8
811.347	812.4
811.785	381.6
812.222	233.85
812.66	181.95
813.097	157.55
813.535	142.2
813.972	118.55
814.409	114.45
814.846	109.85
815.284	98.8
815.721	108.7
816.158	111.15
816.595	145.9
817.032	175.15
817.47	157.45
817.907	125.65
818.344	115.3
818.781	107.15
819.218	124.9
819.655	181.8
820.092	227.5
820.529	208.85
820.966	168.65
821.403	129.8
821.839	116.3
822.276	121.75
822.713	135.15
823.15	133.25
823.587	144.55
824.023	265.45
824.46	655.4
824.897	1095.55
825.333	847.65
825.77	408.55
826.206	212.5
826.643	133.15
827.08	98.1
827.516	82.2
827.953	79.95
828.389	76.5
828.825	72.8
829.262	68.95
829.698	66.25
830.135	58.85
830.571	58.85
831.007	65.2
831.443	60
831.88	64.6
832.316	69.8
832.752	69.2
833.188	65.9
833.624	66.85
834.06	69.5
834.497	66.85
834.933	70.85
835.369	83.95
835.805	81.6
836.241	81.85
836.677	92.8
837.112	110.6
837.548	134.05
837.984	201
838.42	425.05
838.856	1137.9
839.292	2125.85
839.727	1591.9
840.163	1128.95
840.599	1669.2
841.034	2445.5
841.47	1264
841.906	636.85
842.341	363.85
842.777	314.1
843.212	365.8
843.648	216.25
844.083	136.45
844.519	93.85
844.954	79.15
845.39	66.05
845.825	61.05
846.261	64.15
846.696	56.7
847.131	51.75
847.566	53.65
848.002	56.15
848.437	60.9
848.872	64
849.307	82.4
849.742	144.6
850.177	385.4
850.613	776.45
851.048	548.75
851.483	260.8
851.918	149.55
852.353	89.95
852.788	65.1
853.223	58.55
853.657	53.05
854.092	48.9
854.527	43.65
854.962	47.1
855.397	55.1
855.832	47.35
856.266	41.4
856.701	39.9
857.136	39.6
857.57	44.3
858.005	55.95
858.44	47.8
858.874	46
859.309	47.2
859.743	47.9
860.178	44.9
860.612	51.1
861.047	62.15
861.481	85.5
861.915	55.75
862.35	49.85
862.784	36.9
863.218	39.5
863.653	42.35
864.087	48.5
864.521	65.6
864.955	115.45
865.39	187.75
865.824	130
866.258	148.8
866.692	212.5
867.126	154.45
867.56	88.85
867.994	55.8
868.428	52.2
868.862	59.9
869.296	59.8
869.73	62.35
870.164	59.85
870.598	51.3
871.031	42.1
871.465	40.6
871.899	34.95
872.333	27.8
872.766	34.2
873.2	29.75
873.634	30.7
874.067	31.6
874.501	33.9
874.935	29.2
875.368	32.7
875.802	26.6
876.235	27.4
876.669	25.6
877.102	23.55
877.535	22.3
877.969	22.25
878.402	21
878.836	19.75
879.269	23.95
879.702	23.1
880.135	24.75
880.569	27.65
881.002	21.95
881.435	26.25
881.868	21.75
882.301	22.05
882.734	20.3
883.167	24
883.601	20.6
884.034	22.45
884.467	16.3
884.899	24.45
885.332	15.8
885.765	21.3
886.198	16.45
886.631	19.3
887.064	20.4
887.497	14.85
887.929	21
888.362	22.5
888.795	16.8
889.228	20.5
889.66	13.7
890.093	14.85
890.526	17.4
890.958	19.55
891.391	25.35
891.823	16.95
892.256	20.85
892.688	19.3
893.121	15.6
893.553	20.65
893.985	13.1
894.418	15.3
894.85	18.35
895.282	15.9
895.715	16.1
896.147	11.45
896.579	11.75
897.011	19.15
897.444	18.4
897.876	11.8
898.308	11.45
898.74	16
899.172	19.2
899.604	18.65
900.036	19
900.468	10.65
900.9	14.5
901.332	22.1
901.764	20
902.196	23.05
902.628	18.65
903.06	23.45
903.491	25.55
903.923	21.1
904.355	22
904.787	27.3
905.218	19.1
905.65	22.75
906.082	20.2
906.513	16
906.945	22.95
907.376	18.55
907.808	22.6
908.239	20.1
908.671	25.25
909.102	27.05
909.534	30.7
909.965	72.75
910.397	182.1
910.828	509
911.259	312.85
911.691	173.6
912.122	105.15
912.553	55.3
912.984	28.35
913.415	23.5
913.847	21.05
914.278	20.75
914.709	18.45
915.14	15
915.571	18
916.002	16.1
916.433	12.75
916.864	15.9
917.295	20.3
917.726	18.5
918.157	23.6
918.587	24.85
919.018	23.85
919.449	16.2
919.88	22.65
920.311	39.05
920.741	110.7
921.172	187.05
921.603	92.85
922.033	58.8
922.464	39.2
922.895	28
923.325	14.3
923.756	14.75
924.186	23.9
924.617	41.5
925.047	68.45
925.478	60.25
925.908	41.95
926.338	30.5
926.769	20.35
927.199	22.85
927.629	12.6
928.06	14.15
928.49	16.2
928.92	15.05
929.35	9.9
929.78	10.7
930.21	10.45
930.641	2
931.071	6.55
931.501	8.65
931.931	4.85
932.361	6.05
932.791	12.45
933.221	10.8
933.651	16.1
934.08	25.9
934.51	15.15
934.94	13.75
935.37	8.1
935.8	8.15
936.229	2.2
936.659	2.4
937.089	7.4
937.519	13.15
937.948	29.05
938.378	16.05
938.807	7.5
939.237	3.55
939.666	9.65
940.096	4.3
940.525	-2.7
940.955	4.25
941.384	2.05
941.814	5.15
942.243	3.75
942.672	0.65
943.102	0.35
943.531	1.8
943.96	3.65
944.39	3.5
944.819	3.85
945.248	4.4
945.677	5.7
946.106	3.75
946.535	2.1
946.964	-0.4
947.393	-1.65
947.822	1.1
948.251	2.2
948.68	5.35
949.109	7.1
949.538	1.2
949.967	2.6
950.396	1.95
950.825	9.3
951.254	6.35
951.682	-1.85
952.111	-6.45
952.54	2.1
952.969	1.25
953.397	-1.4
953.826	-1.65
954.254	5.15
954.683	2.5
955.112	7.35
955.54	0.85
955.969	3.45
956.397	0.7
956.826	1.05
957.254	1.05
957.682	1.3
958.111	3.95
958.539	5.25
958.967	-1.35
959.396	10.4
959.824	0.55
960.252	-0.4
960.68	3
961.109	5.55
961.537	4.95
961.965	-0.4
962.393	2.2
962.821	-0.45
963.249	-1.8
963.677	3.25
964.105	30.3
964.533	56.45
964.961	27.05
965.389	10.6
965.817	6.4
966.245	2.9
966.672	2.7
967.1	4.85
967.528	-3.8
967.956	-0.75
968.383	3.5
968.811	1.4
969.239	3.05
969.666	0.65
970.094	-0.2
970.522	-3.6
970.949	-1.1
971.377	-5.6
971.804	-1.05
972.232	-1.05
972.659	-1.45
973.087	1.4
973.514	-2.05
973.941	-1.15
974.369	-0.5
974.796	0.85
975.223	-2.1
975.651	3.05
976.078	1
976.505	4
976.932	6.85
977.359	14.25
977.786	5.4
978.214	5.95
978.641	-0.05
979.068	0.6
979.495	0.6
979.922	2.3
980.349	4.35
980.776	0.5
981.202	2.45
981.629	1.75
982.056	7.15
982.483	-2.45
982.91	7.7
983.337	-3.25
983.763	2.45
984.19	2.45
984.617	-1.85
985.043	-2.5
985.47	2.05
985.897	0
986.323	3.25
986.75	1.6
987.176	-1.6
987.603	-1.05
988.029	-0.45
988.456	5.65
988.882	-1.8
989.308	-4.75
989.735	-1.3
990.161	0.8
990.587	-1.6
991.014	7.15
991.44	1.05
991.866	-3
992.292	-1.1
992.719	0.6
993.145	1.35
993.571	1.05
993.997	5.55
994.423	2.75
994.849	-5.35
995.275	1.3
995.701	-0.5
996.127	-4.9
996.553	-0.4
996.979	-2.3
997.405	1.5
997.83	-1.35
998.256	1.3
998.682	-3.75
999.108	-3.4
999.534	-11.05
999.959	-2.85
1000.385	0.2
1000.811	-2.6
1001.236	-2.55
1001.662	-0.65
1002.087	2.7
1002.513	0.75
1002.938	-2.85
1003.364	-2.5
1003.789	-1.9
1004.215	-5.5
1004.64	-4.8
1005.066	2.4
1005.491	3.4
1005.916	3.25
1006.342	2.3
1006.767	1.55
1007.192	0.3
1007.617	-1.8
1008.042	-1.65
1008.468	-1.8
1008.893	0.75
1009.318	-0.7
1009.743	1.4
1010.168	4.4
1010.593	9.4
1011.018	3.05
1011.443	0.6
1011.868	-0.25
1012.293	-0.65
1012.718	-1.6
1013.143	-1.9
1013.567	1.55
1013.992	1.45
1014.417	-0.8
1014.842	-2.75
1015.267	-1.7
1015.691	1.35
1016.116	-6.1
1016.541	-3.15
1016.965	-1.5
1017.39	2.35
1017.814	-2.75
1018.239	-0.85
1018.663	-6.3
1019.088	-7.25
1019.512	6.15
1019.937	-3.5
1020.361	1.9
1020.785	-0.4
1021.21	-1.25
1021.634	-1.05
1022.058	-0.25
1022.483	-4.5
1022.907	-7.6
1023.331	-2.65
1023.755	-2.6
1024.179	3.2
1024.604	-0.25
1025.028	-1.15
1025.452	2.8
1025.876	2.7
1026.3	-2.45
1026.724	-1.15
1027.148	2.7
1027.572	-1
1027.996	0.7
1028.42	-0.45
1028.843	-2.65
1029.267	-1.25
1029.691	0.35
1030.115	-2.85
1030.539	0.95
1030.962	-0.55
1031.386	-1.2
1031.81	2.7
1032.233	-6.95
1032.657	-2.6
1033.08	-0.2
1033.504	-0.7
1033.927	-1.3
1034.351	-1.2
1034.774	-7.45
1035.198	-4.8
1035.621	2.45
1036.045	-1.55
1036.468	1.65
1036.891	4.55
1037.315	2.9
1037.738	-0.9
1038.161	-3
1038.584	-2.8
1039.008	-1.55
1039.431	-6.45
1039.854	-3.85
1040.277	2.6
1040.7	-3.8
1041.123	-3.75
1041.546	-3.9
1041.969	-2.8
1042.392	-1.35
1042.815	-6.05
1043.238	-2.6
1043.661	-2.55
1044.084	-1.05
1044.507	0.3
1044.93	-2.8
1045.352	0.5
1045.775	-1.25
1046.198	-0.5
1046.621	-0.65
1047.043	-8.05
1047.466	-0.85
1047.889	-3.9
1048.311	4.8
1048.734	-3.5
1049.156	-3.5
1049.579	-3.9
1050.001	-6.55
1050.424	-2.25
1050.846	-5.65
1051.269	-4.85
1051.691	-5.55
1052.113	0.2
1052.536	-2.55
1052.958	-5.45
1053.38	-0.95
1053.802	0.45
1054.225	-0.9
1054.647	-2.3
1055.069	-2.3
1055.491	-1.8
1055.913	-3.25
1056.335	-10.65
1056.757	-4.75
1057.179	-6.45
1057.601	2
1058.023	-0.6
1058.445	-2.7
1058.867	1.45
1059.289	1.55
1059.711	-6.9
1060.133	-0.4
1060.555	-3.2
1060.976	0.25
1061.398	-4.1
1061.82	-5.45
1062.241	-3.3
1062.663	-0.35
1063.085	-3.35
1063.506	-7.65
1063.928	-7.25
1064.35	-4.35
1064.771	-4.1
1065.193	-6.4
1065.614	-4.95
1066.035	2.95
1066.457	0.7
1066.878	-2.65
1067.3	-5.1
1067.721	-0.6
1068.142	2.9
1068.564	2.75
1068.985	-2.15
1069.406	-5.65
1069.827	0.75
1070.248	-4.65
1070.67	-6.75
1071.091	-9
1071.512	-6.25
1071.933	-4.55
1072.354	-6.15
1072.775	-2.75
1073.196	-3.2
1073.617	-6.45
1074.038	-2.65
1074.459	-4.2
1074.88	-2.8
1075.3	-5.4
1075.721	-2.25
1076.142	-0.45
1076.563	-7.1
1076.983	0.75
1077.404	-6.3
1077.825	-3.1
1078.246	-3.7
1078.666	-7.2
1079.087	-3.9
1079.507	-3.35
1079.928	-3.6
1080.348	-3.25
1080.769	0.6
1081.189	-3.15
1081.61	-6.1
1082.03	4.75
1082.451	-0.3
1082.871	-2.65
1083.291	-0.8
1083.711	-2.1
1084.132	-1.05
1084.552	-1.5
1084.972	-4.5
1085.392	-6.4
1085.813	2.05
1086.233	-1.3
1086.653	-3.55
1087.073	-5.75
1087.493	-6.2
1087.913	-4.65
1088.333	-4.85
1088.753	-0.05
1089.173	-0.35
1089.593	0.7
1090.013	-5.2
1090.433	-7.85
1090.852	-2.2
1091.272	-3.1
1091.692	-1.95
1092.112	-1.8
1092.531	-4.95
1092.951	-5.5
1093.371	0.45
1093.79	-4
1094.21	-4.45
1094.63	1.5
1095.049	-4.55
1095.469	-9.55
1095.888	0.85
1096.308	2.45
1096.727	-3.15
1097.146	-4.35
1097.566	0.8
1097.985	-1.15
1098.405	-0.3
1098.824	2.05
1099.243	0.7
1099.662	-4.5
1100.082	-3.65
1100.501	0.3
1100.92	1.55
1101.339	-1.7
1101.758	6.45
