Data from MSPlasma+Separation6_Subt14_10-14-44-327.txt Node
Date: Fri Jul 21 10:14:44 EDT 2017
User: Ender
Spectrometer: HR+D1039
Trigger mode: 0
Integration Time (sec): 6.430000E-3
Scans to average: 20
Electric dark correction enabled: true
Nonlinearity correction enabled: false
Boxcar width: 0
XAxis mode: Wavelengths
Number of Pixels in Spectrum: 2048
>>>>>Begin Spectral Data<<<<<
187.836	-3.66
188.309	-3.66
188.782	-3.66
189.255	-0.86
189.728	-2.21
190.201	-0.91
190.674	-0.56
191.147	0.34
191.619	2.74
192.092	-0.66
192.565	-3.21
193.038	1.84
193.511	1.09
193.984	2.54
194.456	4.14
194.929	-0.06
195.402	-3.46
195.874	2.89
196.347	2.14
196.82	2.44
197.292	-1.81
197.765	-1.86
198.237	-5.76
198.71	-2.81
199.182	-1.31
199.655	6.09
200.127	1.79
200.6	-3.96
201.072	4.79
201.544	-0.41
202.017	1.64
202.489	6.19
202.961	-0.41
203.433	0.99
203.906	-5.06
204.378	4.24
204.85	3.54
205.322	5.24
205.794	4.99
206.266	0.89
206.739	3.89
207.211	5.09
207.683	2.99
208.155	3.89
208.627	2.74
209.099	4.54
209.57	4.89
210.042	1.64
210.514	7.04
210.986	15.24
211.458	24.14
211.93	10.64
212.402	5.84
212.873	-1.81
213.345	0.89
213.817	3.14
214.288	-0.51
214.76	5.94
215.232	2.64
215.703	0.44
216.175	1.89
216.646	-0.91
217.118	1.44
217.589	1.44
218.061	5.49
218.532	-1.81
219.004	8.89
219.475	15.54
219.946	29.64
220.418	38.59
220.889	26.59
221.36	18.59
221.832	10.44
222.303	4.39
222.774	6.09
223.245	4.89
223.717	7.54
224.188	5.19
224.659	4.44
225.13	4.94
225.601	5.64
226.072	6.99
226.543	9.64
227.014	4.99
227.485	8.64
227.956	13.64
228.427	14.69
228.898	12.44
229.369	15.24
229.839	11.79
230.31	14.89
230.781	12.94
231.252	20.49
231.722	30.44
232.193	37.44
232.664	45.64
233.135	61.04
233.605	61.19
234.076	51.99
234.546	40.14
235.017	47.44
235.487	49.99
235.958	43.14
236.428	63.89
236.899	110.24
237.369	122.14
237.84	96.74
238.31	111.44
238.78	114.44
239.251	114.54
239.721	117.69
240.191	85.79
240.662	47.54
241.132	37.64
241.602	47.34
242.072	77.44
242.542	89.24
243.013	63.39
243.483	56.89
243.953	38.19
244.423	40.44
244.893	52.69
245.363	60.59
245.833	53.79
246.303	63.69
246.773	86.24
247.243	82.74
247.712	94.34
248.182	114.04
248.652	115.04
249.122	172.24
249.592	329.64
250.061	500.74
250.531	782.49
251.001	601.34
251.471	500.89
251.94	379.69
252.41	205.99
252.879	140.24
253.349	104.29
253.818	80.74
254.288	69.49
254.757	74.94
255.227	101.44
255.696	85.69
256.166	72.54
256.635	78.24
257.105	96.79
257.574	123.04
258.043	132.09
258.513	237.14
258.982	303.14
259.451	209.39
259.92	209.29
260.389	193.09
260.859	140.69
261.328	162.59
261.797	245.94
262.266	211.14
262.735	95.34
263.204	63.14
263.673	53.49
264.142	47.54
264.611	53.59
265.08	51.54
265.549	57.09
266.018	52.29
266.487	50.29
266.955	45.14
267.424	55.84
267.893	57.24
268.362	57.89
268.83	54.34
269.299	58.09
269.768	67.84
270.236	80.59
270.705	91.49
271.174	91.64
271.642	97.34
272.111	106.19
272.579	185.94
273.048	282.19
273.516	359.84
273.985	368.24
274.453	281.54
274.922	164.39
275.39	102.34
275.858	95.44
276.327	75.89
276.795	82.14
277.263	91.54
277.731	134.09
278.2	271.69
278.668	359.89
279.136	273.64
279.604	170.49
280.072	96.84
280.54	80.54
281.008	82.29
281.477	79.99
281.945	82.34
282.413	81.29
282.881	87.44
283.348	89.94
283.816	94.89
284.284	104.19
284.752	94.84
285.22	99.29
285.688	107.89
286.156	187.64
286.623	503.09
287.091	998.14
287.559	520.19
288.026	192.04
288.494	119.69
288.962	97.34
289.429	91.09
289.897	91.14
290.364	81.89
290.832	82.94
291.3	89.09
291.767	85.99
292.234	92.64
292.702	94.94
293.169	102.84
293.637	109.19
294.104	105.04
294.571	103.24
295.039	99.09
295.506	98.19
295.973	106.79
296.44	98.34
296.908	108.89
297.375	126.89
297.842	122.04
298.309	103.19
298.776	107.44
299.243	109.79
299.71	104.84
300.177	103.99
300.644	115.19
301.111	132.09
301.578	118.19
302.045	107.64
302.512	109.39
302.979	116.04
303.446	120.94
303.913	129.14
304.379	130.79
304.846	145.14
305.313	156.39
305.78	184.24
306.246	226.14
306.713	242.19
307.18	211.44
307.646	234.39
308.113	198.19
308.579	163.54
309.046	157.19
309.512	157.79
309.979	141.79
310.445	131.74
310.912	141.44
311.378	138.09
311.845	142.74
312.311	138.34
312.777	132.34
313.244	141.89
313.71	145.14
314.176	167.19
314.642	187.34
315.109	220.14
315.575	206.99
316.041	187.94
316.507	176.04
316.973	198.74
317.439	195.49
317.905	215.69
318.371	207.49
318.837	199.19
319.303	203.64
319.769	195.09
320.235	217.39
320.701	245.29
321.167	262.24
321.633	315.69
322.099	441.44
322.564	593.44
323.03	464.84
323.496	326.04
323.962	306.69
324.427	286.14
324.893	253.64
325.359	240.34
325.824	207.54
326.29	216.24
326.755	220.89
327.221	221.34
327.686	232.09
328.152	209.34
328.617	200.79
329.083	201.34
329.548	212.94
330.014	219.39
330.479	249.04
330.944	284.74
331.41	322.94
331.875	311.69
332.34	324.14
332.805	372.89
333.271	479.99
333.736	633.94
334.201	568.59
334.666	421.24
335.131	475.79
335.596	376.29
336.061	399.49
336.526	403.64
336.991	357.49
337.456	388.04
337.921	302.39
338.386	249.04
338.851	226.04
339.316	208.29
339.781	206.69
340.246	208.74
340.711	209.39
341.175	209.64
341.64	215.74
342.105	222.49
342.569	237.59
343.034	255.44
343.499	260.19
343.963	244.94
344.428	242.94
344.893	249.24
345.357	257.69
345.822	250.09
346.286	254.09
346.751	264.69
347.215	258.14
347.679	273.44
348.144	288.44
348.608	287.39
349.073	302.19
349.537	335.49
350.001	329.14
350.465	303.79
350.93	290.19
351.394	290.84
351.858	291.99
352.322	308.79
352.786	307.79
353.25	293.09
353.715	300.64
354.179	325.04
354.643	340.14
355.107	340.49
355.571	365.94
356.035	376.54
356.498	363.44
356.962	390.99
357.426	383.64
357.89	344.14
358.354	314.79
358.818	320.44
359.281	332.69
359.745	350.09
360.209	339.64
360.673	350.49
361.136	347.84
361.6	341.94
362.064	368.14
362.527	372.74
362.991	375.94
363.454	374.14
363.918	374.54
364.381	372.69
364.845	365.24
365.308	362.74
365.772	358.34
366.235	362.59
366.698	389.14
367.162	468.64
367.625	526.54
368.088	425.04
368.552	387.49
369.015	390.64
369.478	423.49
369.941	429.64
370.404	432.84
370.867	462.94
371.331	475.99
371.794	474.09
372.257	538.74
372.72	566.99
373.183	536.64
373.646	539.74
374.109	544.09
374.572	622.54
375.035	735.74
375.497	556.09
375.96	442.19
376.423	420.44
376.886	420.94
377.349	431.89
377.811	444.19
378.274	454.04
378.737	455.74
379.199	467.39
379.662	480.99
380.125	516.74
380.587	567.19
381.05	608.39
381.512	605.24
381.975	581.89
382.437	579.44
382.9	572.74
383.362	572.09
383.825	613.49
384.287	779.09
384.75	884.69
385.212	763.44
385.674	625.09
386.136	566.14
386.599	562.39
387.061	593.79
387.523	620.64
387.985	629.89
388.447	644.89
388.91	734.04
389.372	891.19
389.834	825.39
390.296	674.99
390.758	685.39
391.22	712.34
391.682	872.89
392.144	1359.29
392.606	1270.64
393.068	735.44
393.529	671.09
393.991	649.59
394.453	640.69
394.915	670.19
395.377	825.04
395.838	1014.94
396.3	719.44
396.762	547.19
397.224	521.49
397.685	508.19
398.147	522.14
398.608	517.39
399.07	533.84
399.531	532.19
399.993	531.54
400.454	532.94
400.916	532.39
401.377	547.44
401.839	553.84
402.3	553.79
402.762	579.89
403.223	645.14
403.684	652.99
404.145	606.29
404.607	584.49
405.068	580.64
405.529	608.69
405.99	614.14
406.451	622.69
406.913	608.84
407.374	615.14
407.835	618.84
408.296	639.94
408.757	644.54
409.218	661.24
409.679	676.14
410.14	685.54
410.601	707.34
411.062	745.84
411.522	850.24
411.983	947.64
412.444	805.49
412.905	705.44
413.366	705.04
413.826	720.94
414.287	804.29
414.748	948.44
415.208	968.59
415.669	819.49
416.13	746.69
416.59	730.34
417.051	748.74
417.511	779.69
417.972	840.99
418.432	906.19
418.893	1006.54
419.353	951.19
419.814	736.69
420.274	675.19
420.734	667.79
421.195	708.64
421.655	736.14
422.115	713.34
422.576	690.24
423.036	688.24
423.496	722.89
423.956	753.64
424.416	807.09
424.876	905.04
425.336	901.74
425.797	902.29
426.257	916.94
426.717	857.99
427.177	798.59
427.637	827.54
428.097	872.74
428.556	916.29
429.016	991.19
429.476	985.89
429.936	951.74
430.396	930.39
430.856	940.89
431.315	961.89
431.775	1029.79
432.235	1078.99
432.694	1101.94
433.154	1032.64
433.614	1006.39
434.073	974.64
434.533	885.44
434.993	852.29
435.452	856.94
435.912	848.24
436.371	847.64
436.83	842.54
437.29	849.79
437.749	809.19
438.209	792.14
438.668	797.44
439.127	807.59
439.587	791.64
440.046	755.39
440.505	770.94
440.964	772.19
441.424	791.09
441.883	798.39
442.342	765.54
442.801	741.84
443.26	765.09
443.719	746.94
444.178	747.94
444.637	757.04
445.096	749.04
445.555	772.19
446.014	767.84
446.473	743.29
446.932	746.89
447.391	757.29
447.849	773.54
448.308	768.14
448.767	784.19
449.226	803.14
449.685	805.94
450.143	836.99
450.602	837.89
451.061	806.59
451.519	820.79
451.978	845.69
452.436	863.89
452.895	821.24
453.353	789.09
453.812	813.84
454.27	806.49
454.729	773.39
455.187	784.09
455.646	781.24
456.104	791.64
456.562	787.29
457.021	784.14
457.479	746.24
457.937	773.19
458.395	793.54
458.854	791.59
459.312	774.34
459.77	779.84
460.228	793.09
460.686	808.59
461.144	802.59
461.602	790.84
462.06	801.04
462.518	814.64
462.976	816.14
463.434	824.64
463.892	836.14
464.35	849.34
464.808	862.84
465.266	871.99
465.724	887.29
466.181	886.89
466.639	879.89
467.097	923.99
467.555	947.14
468.012	940.09
468.47	940.04
468.928	976.24
469.385	997.09
469.843	1009.19
470.3	999.69
470.758	1037.54
471.215	1049.99
471.673	1077.44
472.13	1112.84
472.588	1137.84
473.045	1139.09
473.503	1156.69
473.96	1207.94
474.417	1214.89
474.875	1267.99
475.332	1317.89
475.789	1349.49
476.246	1386.54
476.704	1447.24
477.161	1488.39
477.618	1541.19
478.075	1633.04
478.532	1756.29
478.989	1899.59
479.446	2109.74
479.903	2233.14
480.36	2474.54
480.817	2650.44
481.274	2854.14
481.731	3131.74
482.188	3359.69
482.645	3641.94
483.102	3859.14
483.558	4146.39
484.015	4355.74
484.472	4357.44
484.929	4225.79
485.385	4020.84
485.842	3910.14
486.299	3705.44
486.755	3341.04
487.212	2971.09
487.668	2669.79
488.125	2456.59
488.582	2258.29
489.038	2147.79
489.494	2081.44
489.951	2011.04
490.407	1962.24
490.864	1926.99
491.32	1894.29
491.776	1853.74
492.233	1856.99
492.689	1828.19
493.145	1801.59
493.602	1784.44
494.058	1825.49
494.514	1846.24
494.97	1851.14
495.426	1873.79
495.882	1884.49
496.338	1894.84
496.794	1961.04
497.251	1983.49
497.707	1982.19
498.163	1989.64
498.618	1979.79
499.074	2007.64
499.53	2034.89
499.986	2068.64
500.442	2102.04
500.898	2117.44
501.354	2157.79
501.809	2154.44
502.265	2186.74
502.721	2289.54
503.177	2358.69
503.632	2226.99
504.088	2247.24
504.543	2458.19
504.999	2282.99
505.455	2011.29
505.91	1910.39
506.366	1879.59
506.821	1880.79
507.277	1858.99
507.732	1881.84
508.187	1869.39
508.643	1885.14
509.098	1900.89
509.553	1921.64
510.009	1939.54
510.464	1982.39
510.919	1985.89
511.375	2012.49
511.83	2037.04
512.285	2081.84
512.74	2129.74
513.195	2141.94
513.65	2196.04
514.105	2233.04
514.56	2228.89
515.015	2274.14
515.47	2300.94
515.925	2301.44
516.38	2292.79
516.835	2262.34
517.29	2269.54
517.745	2282.64
518.2	2249.59
518.655	2181.54
519.109	2141.44
519.564	2124.64
520.019	2110.79
520.474	2094.09
520.928	2079.54
521.383	2060.89
521.838	2054.64
522.292	2036.14
522.747	2008.89
523.201	2009.69
523.656	1983.74
524.11	1979.79
524.565	1976.74
525.019	1975.34
525.474	1985.59
525.928	1984.99
526.382	1963.04
526.837	1935.54
527.291	1949.69
527.745	1932.39
528.2	1943.94
528.654	1931.24
529.108	1926.39
529.562	1939.24
530.016	1932.09
530.47	1945.54
530.925	1944.04
531.379	1958.09
531.833	1977.34
532.287	1954.79
532.741	1949.44
533.195	1942.84
533.649	1949.54
534.103	1943.54
534.556	1922.04
535.01	1948.64
535.464	1941.19
535.918	1962.09
536.372	1949.34
536.826	1939.39
537.279	1942.29
537.733	1928.74
538.187	1947.64
538.64	1953.44
539.094	1968.84
539.548	1986.79
540.001	1985.09
540.455	1997.99
540.908	1991.94
541.362	2027.89
541.815	2041.64
542.269	2084.99
542.722	2069.14
543.175	2104.39
543.629	2121.04
544.082	2127.39
544.536	2153.89
544.989	2148.74
545.442	2156.74
545.895	2165.59
546.349	2158.84
546.802	2172.99
547.255	2154.74
547.708	2171.79
548.161	2204.69
548.614	2199.44
549.067	2211.24
549.52	2187.14
549.973	2167.74
550.426	2149.69
550.879	2134.99
551.332	2130.89
551.785	2151.99
552.238	2170.74
552.691	2169.94
553.144	2204.69
553.596	2234.39
554.049	2258.94
554.502	2315.34
554.955	2352.84
555.407	2394.09
555.86	2358.04
556.313	2330.04
556.765	2312.64
557.218	2275.79
557.67	2288.29
558.123	2252.44
558.576	2238.94
559.028	2236.44
559.48	2259.39
559.933	2264.44
560.385	2178.54
560.838	2096.24
561.29	2039.59
561.742	2037.14
562.195	2004.29
562.647	1988.54
563.099	1987.99
563.551	1977.44
564.004	1986.09
564.456	1975.59
564.908	1942.39
565.36	1902.24
565.812	1870.79
566.264	1861.84
566.716	1831.44
567.168	1808.74
567.62	1815.54
568.072	1790.74
568.524	1773.84
568.976	1761.74
569.428	1748.94
569.88	1741.19
570.332	1744.74
570.784	1743.29
571.235	1737.04
571.687	1752.54
572.139	1749.79
572.59	1769.59
573.042	1771.69
573.494	1772.19
573.945	1739.04
574.397	1706.29
574.849	1712.29
575.3	1712.39
575.752	1690.59
576.203	1685.99
576.655	1688.54
577.106	1669.79
577.557	1649.49
578.009	1654.14
578.46	1649.69
578.912	1638.54
579.363	1656.84
579.814	1643.44
580.265	1638.19
580.717	1654.94
581.168	1652.64
581.619	1652.39
582.07	1674.59
582.521	1661.69
582.972	1669.79
583.423	1694.34
583.875	1731.59
584.326	1861.44
584.777	2088.44
585.227	2345.89
585.678	2556.99
586.129	2626.14
586.58	2663.39
587.031	2684.34
587.482	2877.19
587.933	3492.64
588.384	3140.59
588.834	2441.79
589.285	1956.74
589.736	1885.64
590.186	1880.14
590.637	1875.69
591.088	1825.04
591.538	1799.89
591.989	1778.74
592.439	1784.04
592.89	1765.84
593.34	1770.89
593.791	1799.59
594.241	1796.89
594.692	1830.44
595.142	1798.14
595.593	1760.04
596.043	1768.59
596.493	1809.39
596.943	1843.44
597.394	1818.34
597.844	1781.04
598.294	1805.24
598.744	1865.09
599.195	1965.24
599.645	2061.74
600.095	2178.29
600.545	2272.34
600.995	2378.24
601.445	2447.14
601.895	2566.49
602.345	2637.24
602.795	2594.59
603.245	2491.99
603.695	2344.14
604.145	2204.54
604.594	2095.19
605.044	1995.39
605.494	1881.39
605.944	1791.44
606.393	1759.34
606.843	1734.99
607.293	1736.59
607.743	1723.09
608.192	1745.99
608.642	1748.89
609.091	1748.04
609.541	1734.09
609.99	1736.79
610.44	1714.04
610.889	1691.34
611.339	1677.94
611.788	1661.29
612.238	1694.44
612.687	1722.39
613.136	1731.94
613.586	1764.99
614.035	1755.74
614.484	1780.39
614.933	1789.54
615.383	1751.54
615.832	1694.94
616.281	1657.84
616.73	1604.09
617.179	1557.49
617.628	1526.14
618.077	1498.74
618.526	1470.49
618.975	1469.79
619.424	1435.44
619.873	1443.24
620.322	1430.09
620.771	1435.14
621.22	1415.94
621.669	1390.59
622.118	1376.44
622.567	1360.89
623.015	1339.49
623.464	1338.44
623.913	1316.29
624.361	1316.54
624.81	1318.94
625.259	1305.49
625.707	1282.79
626.156	1295.79
626.604	1312.79
627.053	1318.14
627.501	1308.04
627.95	1314.59
628.398	1340.84
628.847	1316.84
629.295	1319.29
629.744	1341.04
630.192	1383.34
630.64	1499.49
631.089	1680.79
631.537	1778.39
631.985	1770.14
632.433	1845.79
632.881	1831.59
633.33	2227.29
633.778	2443.84
634.226	1695.79
634.674	1545.29
635.122	1534.09
635.57	1567.59
636.018	1830.19
636.466	1465.44
636.914	1287.74
637.362	1280.64
637.81	1296.14
638.258	1335.44
638.705	1348.04
639.153	1388.29
639.601	1402.19
640.049	1424.09
640.497	1456.84
640.944	1484.54
641.392	1427.99
641.84	1347.69
642.287	1306.69
642.735	1285.09
643.182	1288.59
643.63	1279.94
644.078	1281.69
644.525	1302.14
644.973	1343.49
645.42	1356.59
645.867	1376.99
646.315	1404.94
646.762	1460.79
647.21	1503.34
647.657	1595.64
648.104	1659.54
648.551	1725.69
648.999	1871.94
649.446	2074.99
649.893	2350.49
650.34	2769.69
650.787	3479.54
651.234	4564.14
651.682	6425.69
652.129	9214.79
652.576	13271.14
653.023	15534.59
653.47	15537.79
653.917	15537.84
654.363	15537.74
654.81	15534.74
655.257	15535.39
655.704	15539.19
656.151	9888.14
656.598	6370.74
657.044	4484.94
657.491	3478.24
657.938	2816.09
658.385	2364.89
658.831	2059.19
659.278	1839.64
659.724	1679.54
660.171	1553.69
660.618	1438.89
661.064	1355.84
661.511	1295.84
661.957	1257.79
662.404	1228.69
662.85	1206.54
663.296	1194.14
663.743	1169.14
664.189	1148.89
664.635	1138.39
665.082	1127.94
665.528	1108.79
665.974	1080.59
666.42	1075.29
666.867	1101.84
667.313	1117.19
667.759	1176.99
668.205	1171.39
668.651	1192.99
669.097	1151.44
669.543	1259.84
669.989	1173.19
670.435	1014.59
670.881	1009.54
671.327	1045.79
671.773	1111.74
672.219	1202.24
672.665	1265.59
673.11	1299.44
673.556	1314.89
674.002	1340.94
674.448	1354.34
674.893	1158.34
675.339	1011.99
675.785	936.14
676.23	887.89
676.676	862.39
677.122	834.09
677.567	810.44
678.013	796.74
678.458	789.59
678.904	782.99
679.349	769.14
679.794	775.19
680.24	767.49
680.685	761.39
681.131	758.34
681.576	768.34
682.021	771.54
682.466	778.04
682.912	784.89
683.357	823.99
683.802	888.14
684.247	981.54
684.692	1034.99
685.137	1067.89
685.583	1092.54
686.028	1151.49
686.473	1089.49
686.918	940.19
687.363	861.19
687.807	830.14
688.252	792.94
688.697	750.94
689.142	731.19
689.587	736.94
690.032	761.34
690.477	783.99
690.921	821.34
691.366	866.34
691.811	896.64
692.255	973.29
692.7	1183.69
693.145	1714.09
693.589	2598.69
694.034	3080.24
694.478	3244.09
694.923	2951.29
695.367	4166.49
695.812	2563.14
696.256	1096.49
696.701	799.84
697.145	745.24
697.59	729.44
698.034	712.79
698.478	715.24
698.922	720.99
699.367	743.94
699.811	775.89
700.255	836.09
700.699	919.54
701.143	1001.99
701.588	1042.34
702.032	1077.44
702.476	1112.34
702.92	1184.64
703.364	1548.59
703.808	2387.44
704.252	2961.49
704.696	3088.24
705.14	2903.04
705.584	3934.79
706.027	2214.94
706.471	1118.69
706.915	840.39
707.359	745.19
707.803	710.84
708.246	675.99
708.69	685.64
709.134	662.14
709.577	673.59
710.021	676.39
710.465	674.49
710.908	669.34
711.352	700.49
711.795	781.84
712.239	832.89
712.682	861.89
713.126	847.44
713.569	944.74
714.012	785.79
714.456	699.29
714.899	654.24
715.342	603.49
715.786	578.09
716.229	562.14
716.672	552.29
717.115	548.19
717.558	554.49
718.002	568.74
718.445	603.49
718.888	631.54
719.331	651.79
719.774	655.64
720.217	640.54
720.66	606.24
721.103	567.99
721.546	539.84
721.989	526.69
722.432	522.34
722.874	518.19
723.317	532.59
723.76	577.39
724.203	712.94
724.645	944.29
725.088	1103.54
725.531	1074.84
725.974	1168.49
726.416	1051.14
726.859	656.59
727.301	542.39
727.744	511.09
728.187	516.09
728.629	525.39
729.071	552.99
729.514	571.09
729.956	599.44
730.399	607.24
730.841	607.09
731.283	587.49
731.726	569.79
732.168	573.99
732.61	613.94
733.053	660.49
733.495	725.59
733.937	812.29
734.379	956.49
734.821	1220.24
735.263	1954.29
735.705	3516.34
736.148	5128.19
736.59	5037.89
737.032	5404.29
737.474	4462.44
737.916	1740.74
738.357	923.64
738.799	718.69
739.241	668.14
739.683	668.09
740.125	675.44
740.567	675.84
741.008	707.84
741.45	741.29
741.892	762.74
742.334	758.34
742.775	746.34
743.217	717.19
743.658	617.99
744.1	631.24
744.542	707.39
744.983	722.79
745.425	757.59
745.866	745.99
746.307	672.24
746.749	730.59
747.19	1060.09
747.632	2071.19
748.073	3851.74
748.514	5247.74
748.956	6950.44
749.397	8043.94
749.838	5538.49
750.279	5217.54
750.72	2720.84
751.162	1161.54
751.603	666.19
752.044	533.44
752.485	476.29
752.926	449.39
753.367	433.29
753.808	421.14
754.249	414.19
754.69	411.24
755.131	402.39
755.572	402.44
756.013	406.54
756.453	402.59
756.894	415.19
757.335	420.34
757.776	422.19
758.216	439.94
758.657	465.29
759.098	511.54
759.538	617.89
759.979	898.74
760.42	1831.99
760.86	4668.54
761.301	9564.14
761.741	11082.29
762.182	12538.09
762.622	8108.44
763.063	2957.54
763.503	1319.59
763.943	1030.09
764.384	1137.64
764.824	1083.99
765.264	1078.79
765.705	759.54
766.145	525.14
766.585	466.34
767.025	504.54
767.465	663.94
767.906	814.84
768.346	852.24
768.786	873.89
769.226	885.09
769.666	1497.54
770.106	3230.94
770.546	4481.59
770.986	4995.04
771.426	3768.34
771.866	1599.54
772.306	732.54
772.745	466.04
773.185	406.09
773.625	414.49
774.065	490.24
774.505	822.99
774.944	1685.09
775.384	2530.04
775.824	2855.04
776.263	2315.74
776.703	1131.54
777.142	565.39
777.582	385.24
778.021	335.44
778.461	323.99
778.9	306.99
779.34	280.79
779.779	270.74
780.219	260.09
780.658	254.44
781.097	254.44
781.537	239.29
781.976	242.59
782.415	244.29
782.855	245.09
783.294	243.24
783.733	236.74
784.172	244.99
784.611	242.14
785.05	250.49
785.489	257.29
785.928	252.04
786.367	269.64
786.806	281.24
787.245	302.84
787.684	311.99
788.123	300.34
788.562	290.54
789.001	277.34
789.44	275.69
789.879	274.74
790.317	277.14
790.756	298.19
791.195	339.29
791.634	462.44
792.072	834.34
792.511	2055.59
792.95	3728.14
793.388	4441.24
793.827	2888.14
794.265	1337.74
794.704	641.34
795.142	395.24
795.581	324.49
796.019	289.59
796.458	289.44
796.896	297.54
797.334	343.29
797.773	462.99
798.211	894.19
798.649	1856.19
799.087	3088.39
799.526	4347.69
799.964	4448.74
800.402	3042.99
800.84	1391.69
801.278	679.59
801.716	411.84
802.154	336.09
802.592	317.94
803.03	317.24
803.468	327.54
803.906	333.39
804.344	319.34
804.782	309.64
805.22	312.74
805.658	328.14
806.096	346.94
806.533	383.54
806.971	501.94
807.409	725.24
807.847	1451.94
808.284	3707.99
808.722	6451.79
809.16	8981.39
809.597	12264.79
810.035	14733.39
810.472	9642.24
810.91	4139.19
811.347	1866.19
811.785	875.74
812.222	549.74
812.66	420.49
813.097	354.24
813.535	317.69
813.972	288.94
814.409	262.39
814.846	253.89
815.284	235.19
815.721	240.24
816.158	263.84
816.595	334.09
817.032	414.59
817.47	388.79
817.907	315.84
818.344	269.49
818.781	250.24
819.218	296.84
819.655	420.29
820.092	525.89
820.529	492.24
820.966	409.64
821.403	302.89
821.839	265.49
822.276	276.29
822.713	314.59
823.15	300.64
823.587	332.74
824.023	606.99
824.46	1509.49
824.897	2606.59
825.333	2013.69
825.77	937.99
826.206	485.64
826.643	284.74
827.08	221.99
827.516	188.49
827.953	182.64
828.389	168.09
828.825	156.04
829.262	151.89
829.698	149.99
830.135	138.74
830.571	142.09
831.007	142.64
831.443	142.84
831.88	155.79
832.316	158.54
832.752	155.34
833.188	155.64
833.624	151.74
834.06	157.74
834.497	149.19
834.933	157.34
835.369	173.99
835.805	182.34
836.241	193.29
836.677	207.09
837.112	239.59
837.548	296.89
837.984	446.54
838.42	956.74
838.856	2659.99
839.292	5185.29
839.727	3811.54
840.163	2601.59
840.599	3959.34
841.034	6004.04
841.47	2979.24
841.906	1478.59
842.341	841.79
842.777	755.44
843.212	895.69
843.648	522.94
844.083	319.59
844.519	219.49
844.954	168.39
845.39	150.04
845.825	141.39
846.261	139.64
846.696	137.49
847.131	127.89
847.566	132.44
848.002	132.79
848.437	146.14
848.872	150.09
849.307	184.74
849.742	335.29
850.177	870.94
850.613	1826.59
851.048	1288.84
851.483	605.59
851.918	341.74
852.353	198.89
852.788	156.44
853.223	127.19
853.657	118.19
854.092	107.84
854.527	106.64
854.962	111.14
855.397	119.44
855.832	104.34
856.266	98.24
856.701	95.24
857.136	97.34
857.57	109.54
858.005	131.14
858.44	119.09
858.874	112.24
859.309	117.49
859.743	114.14
860.178	111.09
860.612	121.94
861.047	154.39
861.481	195.99
861.915	138.69
862.35	110.49
862.784	94.74
863.218	88.14
863.653	93.94
864.087	117.89
864.521	154.39
864.955	254.44
865.39	429.09
865.824	312.29
866.258	356.04
866.692	509.09
867.126	376.99
867.56	205.44
867.994	144.39
868.428	121.84
868.862	140.24
869.296	126.99
869.73	160.89
870.164	134.84
870.598	122.74
871.031	97.99
871.465	88.29
871.899	72.94
872.333	67.04
872.766	67.54
873.2	69.14
873.634	65.44
874.067	70.84
874.501	68.64
874.935	71.84
875.368	70.64
875.802	66.54
876.235	60.64
876.669	58.59
877.102	52.74
877.535	57.79
877.969	52.69
878.402	59.44
878.836	52.79
879.269	55.04
879.702	54.19
880.135	59.24
880.569	64.44
881.002	56.99
881.435	55.44
881.868	54.99
882.301	52.84
882.734	49.94
883.167	51.84
883.601	49.74
884.034	47.99
884.467	45.74
884.899	46.04
885.332	42.59
885.765	45.09
886.198	39.19
886.631	42.64
887.064	44.69
887.497	45.59
887.929	47.14
888.362	46.39
888.795	41.44
889.228	49.34
889.66	43.69
890.093	38.09
890.526	44.54
890.958	40.99
891.391	43.19
891.823	45.99
892.256	41.49
892.688	45.24
893.121	37.74
893.553	45.14
893.985	40.24
894.418	37.94
894.85	40.64
895.282	39.99
895.715	36.64
896.147	33.69
896.579	35.74
897.011	39.64
897.444	39.79
897.876	32.39
898.308	35.99
898.74	41.79
899.172	40.94
899.604	40.64
900.036	39.99
900.468	36.64
900.9	43.64
901.332	54.04
901.764	48.79
902.196	42.79
902.628	50.44
903.06	67.94
903.491	74.54
903.923	58.94
904.355	59.94
904.787	66.14
905.218	54.99
905.65	50.99
906.082	52.19
906.513	49.99
906.945	48.79
907.376	51.74
907.808	54.29
908.239	59.04
908.671	57.99
909.102	64.79
909.534	88.44
909.965	172.84
910.397	431.09
910.828	1230.99
911.259	748.74
911.691	406.84
912.122	235.14
912.553	121.09
912.984	66.29
913.415	58.99
913.847	54.79
914.278	51.29
914.709	47.89
915.14	41.44
915.571	42.39
916.002	35.44
916.433	36.84
916.864	37.59
917.295	39.49
917.726	44.59
918.157	61.54
918.587	57.89
919.018	54.04
919.449	52.19
919.88	61.79
920.311	92.99
920.741	260.74
921.172	444.14
921.603	224.79
922.033	145.64
922.464	90.89
922.895	63.44
923.325	39.79
923.756	43.84
924.186	64.14
924.617	107.69
925.047	171.14
925.478	152.59
925.908	111.64
926.338	76.44
926.769	56.84
927.199	45.54
927.629	38.44
928.06	37.34
928.49	40.69
928.92	35.19
929.35	29.74
929.78	23.09
930.21	21.84
930.641	17.49
931.071	20.99
931.501	19.94
931.931	18.64
932.361	21.49
932.791	29.34
933.221	24.14
933.651	34.84
934.08	56.49
934.51	38.34
934.94	30.19
935.37	23.54
935.8	18.74
936.229	20.59
936.659	14.34
937.089	25.14
937.519	43.94
937.948	58.34
938.378	35.09
938.807	20.04
939.237	17.49
939.666	19.19
940.096	14.14
940.525	10.99
940.955	15.14
941.384	11.74
941.814	12.44
942.243	12.54
942.672	5.99
943.102	9.64
943.531	5.54
943.96	4.84
944.39	8.19
944.819	13.44
945.248	7.14
945.677	14.34
946.106	7.44
946.535	10.54
946.964	11.34
947.393	10.29
947.822	9.54
948.251	13.84
948.68	8.89
949.109	6.44
949.538	9.34
949.967	10.64
950.396	7.09
950.825	12.74
951.254	7.84
951.682	5.99
952.111	7.19
952.54	3.89
952.969	8.09
953.397	7.29
953.826	7.14
954.254	12.69
954.683	8.79
955.112	16.54
955.54	7.79
955.969	9.79
956.397	8.19
956.826	2.54
957.254	6.59
957.682	7.69
958.111	8.29
958.539	5.09
958.967	10.24
959.396	9.19
959.824	4.54
960.252	6.44
960.68	8.89
961.109	6.59
961.537	11.19
961.965	5.04
962.393	5.14
962.821	9.14
963.249	10.59
963.677	16.94
964.105	74.14
964.533	132.39
964.961	66.69
965.389	38.99
965.817	22.14
966.245	11.49
966.672	9.94
967.1	10.34
967.528	2.84
967.956	4.74
968.383	7.24
968.811	1.19
969.239	6.39
969.666	10.19
970.094	5.99
970.522	-0.46
970.949	2.49
971.377	-1.06
971.804	3.69
972.232	4.34
972.659	4.89
973.087	9.44
973.514	1.64
973.941	1.04
974.369	-0.21
974.796	6.29
975.223	3.69
975.651	6.09
976.078	7.74
976.505	13.64
976.932	33.99
977.359	34.34
977.786	24.39
978.214	16.89
978.641	5.74
979.068	7.39
979.495	2.99
979.922	5.34
980.349	5.69
980.776	6.79
981.202	5.69
981.629	9.54
982.056	6.19
982.483	-4.06
982.91	7.94
983.337	4.59
983.763	2.29
984.19	8.24
984.617	2.94
985.043	3.89
985.47	6.79
985.897	5.34
986.323	5.94
986.75	3.49
987.176	5.34
987.603	4.39
988.029	2.44
988.456	7.14
988.882	0.44
989.308	-0.61
989.735	3.34
990.161	5.79
990.587	2.54
991.014	4.64
991.44	4.14
991.866	5.64
992.292	4.89
992.719	2.14
993.145	3.94
993.571	5.64
993.997	6.79
994.423	6.24
994.849	0.04
995.275	1.64
995.701	2.99
996.127	-2.16
996.553	6.04
996.979	2.84
997.405	3.79
997.83	4.89
998.256	7.19
998.682	-0.21
999.108	1.74
999.534	1.59
999.959	1.29
1000.385	7.14
1000.811	2.44
1001.236	-4.96
1001.662	-0.96
1002.087	4.19
1002.513	5.09
1002.938	-1.76
1003.364	-1.51
1003.789	-0.41
1004.215	0.44
1004.64	2.69
1005.066	6.59
1005.491	3.34
1005.916	8.14
1006.342	2.59
1006.767	7.59
1007.192	5.14
1007.617	2.84
1008.042	4.39
1008.468	2.94
1008.893	6.44
1009.318	8.64
1009.743	13.84
1010.168	18.44
1010.593	20.24
1011.018	9.19
1011.443	5.09
1011.868	3.69
1012.293	5.59
1012.718	0.69
1013.143	1.29
1013.567	8.09
1013.992	3.14
1014.417	4.54
1014.842	-2.76
1015.267	2.24
1015.691	6.74
1016.116	0.84
1016.541	4.24
1016.965	4.29
1017.39	3.69
1017.814	-1.11
1018.239	2.69
1018.663	-4.76
1019.088	-3.11
1019.512	9.64
1019.937	-2.51
1020.361	2.29
1020.785	-1.66
1021.21	-5.06
1021.634	-0.31
1022.058	3.94
1022.483	-5.66
1022.907	-1.61
1023.331	-3.06
1023.755	-0.46
1024.179	1.79
1024.604	-0.66
1025.028	1.04
1025.452	4.59
1025.876	3.44
1026.3	0.39
1026.724	-2.56
1027.148	1.59
1027.572	0.89
1027.996	3.79
1028.42	1.54
1028.843	-0.61
1029.267	-0.71
1029.691	1.84
1030.115	3.44
1030.539	-5.11
1030.962	-2.36
1031.386	-4.81
1031.81	0.39
1032.233	0.84
1032.657	-8.36
1033.08	-0.41
1033.504	-5.11
1033.927	-3.96
1034.351	-3.36
1034.774	-0.01
1035.198	-0.21
1035.621	2.64
1036.045	-1.86
1036.468	3.14
1036.891	-0.76
1037.315	5.59
1037.738	3.74
1038.161	2.14
1038.584	-1.81
1039.008	-5.41
1039.431	-5.41
1039.854	-7.06
1040.277	4.54
1040.7	-4.61
1041.123	-0.51
1041.546	-1.21
1041.969	1.19
1042.392	1.39
1042.815	-8.41
1043.238	-3.36
1043.661	-1.71
1044.084	1.09
1044.507	-2.66
1044.93	-1.91
1045.352	-0.46
1045.775	-1.56
1046.198	2.29
1046.621	3.49
1047.043	-0.96
1047.466	4.69
1047.889	-2.91
1048.311	1.49
1048.734	-0.71
1049.156	-3.61
1049.579	-1.31
1050.001	-0.36
1050.424	3.19
1050.846	-1.36
1051.269	-1.41
1051.691	-4.96
1052.113	2.69
1052.536	-7.21
1052.958	-2.46
1053.38	-2.61
1053.802	0.09
1054.225	0.59
1054.647	0.39
1055.069	-0.66
1055.491	-1.41
1055.913	0.64
1056.335	-10.01
1056.757	-7.56
1057.179	-0.96
1057.601	-0.71
1058.023	4.49
1058.445	-4.56
1058.867	0.79
1059.289	-0.11
1059.711	-2.91
1060.133	1.14
1060.555	0.49
1060.976	2.59
1061.398	0.94
1061.82	4.19
1062.241	1.64
1062.663	4.24
1063.085	-4.86
1063.506	-5.86
1063.928	-5.41
1064.35	1.19
1064.771	-1.31
1065.193	-2.71
1065.614	-1.56
1066.035	2.54
1066.457	4.39
1066.878	-0.81
1067.3	-6.41
1067.721	0.64
1068.142	1.54
1068.564	3.44
1068.985	-1.56
1069.406	-5.91
1069.827	-3.66
1070.248	-4.16
1070.67	-3.66
1071.091	-6.51
1071.512	-0.81
1071.933	-5.96
1072.354	-8.36
1072.775	-3.56
1073.196	-0.36
1073.617	-4.46
1074.038	3.04
1074.459	-4.71
1074.88	-4.01
1075.3	-1.31
1075.721	-0.21
1076.142	-3.66
1076.563	-6.31
1076.983	1.94
1077.404	-4.41
1077.825	-0.06
1078.246	-5.51
1078.666	-4.01
1079.087	-3.56
1079.507	-3.51
1079.928	-3.71
1080.348	-4.76
1080.769	0.99
1081.189	-1.81
1081.61	-4.91
1082.03	-0.01
1082.451	-2.76
1082.871	-5.81
1083.291	-0.61
1083.711	-2.01
1084.132	-2.11
1084.552	-8.36
1084.972	-6.96
1085.392	-3.41
1085.813	-1.26
1086.233	-1.11
1086.653	-0.81
1087.073	-2.71
1087.493	-2.01
1087.913	-4.51
1088.333	-1.66
1088.753	0.09
1089.173	1.44
1089.593	2.74
1090.013	-3.16
1090.433	-6.46
1090.852	-3.36
1091.272	-3.91
1091.692	-2.11
1092.112	-7.21
1092.531	-5.91
1092.951	-0.36
1093.371	-1.56
1093.79	-4.91
1094.21	-4.26
1094.63	0.84
1095.049	-2.71
1095.469	-5.61
1095.888	-0.96
1096.308	0.29
1096.727	-6.41
1097.146	-5.31
1097.566	-1.26
1097.985	-4.96
1098.405	-2.56
1098.824	1.99
1099.243	-4.46
1099.662	-2.96
1100.082	-4.51
1100.501	0.59
1100.92	2.54
1101.339	1.74
1101.758	1.04
