Data from MSPlasma+Separation6_Subt14_10-15-35-164.txt Node
Date: Fri Jul 21 10:15:35 EDT 2017
User: Ender
Spectrometer: HR+D1039
Trigger mode: 0
Integration Time (sec): 2.510000E-3
Scans to average: 20
Electric dark correction enabled: true
Nonlinearity correction enabled: false
Boxcar width: 0
XAxis mode: Wavelengths
Number of Pixels in Spectrum: 2048
>>>>>Begin Spectral Data<<<<<
187.836	0.03
188.309	0.03
188.782	0.03
189.255	0.23
189.728	5.43
190.201	-0.17
190.674	-0.37
191.147	-3.12
191.619	1.08
192.092	-1.42
192.565	-1.52
193.038	-0.22
193.511	3.28
193.984	0.63
194.456	-3.62
194.929	-0.57
195.402	-2.22
195.874	2.58
196.347	5.03
196.82	-0.52
197.292	0.23
197.765	-1.02
198.237	0.18
198.71	-2.27
199.182	1.03
199.655	0.23
200.127	1.13
200.6	1.93
201.072	-1.57
201.544	-0.02
202.017	-2.97
202.489	1.28
202.961	-1.87
203.433	-2.62
203.906	0.48
204.378	-1.32
204.85	1.03
205.322	-2.02
205.794	1.63
206.266	-3.57
206.739	2.53
207.211	-5.07
207.683	-1.42
208.155	-0.87
208.627	1.08
209.099	0.58
209.57	-3.07
210.042	2.68
210.514	0.38
210.986	4.58
211.458	5.73
211.93	4.63
212.402	0.98
212.873	-3.02
213.345	-3.02
213.817	-0.12
214.288	-0.87
214.76	0.38
215.232	0.08
215.703	-3.62
216.175	-0.02
216.646	4.48
217.118	-1.32
217.589	-1.17
218.061	-3.17
218.532	-6.12
219.004	-2.27
219.475	4.28
219.946	15.03
220.418	17.68
220.889	12.48
221.36	8.03
221.832	6.98
222.303	2.53
222.774	1.58
223.245	-2.27
223.717	-2.12
224.188	4.48
224.659	0.68
225.13	0.58
225.601	-1.32
226.072	2.08
226.543	2.93
227.014	-1.17
227.485	3.53
227.956	6.93
228.427	9.73
228.898	5.28
229.369	4.13
229.839	1.33
230.31	4.03
230.781	1.53
231.252	8.98
231.722	10.83
232.193	13.33
232.664	15.93
233.135	25.73
233.605	30.38
234.076	24.43
234.546	10.73
235.017	21.03
235.487	14.13
235.958	15.38
236.428	30.23
236.899	41.88
237.369	54.18
237.84	38.83
238.31	48.83
238.78	40.28
239.251	48.28
239.721	46.33
240.191	32.23
240.662	18.13
241.132	16.93
241.602	20.48
242.072	35.88
242.542	37.93
243.013	21.58
243.483	24.28
243.953	14.23
244.423	20.83
244.893	26.63
245.363	24.28
245.833	23.58
246.303	25.48
246.773	37.33
247.243	32.83
247.712	36.23
248.182	47.13
248.652	48.68
249.122	74.98
249.592	152.33
250.061	223.38
250.531	359.93
251.001	276.28
251.471	233.03
251.94	169.78
252.41	91.98
252.879	59.33
253.349	45.13
253.818	35.23
254.288	30.38
254.757	34.98
255.227	41.93
255.696	38.03
256.166	34.53
256.635	39.68
257.105	41.88
257.574	57.78
258.043	59.08
258.513	110.98
258.982	139.78
259.451	93.63
259.92	97.08
260.389	87.58
260.859	60.43
261.328	77.28
261.797	110.58
262.266	99.93
262.735	43.03
263.204	25.83
263.673	20.53
264.142	19.08
264.611	23.73
265.08	27.88
265.549	26.33
266.018	17.68
266.487	20.88
266.955	24.28
267.424	27.33
267.893	28.78
268.362	28.38
268.83	19.68
269.299	22.93
269.768	30.08
270.236	35.88
270.705	45.58
271.174	36.78
271.642	40.53
272.111	52.73
272.579	90.78
273.048	134.38
273.516	177.18
273.985	174.68
274.453	133.88
274.922	77.38
275.39	44.33
275.858	43.23
276.327	36.88
276.795	37.33
277.263	42.88
277.731	55.63
278.2	118.48
278.668	150.48
279.136	120.58
279.604	73.13
280.072	42.78
280.54	31.73
281.008	36.78
281.477	38.23
281.945	36.93
282.413	44.18
282.881	38.63
283.348	43.13
283.816	41.28
284.284	44.88
284.752	46.23
285.22	48.33
285.688	51.33
286.156	92.73
286.623	263.38
287.091	515.38
287.559	270.98
288.026	101.63
288.494	62.88
288.962	48.98
289.429	45.83
289.897	40.53
290.364	37.13
290.832	40.38
291.3	38.28
291.767	43.98
292.234	46.18
292.702	44.58
293.169	53.23
293.637	53.03
294.104	53.88
294.571	48.13
295.039	52.93
295.506	44.38
295.973	51.13
296.44	43.43
296.908	54.08
297.375	67.18
297.842	65.38
298.309	49.73
298.776	52.88
299.243	50.33
299.71	50.73
300.177	47.98
300.644	57.78
301.111	67.08
301.578	58.33
302.045	52.53
302.512	51.63
302.979	52.98
303.446	57.78
303.913	56.68
304.379	67.73
304.846	71.08
305.313	84.08
305.78	101.08
306.246	120.28
306.713	129.73
307.18	113.28
307.646	123.13
308.113	105.18
308.579	82.13
309.046	80.78
309.512	79.38
309.979	70.58
310.445	64.18
310.912	70.58
311.378	67.18
311.845	71.43
312.311	62.43
312.777	60.83
313.244	68.88
313.71	75.23
314.176	83.78
314.642	92.93
315.109	114.98
315.575	103.53
316.041	96.98
316.507	87.13
316.973	96.93
317.439	97.78
317.905	111.88
318.371	109.98
318.837	104.38
319.303	105.58
319.769	91.08
320.235	111.63
320.701	131.38
321.167	139.13
321.633	166.88
322.099	239.13
322.564	330.13
323.03	255.48
323.496	173.98
323.962	157.93
324.427	153.43
324.893	129.18
325.359	126.28
325.824	106.73
326.29	113.93
326.755	112.48
327.221	114.88
327.686	119.88
328.152	104.23
328.617	104.73
329.083	101.53
329.548	106.48
330.014	109.63
330.479	128.83
330.944	145.23
331.41	171.03
331.875	165.88
332.34	169.43
332.805	198.33
333.271	259.48
333.736	350.63
334.201	312.23
334.666	230.13
335.131	260.33
335.596	201.08
336.061	215.63
336.526	214.38
336.991	184.38
337.456	201.48
337.921	159.13
338.386	126.03
338.851	111.58
339.316	97.13
339.781	94.58
340.246	103.13
340.711	103.33
341.175	103.28
341.64	104.43
342.105	105.73
342.569	117.63
343.034	121.23
343.499	129.53
343.963	123.93
344.428	120.53
344.893	126.43
345.357	132.28
345.822	121.63
346.286	125.13
346.751	132.13
347.215	126.83
347.679	137.38
348.144	148.08
348.608	141.18
349.073	150.28
349.537	170.48
350.001	158.68
350.465	152.18
350.93	141.18
351.394	144.38
351.858	143.93
352.322	149.23
352.786	150.88
353.25	145.38
353.715	143.63
354.179	159.88
354.643	162.33
355.107	170.63
355.571	177.83
356.035	185.63
356.498	178.68
356.962	193.58
357.426	190.18
357.89	168.18
358.354	157.28
358.818	154.93
359.281	158.78
359.745	170.78
360.209	163.68
360.673	169.38
361.136	169.28
361.6	171.93
362.064	182.63
362.527	190.28
362.991	187.63
363.454	186.03
363.918	190.68
364.381	183.48
364.845	178.03
365.308	176.13
365.772	177.73
366.235	180.98
366.698	190.18
367.162	237.43
367.625	274.88
368.088	213.68
368.552	188.28
369.015	187.78
369.478	204.98
369.941	213.03
370.404	211.33
370.867	227.58
371.331	239.13
371.794	235.03
372.257	266.68
372.72	284.43
373.183	270.73
373.646	272.73
374.109	278.28
374.572	325.98
375.035	391.18
375.497	282.53
375.96	222.18
376.423	204.73
376.886	205.78
377.349	213.43
377.811	217.63
378.274	222.68
378.737	219.38
379.199	229.68
379.662	232.88
380.125	251.13
380.587	279.03
381.05	303.58
381.512	297.23
381.975	289.43
382.437	287.58
382.9	280.93
383.362	285.63
383.825	306.13
384.287	391.58
384.75	444.13
385.212	392.83
385.674	315.53
386.136	279.88
386.599	279.13
387.061	285.83
387.523	298.08
387.985	304.38
388.447	313.93
388.91	368.83
389.372	448.78
389.834	425.43
390.296	337.93
390.758	335.53
391.22	340.08
391.682	431.03
392.144	667.38
392.606	629.78
393.068	373.13
393.529	331.58
393.991	321.28
394.453	311.83
394.915	329.03
395.377	402.63
395.838	505.28
396.3	349.98
396.762	266.63
397.224	256.48
397.685	248.58
398.147	254.63
398.608	252.68
399.07	260.68
399.531	252.13
399.993	253.03
400.454	255.58
400.916	252.23
401.377	259.23
401.839	269.73
402.3	264.53
402.762	279.33
403.223	318.38
403.684	322.18
404.145	285.98
404.607	285.18
405.068	286.18
405.529	292.58
405.99	295.48
406.451	301.33
406.913	295.18
407.374	294.38
407.835	303.78
408.296	316.73
408.757	315.28
409.218	328.93
409.679	327.28
410.14	333.08
410.601	350.23
411.062	362.63
411.522	428.33
411.983	476.08
412.444	399.48
412.905	337.98
413.366	338.98
413.826	343.48
414.287	383.13
414.748	452.08
415.208	458.63
415.669	390.63
416.13	349.78
416.59	343.68
417.051	357.43
417.511	369.03
417.972	403.98
418.432	436.23
418.893	473.03
419.353	455.63
419.814	352.18
420.274	317.98
420.734	320.28
421.195	345.13
421.655	359.13
422.115	342.93
422.576	324.78
423.036	332.53
423.496	348.93
423.956	361.48
424.416	388.48
424.876	429.73
425.336	435.58
425.797	429.23
426.257	437.93
426.717	413.13
427.177	385.63
427.637	403.03
428.097	429.63
428.556	443.83
429.016	487.43
429.476	484.73
429.936	471.93
430.396	456.48
430.856	466.73
431.315	475.53
431.775	514.03
432.235	533.88
432.694	552.83
433.154	519.33
433.614	493.83
434.073	480.33
434.533	440.13
434.993	420.08
435.452	424.23
435.912	405.38
436.371	407.33
436.83	412.88
437.29	413.08
437.749	395.63
438.209	385.08
438.668	387.78
439.127	386.78
439.587	382.48
440.046	366.23
440.505	374.78
440.964	369.73
441.424	379.93
441.883	381.73
442.342	370.78
442.801	348.03
443.26	363.33
443.719	358.53
444.178	350.58
444.637	359.58
445.096	354.08
445.555	370.83
446.014	370.88
446.473	358.48
446.932	356.78
447.391	363.18
447.849	367.88
448.308	364.08
448.767	376.73
449.226	382.83
449.685	390.13
450.143	399.83
450.602	398.63
451.061	385.78
451.519	392.68
451.978	404.68
452.436	423.83
452.895	395.48
453.353	381.68
453.812	390.98
454.27	387.28
454.729	367.43
455.187	366.68
455.646	371.98
456.104	376.98
456.562	371.28
457.021	373.13
457.479	358.03
457.937	363.03
458.395	378.98
458.854	362.33
459.312	361.13
459.77	365.58
460.228	376.68
460.686	373.98
461.144	377.83
461.602	371.23
462.06	369.13
462.518	385.53
462.976	375.98
463.434	388.73
463.892	392.43
464.35	393.18
464.808	401.73
465.266	406.68
465.724	419.23
466.181	414.18
466.639	409.88
467.097	424.88
467.555	443.43
468.012	441.58
468.47	444.33
468.928	457.98
469.385	466.88
469.843	466.63
470.3	470.53
470.758	490.08
471.215	496.83
471.673	507.33
472.13	520.73
472.588	533.68
473.045	532.68
473.503	541.73
473.96	560.88
474.417	578.23
474.875	606.03
475.332	622.83
475.789	635.28
476.246	653.18
476.704	685.03
477.161	706.13
477.618	723.33
478.075	771.83
478.532	838.63
478.989	915.28
479.446	1009.53
479.903	1085.33
480.36	1201.28
480.817	1297.23
481.274	1392.03
481.731	1533.88
482.188	1661.48
482.645	1800.53
483.102	1916.08
483.558	2057.18
484.015	2173.48
484.472	2177.03
484.929	2105.48
485.385	2010.03
485.842	1946.78
486.299	1829.68
486.755	1642.58
487.212	1460.73
487.668	1299.18
488.125	1185.38
488.582	1093.08
489.038	1035.93
489.494	996.13
489.951	949.68
490.407	926.83
490.864	912.43
491.32	886.98
491.776	868.43
492.233	866.03
492.689	857.83
493.145	840.63
493.602	832.83
494.058	869.78
494.514	873.38
494.97	868.88
495.426	882.83
495.882	892.63
496.338	883.23
496.794	921.23
497.251	928.28
497.707	929.88
498.163	932.88
498.618	934.78
499.074	938.68
499.53	954.08
499.986	977.53
500.442	988.43
500.898	979.93
501.354	993.98
501.809	1002.53
502.265	1023.38
502.721	1080.93
503.177	1109.73
503.632	1043.23
504.088	1053.58
504.543	1163.68
504.999	1075.68
505.455	938.83
505.91	881.18
506.366	869.18
506.821	865.93
507.277	860.78
507.732	859.53
508.187	860.58
508.643	866.03
509.098	873.43
509.553	875.83
510.009	894.33
510.464	906.83
510.919	913.28
511.375	924.78
511.83	934.03
512.285	953.08
512.74	973.18
513.195	982.93
513.65	1004.78
514.105	1022.18
514.56	1014.73
515.015	1045.93
515.47	1058.63
515.925	1057.38
516.38	1045.88
516.835	1044.53
517.29	1047.68
517.745	1046.88
518.2	1033.18
518.655	1002.88
519.109	979.28
519.564	976.08
520.019	971.63
520.474	959.38
520.928	945.18
521.383	951.08
521.838	949.78
522.292	935.88
522.747	925.23
523.201	923.03
523.656	909.08
524.11	904.48
524.565	900.93
525.019	913.53
525.474	917.88
525.928	915.68
526.382	900.03
526.837	898.43
527.291	893.98
527.745	892.13
528.2	890.98
528.654	876.78
529.108	883.78
529.562	885.38
530.016	884.53
530.47	895.38
530.925	893.23
531.379	881.88
531.833	903.73
532.287	900.93
532.741	889.38
533.195	890.63
533.649	889.18
534.103	890.03
534.556	880.43
535.01	891.03
535.464	888.88
535.918	893.48
536.372	903.13
536.826	896.58
537.279	894.58
537.733	884.08
538.187	889.28
538.64	898.08
539.094	902.38
539.548	908.13
540.001	904.53
540.455	911.63
540.908	915.48
541.362	924.18
541.815	935.03
542.269	967.53
542.722	952.68
543.175	954.28
543.629	964.53
544.082	973.43
544.536	984.43
544.989	984.48
545.442	983.58
545.895	985.83
546.349	984.28
546.802	992.53
547.255	988.48
547.708	994.63
548.161	1002.88
548.614	994.93
549.067	1011.53
549.52	1003.93
549.973	993.78
550.426	988.28
550.879	972.73
551.332	975.48
551.785	982.98
552.238	986.53
552.691	986.73
553.144	1005.08
553.596	1022.03
554.049	1026.93
554.502	1048.08
554.955	1067.03
555.407	1090.83
555.86	1073.58
556.313	1067.98
556.765	1057.53
557.218	1044.63
557.67	1050.18
558.123	1018.98
558.576	1018.13
559.028	1011.78
559.48	1030.58
559.933	1026.03
560.385	989.08
560.838	971.43
561.29	942.08
561.742	931.28
562.195	917.93
562.647	912.03
563.099	914.58
563.551	912.53
564.004	919.03
564.456	914.93
564.908	885.88
565.36	875.23
565.812	860.63
566.264	851.93
566.716	841.73
567.168	829.63
567.62	825.83
568.072	821.08
568.524	812.48
568.976	808.53
569.428	795.58
569.88	802.03
570.332	802.03
570.784	796.73
571.235	794.83
571.687	800.23
572.139	803.43
572.59	807.58
573.042	810.48
573.494	809.43
573.945	794.23
574.397	780.53
574.849	777.53
575.3	788.03
575.752	770.98
576.203	766.73
576.655	768.93
577.106	758.18
577.557	761.68
578.009	754.88
578.46	763.63
578.912	752.93
579.363	757.73
579.814	757.68
580.265	756.23
580.717	748.68
581.168	751.33
581.619	755.48
582.07	764.08
582.521	762.33
582.972	754.58
583.423	772.73
583.875	794.93
584.326	826.98
584.777	924.63
585.227	1019.68
585.678	1093.98
586.129	1110.73
586.58	1133.43
587.031	1148.53
587.482	1222.18
587.933	1447.28
588.384	1314.43
588.834	1081.58
589.285	884.83
589.736	862.43
590.186	865.28
590.637	848.33
591.088	831.28
591.538	823.63
591.989	819.48
592.439	812.78
592.89	813.43
593.34	809.23
593.791	826.58
594.241	832.98
594.692	834.03
595.142	826.23
595.593	816.38
596.043	819.53
596.493	825.38
596.943	841.78
597.394	838.18
597.844	817.43
598.294	823.68
598.744	854.13
599.195	893.58
599.645	938.93
600.095	983.88
600.545	1031.78
600.995	1067.53
601.445	1108.53
601.895	1167.73
602.345	1188.13
602.795	1173.38
603.245	1126.38
603.695	1054.58
604.145	1004.53
604.594	959.88
605.044	910.03
605.494	847.63
605.944	822.68
606.393	802.93
606.843	793.03
607.293	799.93
607.743	792.33
608.192	797.58
608.642	796.13
609.091	802.03
609.541	801.18
609.99	799.88
610.44	782.88
610.889	769.53
611.339	770.88
611.788	766.63
612.238	774.73
612.687	780.48
613.136	801.03
613.586	814.53
614.035	810.53
614.484	819.73
614.933	827.03
615.383	814.68
615.832	774.73
616.281	763.23
616.73	748.38
617.179	721.68
617.628	694.08
618.077	689.18
618.526	688.43
618.975	674.63
619.424	661.98
619.873	665.03
620.322	663.58
620.771	663.28
621.22	658.73
621.669	633.73
622.118	636.58
622.567	632.08
623.015	618.43
623.464	623.28
623.913	609.18
624.361	610.23
624.81	611.33
625.259	609.33
625.707	595.73
626.156	599.63
626.604	605.53
627.053	607.83
627.501	599.93
627.95	609.23
628.398	615.28
628.847	607.08
629.295	609.23
629.744	627.08
630.192	640.13
630.64	704.78
631.089	781.63
631.537	835.68
631.985	841.53
632.433	871.28
632.881	870.08
633.33	1062.68
633.778	1165.03
634.226	799.58
634.674	731.38
635.122	719.63
635.57	731.38
636.018	866.18
636.466	698.48
636.914	595.63
637.362	594.43
637.81	596.23
638.258	622.43
638.705	623.03
639.153	638.63
639.601	647.43
640.049	660.83
640.497	684.68
640.944	691.48
641.392	660.58
641.84	632.63
642.287	609.03
642.735	601.03
643.182	594.53
643.63	602.83
644.078	603.43
644.525	611.78
644.973	623.58
645.42	640.73
645.867	651.73
646.315	667.48
646.762	686.53
647.21	710.68
647.657	755.58
648.104	791.88
648.551	828.53
648.999	905.48
649.446	993.88
649.893	1136.43
650.34	1354.08
650.787	1690.38
651.234	2212.48
651.682	3136.53
652.129	4578.28
652.576	6632.38
653.023	8931.18
653.47	10470.23
653.917	11346.83
654.363	11803.33
654.81	12561.23
655.257	12671.98
655.704	8590.33
656.151	4979.93
656.598	3176.93
657.044	2237.03
657.491	1726.68
657.938	1386.83
658.385	1159.48
658.831	1010.08
659.278	897.18
659.724	806.98
660.171	750.98
660.618	693.48
661.064	650.28
661.511	626.98
661.957	602.08
662.404	588.53
662.85	574.93
663.296	559.48
663.743	547.53
664.189	541.48
664.635	541.23
665.082	521.38
665.528	517.78
665.974	508.13
666.42	505.38
666.867	516.28
667.313	521.23
667.759	552.73
668.205	551.83
668.651	569.08
669.097	548.78
669.543	597.48
669.989	563.13
670.435	476.18
670.881	463.83
671.327	492.63
671.773	516.23
672.219	547.53
672.665	589.63
673.11	606.53
673.556	604.33
674.002	620.53
674.448	628.08
674.893	529.88
675.339	469.38
675.785	434.23
676.23	417.38
676.676	403.83
677.122	396.43
677.567	378.73
678.013	363.88
678.458	370.33
678.904	365.48
679.349	354.18
679.794	359.08
680.24	363.93
680.685	358.63
681.131	353.63
681.576	354.43
682.021	365.08
682.466	364.38
682.912	366.33
683.357	382.28
683.802	413.28
684.247	449.93
684.692	473.53
685.137	495.68
685.583	503.33
686.028	534.28
686.473	502.73
686.918	436.88
687.363	393.73
687.807	383.83
688.252	371.68
688.697	354.53
689.142	342.28
689.587	341.28
690.032	358.78
690.477	364.23
690.921	380.38
691.366	404.33
691.811	416.13
692.255	451.58
692.7	537.43
693.145	782.98
693.589	1163.98
694.034	1368.18
694.478	1447.38
694.923	1333.43
695.367	1838.33
695.812	1156.33
696.256	506.33
696.701	372.23
697.145	347.63
697.59	335.38
698.034	333.28
698.478	334.63
698.922	336.53
699.367	346.08
699.811	359.38
700.255	392.43
700.699	424.08
701.143	464.73
701.588	480.33
702.032	494.48
702.476	506.53
702.92	537.98
703.364	713.98
703.808	1069.43
704.252	1316.03
704.696	1370.08
705.14	1291.08
705.584	1738.43
706.027	1018.48
706.471	520.33
706.915	388.58
707.359	350.78
707.803	328.03
708.246	312.98
708.69	318.43
709.134	316.28
709.577	313.83
710.021	318.43
710.465	319.18
710.908	309.93
711.352	323.78
711.795	354.48
712.239	384.08
712.682	395.28
713.126	393.28
713.569	435.03
714.012	368.03
714.456	325.78
714.899	298.73
715.342	279.53
715.786	265.53
716.229	266.23
716.672	256.58
717.115	258.53
717.558	260.98
718.002	265.53
718.445	274.53
718.888	289.13
719.331	297.58
719.774	305.73
720.217	287.83
720.66	274.63
721.103	270.33
721.546	248.08
721.989	250.23
722.432	245.48
722.874	245.68
723.317	249.28
723.76	263.78
724.203	330.28
724.645	428.83
725.088	505.23
725.531	485.83
725.974	530.13
726.416	488.88
726.859	305.93
727.301	250.78
727.744	239.43
728.187	240.78
728.629	241.93
729.071	253.18
729.514	261.73
729.956	275.83
730.399	276.53
730.841	276.18
731.283	268.98
731.726	258.63
732.168	262.98
732.61	282.78
733.053	304.08
733.495	336.78
733.937	372.08
734.379	438.73
734.821	557.83
735.263	883.78
735.705	1547.43
736.148	2212.98
736.59	2202.78
737.032	2384.13
737.474	1981.48
737.916	800.98
738.357	421.63
738.799	329.13
739.241	304.33
739.683	302.98
740.125	313.43
740.567	308.23
741.008	327.08
741.45	338.23
741.892	344.38
742.334	346.83
742.775	338.48
743.217	320.33
743.658	282.58
744.1	295.73
744.542	317.78
744.983	329.68
745.425	339.83
745.866	341.08
746.307	309.08
746.749	335.38
747.19	483.28
747.632	938.48
748.073	1683.88
748.514	2275.88
748.956	3027.48
749.397	3508.13
749.838	2433.88
750.279	2302.98
750.72	1231.38
751.162	521.53
751.603	303.53
752.044	246.18
752.485	215.28
752.926	208.18
753.367	199.68
753.808	198.13
754.249	195.18
754.69	189.53
755.131	189.58
755.572	179.88
756.013	186.18
756.453	184.43
756.894	189.53
757.335	186.58
757.776	188.58
758.216	203.68
758.657	213.98
759.098	234.08
759.538	286.73
759.979	416.18
760.42	818.93
760.86	2035.03
761.301	4147.98
761.741	4801.48
762.182	5512.63
762.622	3555.83
763.063	1363.98
763.503	609.23
763.943	489.48
764.384	540.53
764.824	517.38
765.264	517.48
765.705	359.38
766.145	251.38
766.585	221.28
767.025	237.18
767.465	319.83
767.906	394.38
768.346	407.33
768.786	421.88
769.226	414.93
769.666	686.63
770.106	1427.93
770.546	1954.48
770.986	2191.33
771.426	1676.98
771.866	727.58
772.306	342.73
772.745	215.23
773.185	190.43
773.625	193.08
774.065	222.63
774.505	397.38
774.944	791.38
775.384	1177.48
775.824	1330.53
776.263	1092.68
776.703	536.83
777.142	267.68
777.582	179.83
778.021	169.08
778.461	148.83
778.9	149.28
779.34	133.28
779.779	122.63
780.219	125.33
780.658	117.78
781.097	119.68
781.537	116.08
781.976	115.88
782.415	115.68
782.855	116.38
783.294	114.33
783.733	107.48
784.172	113.33
784.611	106.53
785.05	111.33
785.489	115.93
785.928	120.13
786.367	125.38
786.806	128.58
787.245	144.68
787.684	144.63
788.123	139.93
788.562	134.73
789.001	127.88
789.44	129.68
789.879	128.73
790.317	128.78
790.756	139.23
791.195	154.38
791.634	212.63
792.072	384.58
792.511	928.38
792.95	1634.03
793.388	1938.03
793.827	1294.88
794.265	604.53
794.704	297.28
795.142	186.83
795.581	149.78
796.019	136.73
796.458	133.83
796.896	139.43
797.334	158.38
797.773	211.08
798.211	408.58
798.649	835.63
799.087	1378.88
799.526	1905.68
799.964	1951.83
800.402	1359.93
800.84	626.28
801.278	315.68
801.716	196.43
802.154	149.58
802.592	147.68
803.03	145.43
803.468	149.83
803.906	151.18
804.344	142.08
804.782	144.78
805.22	146.58
805.658	149.28
806.096	158.43
806.533	173.28
806.971	224.73
807.409	327.33
807.847	658.58
808.284	1627.63
808.722	2780.68
809.16	3926.63
809.597	5353.28
810.035	6550.58
810.472	4193.53
810.91	1848.38
811.347	838.03
811.785	396.43
812.222	246.88
812.66	191.83
813.097	165.58
813.535	146.83
813.972	131.83
814.409	123.83
814.846	113.38
815.284	109.13
815.721	110.33
816.158	119.53
816.595	150.88
817.032	183.08
817.47	167.58
817.907	130.83
818.344	117.68
818.781	112.53
819.218	129.58
819.655	184.78
820.092	224.88
820.529	220.68
820.966	182.68
821.403	137.38
821.839	118.78
822.276	126.48
822.713	144.73
823.15	139.73
823.587	151.28
824.023	276.03
824.46	685.88
824.897	1164.28
825.333	893.13
825.77	425.03
826.206	222.03
826.643	131.88
827.08	103.33
827.516	90.13
827.953	81.53
828.389	81.48
828.825	77.93
829.262	70.68
829.698	66.63
830.135	57.48
830.571	65.58
831.007	67.28
831.443	71.88
831.88	66.73
832.316	72.33
832.752	67.33
833.188	71.08
833.624	71.08
834.06	70.28
834.497	69.33
834.933	74.23
835.369	81.98
835.805	88.88
836.241	89.98
836.677	98.03
837.112	110.98
837.548	136.98
837.984	202.83
838.42	431.08
838.856	1177.63
839.292	2245.13
839.727	1667.03
840.163	1169.88
840.599	1735.98
841.034	2579.63
841.47	1332.83
841.906	660.48
842.341	385.48
842.777	349.23
843.212	423.68
843.648	242.53
844.083	153.38
844.519	101.43
844.954	80.93
845.39	67.88
845.825	61.73
846.261	62.83
846.696	60.48
847.131	56.63
847.566	58.08
848.002	59.08
848.437	65.38
848.872	61.88
849.307	83.78
849.742	149.33
850.177	393.58
850.613	819.78
851.048	589.93
851.483	272.58
851.918	157.13
852.353	94.13
852.788	71.08
853.223	64.68
853.657	52.48
854.092	53.93
854.527	50.23
854.962	49.18
855.397	56.18
855.832	47.28
856.266	40.58
856.701	38.73
857.136	41.73
857.57	48.68
858.005	57.98
858.44	49.83
858.874	53.03
859.309	53.18
859.743	55.53
860.178	51.38
860.612	51.53
861.047	70.78
861.481	90.48
861.915	66.08
862.35	49.88
862.784	41.08
863.218	38.28
863.653	43.73
864.087	49.48
864.521	63.88
864.955	112.28
865.39	192.48
865.824	139.98
866.258	155.48
866.692	221.43
867.126	164.28
867.56	93.13
867.994	59.98
868.428	49.93
868.862	64.18
869.296	54.83
869.73	72.83
870.164	58.53
870.598	56.28
871.031	45.73
871.465	39.43
871.899	32.73
872.333	31.43
872.766	34.93
873.2	35.98
873.634	30.98
874.067	36.03
874.501	35.23
874.935	30.38
875.368	36.38
875.802	32.78
876.235	25.93
876.669	30.28
877.102	22.43
877.535	24.28
877.969	23.48
878.402	29.23
878.836	30.13
879.269	23.13
879.702	23.13
880.135	31.58
880.569	30.58
881.002	22.33
881.435	26.98
881.868	24.43
882.301	20.23
882.734	19.33
883.167	29.13
883.601	22.63
884.034	28.43
884.467	19.93
884.899	21.13
885.332	16.38
885.765	21.58
886.198	19.03
886.631	24.18
887.064	18.38
887.497	15.88
887.929	22.08
888.362	23.48
888.795	19.98
889.228	24.88
889.66	20.68
890.093	21.68
890.526	21.88
890.958	21.28
891.391	23.48
891.823	19.03
892.256	21.33
892.688	23.63
893.121	16.08
893.553	20.73
893.985	13.88
894.418	16.43
894.85	20.08
895.282	19.28
895.715	17.88
896.147	19.13
896.579	14.83
897.011	18.48
897.444	21.68
897.876	15.28
898.308	16.78
898.74	19.73
899.172	22.78
899.604	17.33
900.036	19.68
900.468	11.83
900.9	18.78
901.332	20.43
901.764	22.63
902.196	25.53
902.628	19.08
903.06	29.13
903.491	25.38
903.923	18.93
904.355	26.38
904.787	27.23
905.218	27.73
905.65	24.58
906.082	26.58
906.513	19.78
906.945	22.13
907.376	25.13
907.808	28.53
908.239	28.38
908.671	27.53
909.102	27.93
909.534	42.33
909.965	79.63
910.397	193.43
910.828	544.08
911.259	332.33
911.691	179.83
912.122	107.73
912.553	52.23
912.984	25.53
913.415	26.23
913.847	21.13
914.278	27.18
914.709	21.88
915.14	22.33
915.571	23.98
916.002	19.48
916.433	17.48
916.864	17.38
917.295	16.23
917.726	20.28
918.157	27.13
918.587	26.08
919.018	24.58
919.449	20.28
919.88	27.08
920.311	39.53
920.741	113.78
921.172	200.28
921.603	98.48
922.033	60.43
922.464	41.88
922.895	29.13
923.325	20.53
923.756	20.03
924.186	32.83
924.617	47.83
925.047	85.93
925.478	69.88
925.908	48.03
926.338	34.33
926.769	25.33
927.199	24.83
927.629	17.08
928.06	17.38
928.49	19.38
928.92	13.48
929.35	12.68
929.78	10.18
930.21	11.68
930.641	4.83
931.071	10.53
931.501	8.93
931.931	6.38
932.361	6.43
932.791	7.83
933.221	11.03
933.651	19.13
934.08	25.68
934.51	12.43
934.94	11.93
935.37	11.58
935.8	7.08
936.229	6.03
936.659	6.68
937.089	10.33
937.519	17.83
937.948	24.68
938.378	18.98
938.807	9.98
939.237	10.93
939.666	7.38
940.096	5.68
940.525	-0.22
940.955	6.23
941.384	1.23
941.814	3.48
942.243	5.48
942.672	0.43
943.102	0.28
943.531	-1.67
943.96	4.88
944.39	2.68
944.819	10.88
945.248	0.68
945.677	-0.42
946.106	3.78
946.535	3.98
946.964	6.88
947.393	0.73
947.822	3.43
948.251	3.88
948.68	3.63
949.109	0.88
949.538	3.93
949.967	2.18
950.396	4.63
950.825	3.93
951.254	8.53
951.682	1.03
952.111	-0.07
952.54	1.28
952.969	3.83
953.397	0.38
953.826	2.98
954.254	3.08
954.683	1.13
955.112	5.68
955.54	4.78
955.969	0.58
956.397	1.68
956.826	1.23
957.254	-1.32
957.682	1.13
958.111	2.73
958.539	4.38
958.967	3.43
959.396	6.53
959.824	1.08
960.252	4.68
960.68	0.88
961.109	6.18
961.537	7.53
961.965	-0.07
962.393	1.93
962.821	-0.87
963.249	1.88
963.677	4.33
964.105	32.88
964.533	55.73
964.961	24.58
965.389	15.73
965.817	7.58
966.245	7.23
966.672	2.73
967.1	0.63
967.528	0.38
967.956	1.58
968.383	0.53
968.811	-3.77
969.239	1.98
969.666	0.78
970.094	3.68
970.522	-2.17
970.949	0.73
971.377	-6.32
971.804	-2.82
972.232	0.63
972.659	2.48
973.087	4.63
973.514	-3.67
973.941	0.43
974.369	-3.27
974.796	-2.37
975.223	0.03
975.651	5.73
976.078	6.78
976.505	3.48
976.932	11.83
977.359	15.73
977.786	12.13
978.214	5.93
978.641	2.68
979.068	3.73
979.495	-0.92
979.922	2.73
980.349	-0.27
980.776	-0.92
981.202	0.58
981.629	7.48
982.056	2.08
982.483	-3.47
982.91	6.33
983.337	-6.27
983.763	1.18
984.19	5.48
984.617	2.78
985.043	2.83
985.47	2.98
985.897	-1.77
986.323	6.63
986.75	-1.57
987.176	-0.67
987.603	7.48
988.029	4.98
988.456	3.58
988.882	1.08
989.308	-3.17
989.735	-3.42
990.161	2.98
990.587	-2.97
991.014	-1.77
991.44	-0.82
991.866	0.98
992.292	-0.12
992.719	-2.07
993.145	3.38
993.571	-0.82
993.997	6.33
994.423	8.13
994.849	-7.27
995.275	1.13
995.701	1.88
996.127	-4.52
996.553	1.73
996.979	-3.82
997.405	3.88
997.83	0.48
998.256	5.03
998.682	-0.82
999.108	3.48
999.534	-3.57
999.959	-2.47
1000.385	5.08
1000.811	-2.72
1001.236	0.03
1001.662	-1.82
1002.087	6.68
1002.513	0.78
1002.938	-4.67
1003.364	2.93
1003.789	1.63
1004.215	-5.62
1004.64	0.63
1005.066	-0.87
1005.491	6.78
1005.916	0.08
1006.342	1.98
1006.767	1.53
1007.192	3.68
1007.617	-1.87
1008.042	-0.67
1008.468	-0.62
1008.893	-1.97
1009.318	0.63
1009.743	2.53
1010.168	13.33
1010.593	10.78
1011.018	2.68
1011.443	2.88
1011.868	2.63
1012.293	1.98
1012.718	-0.22
1013.143	0.28
1013.567	3.93
1013.992	-1.07
1014.417	1.38
1014.842	-0.07
1015.267	-0.02
1015.691	3.63
1016.116	2.93
1016.541	0.53
1016.965	-5.07
1017.39	1.93
1017.814	-3.47
1018.239	-0.67
1018.663	-5.72
1019.088	-4.77
1019.512	2.03
1019.937	-2.42
1020.361	4.73
1020.785	-1.02
1021.21	0.03
1021.634	-1.77
1022.058	-0.62
1022.483	-4.72
1022.907	-5.02
1023.331	-3.42
1023.755	-3.97
1024.179	-0.42
1024.604	1.88
1025.028	3.78
1025.452	-1.77
1025.876	3.58
1026.3	0.33
1026.724	-4.67
1027.148	0.93
1027.572	-3.27
1027.996	0.23
1028.42	-1.92
1028.843	1.53
1029.267	-0.77
1029.691	1.03
1030.115	2.73
1030.539	-2.27
1030.962	-1.37
1031.386	-1.82
1031.81	0.03
1032.233	-3.97
1032.657	-6.67
1033.08	-1.57
1033.504	0.53
1033.927	-1.32
1034.351	-2.22
1034.774	-1.67
1035.198	-5.97
1035.621	1.93
1036.045	-0.62
1036.468	3.63
1036.891	-2.07
1037.315	6.83
1037.738	-0.62
1038.161	3.13
1038.584	1.68
1039.008	-4.32
1039.431	-5.32
1039.854	-7.57
1040.277	1.98
1040.7	-3.67
1041.123	4.53
1041.546	-0.37
1041.969	3.38
1042.392	5.53
1042.815	-6.62
1043.238	-2.47
1043.661	-2.97
1044.084	-0.12
1044.507	-0.72
1044.93	-1.12
1045.352	-2.47
1045.775	-1.27
1046.198	5.63
1046.621	2.58
1047.043	-0.12
1047.466	0.38
1047.889	-0.92
1048.311	4.68
1048.734	-0.92
1049.156	-2.12
1049.579	1.73
1050.001	-5.17
1050.424	-3.12
1050.846	-2.67
1051.269	-6.32
1051.691	-4.47
1052.113	-4.87
1052.536	-3.67
1052.958	-4.92
1053.38	-3.02
1053.802	-0.72
1054.225	-1.02
1054.647	2.18
1055.069	-0.77
1055.491	1.33
1055.913	0.98
1056.335	-8.72
1056.757	-5.32
1057.179	-0.12
1057.601	-3.32
1058.023	-0.87
1058.445	-5.07
1058.867	5.23
1059.289	1.13
1059.711	0.58
1060.133	1.33
1060.555	-2.07
1060.976	-0.82
1061.398	2.38
1061.82	-0.72
1062.241	-2.72
1062.663	-2.92
1063.085	-5.77
1063.506	-3.92
1063.928	-4.97
1064.35	0.23
1064.771	-2.12
1065.193	-1.42
1065.614	-4.97
1066.035	5.73
1066.457	-0.67
1066.878	0.33
1067.3	-6.82
1067.721	0.88
1068.142	2.68
1068.564	0.48
1068.985	-2.07
1069.406	-7.17
1069.827	1.78
1070.248	-4.07
1070.67	-6.27
1071.091	-3.97
1071.512	-2.97
1071.933	-3.57
1072.354	-8.72
1072.775	0.68
1073.196	-2.42
1073.617	-0.77
1074.038	-0.52
1074.459	-3.87
1074.88	-2.87
1075.3	2.13
1075.721	0.03
1076.142	-1.12
1076.563	-7.17
1076.983	-1.57
1077.404	-5.27
1077.825	0.53
1078.246	-8.02
1078.666	-4.77
1079.087	-4.52
1079.507	-5.22
1079.928	-3.57
1080.348	-3.12
1080.769	-2.07
1081.189	-1.62
1081.61	-6.77
1082.03	3.08
1082.451	0.38
1082.871	-5.57
1083.291	-3.57
1083.711	-3.12
1084.132	-2.57
1084.552	-4.02
1084.972	-0.42
1085.392	-5.42
1085.813	-2.97
1086.233	-2.92
1086.653	1.28
1087.073	-4.52
1087.493	-1.47
1087.913	-5.17
1088.333	-4.47
1088.753	-1.07
1089.173	2.13
1089.593	-0.82
1090.013	-3.02
1090.433	-5.07
1090.852	1.43
1091.272	-10.67
1091.692	0.53
1092.112	-2.07
1092.531	-0.82
1092.951	-3.12
1093.371	-2.32
1093.79	0.98
1094.21	-3.97
1094.63	-3.47
1095.049	-4.57
1095.469	-7.37
1095.888	1.78
1096.308	-1.27
1096.727	1.03
1097.146	-7.52
1097.566	-0.32
1097.985	0.78
1098.405	3.13
1098.824	2.68
1099.243	-4.57
1099.662	-1.72
1100.082	-2.67
1100.501	-2.22
1100.92	4.73
1101.339	2.43
1101.758	0.03
