Data from MSPlasma+Separation6_Subt14_10-15-20-727.txt Node
Date: Fri Jul 21 10:15:20 EDT 2017
User: Ender
Spectrometer: HR+D1039
Trigger mode: 0
Integration Time (sec): 6.430000E-3
Scans to average: 20
Electric dark correction enabled: true
Nonlinearity correction enabled: false
Boxcar width: 0
XAxis mode: Wavelengths
Number of Pixels in Spectrum: 2048
>>>>>Begin Spectral Data<<<<<
187.836	-0.09
188.309	-0.09
188.782	-0.09
189.255	2.36
189.728	2.16
190.201	-3.79
190.674	-0.89
191.147	-0.49
191.619	1.86
192.092	0.41
192.565	-3.19
193.038	1.86
193.511	4.16
193.984	2.06
194.456	2.76
194.929	-3.49
195.402	-2.49
195.874	-3.14
196.347	1.56
196.82	2.31
197.292	-1.69
197.765	-0.79
198.237	-3.24
198.71	-5.39
199.182	-2.09
199.655	2.96
200.127	0.16
200.6	1.31
201.072	5.21
201.544	-1.14
202.017	4.81
202.489	-1.29
202.961	0.31
203.433	-2.24
203.906	0.46
204.378	1.86
204.85	0.36
205.322	5.26
205.794	7.91
206.266	3.16
206.739	4.36
207.211	2.21
207.683	4.46
208.155	2.81
208.627	3.76
209.099	5.01
209.57	4.61
210.042	7.16
210.514	9.66
210.986	16.61
211.458	17.76
211.93	9.66
212.402	3.26
212.873	0.96
213.345	-2.19
213.817	3.46
214.288	-0.69
214.76	0.96
215.232	2.46
215.703	2.31
216.175	4.21
216.646	1.96
217.118	3.21
217.589	0.26
218.061	2.46
218.532	3.01
219.004	10.26
219.475	16.86
219.946	25.91
220.418	33.41
220.889	24.51
221.36	14.96
221.832	11.51
222.303	8.31
222.774	5.66
223.245	2.66
223.717	4.81
224.188	8.06
224.659	1.91
225.13	3.51
225.601	7.56
226.072	9.96
226.543	10.01
227.014	7.26
227.485	10.21
227.956	7.36
228.427	12.41
228.898	8.76
229.369	9.46
229.839	11.26
230.31	16.61
230.781	15.11
231.252	25.96
231.722	25.01
232.193	34.36
232.664	39.81
233.135	53.46
233.605	61.21
234.076	47.61
234.546	35.46
235.017	39.56
235.487	42.01
235.958	40.26
236.428	60.96
236.899	92.91
237.369	109.76
237.84	79.31
238.31	103.01
238.78	105.26
239.251	105.06
239.721	101.86
240.191	76.91
240.662	50.46
241.132	36.16
241.602	48.26
242.072	71.76
242.542	84.06
243.013	56.01
243.483	51.16
243.953	34.96
244.423	39.71
244.893	48.51
245.363	51.51
245.833	50.46
246.303	58.86
246.773	79.01
247.243	79.81
247.712	87.76
248.182	107.41
248.652	107.01
249.122	165.16
249.592	306.71
250.061	458.81
250.531	733.11
251.001	559.11
251.471	461.91
251.94	348.51
252.41	188.01
252.879	128.41
253.349	101.01
253.818	82.61
254.288	71.21
254.757	72.81
255.227	96.56
255.696	80.86
256.166	69.31
256.635	75.16
257.105	93.91
257.574	119.66
258.043	121.51
258.513	226.41
258.982	282.31
259.451	197.66
259.92	195.31
260.389	181.06
260.859	137.41
261.328	159.41
261.797	229.56
262.266	207.21
262.735	95.06
263.204	59.21
263.673	52.71
264.142	46.46
264.611	47.51
265.08	55.26
265.549	57.11
266.018	51.51
266.487	50.81
266.955	49.26
267.424	60.21
267.893	59.91
268.362	61.96
268.83	59.56
269.299	60.61
269.768	69.81
270.236	85.31
270.705	89.36
271.174	91.01
271.642	95.66
272.111	109.21
272.579	185.31
273.048	274.41
273.516	350.66
273.985	360.56
274.453	273.86
274.922	163.91
275.39	103.56
275.858	96.91
276.327	77.31
276.795	85.91
277.263	96.31
277.731	124.16
278.2	238.51
278.668	319.51
279.136	243.51
279.604	157.26
280.072	98.46
280.54	87.06
281.008	90.91
281.477	86.01
281.945	96.11
282.413	93.16
282.881	97.06
283.348	94.51
283.816	98.61
284.284	106.96
284.752	104.46
285.22	109.81
285.688	118.06
286.156	191.36
286.623	520.91
287.091	1022.91
287.559	530.86
288.026	201.51
288.494	133.56
288.962	106.91
289.429	100.31
289.897	98.56
290.364	92.01
290.832	96.16
291.3	95.21
291.767	99.81
292.234	106.66
292.702	104.41
293.169	113.56
293.637	120.36
294.104	115.41
294.571	112.11
295.039	111.51
295.506	110.01
295.973	114.81
296.44	109.41
296.908	122.61
297.375	141.41
297.842	137.21
298.309	115.91
298.776	120.26
299.243	122.36
299.71	116.56
300.177	120.71
300.644	133.81
301.111	142.21
301.578	131.96
302.045	122.56
302.512	119.76
302.979	127.56
303.446	129.16
303.913	139.16
304.379	147.41
304.846	161.91
305.313	181.51
305.78	210.11
306.246	251.21
306.713	272.41
307.18	236.06
307.646	259.56
308.113	222.56
308.579	179.66
309.046	178.51
309.512	176.31
309.979	163.21
310.445	151.91
310.912	155.51
311.378	158.51
311.845	157.46
312.311	151.76
312.777	153.86
313.244	165.66
313.71	171.66
314.176	187.76
314.642	209.86
315.109	242.71
315.575	228.46
316.041	209.86
316.507	194.06
316.973	221.61
317.439	211.01
317.905	235.01
318.371	226.71
318.837	217.11
319.303	233.86
319.769	213.71
320.235	237.26
320.701	271.51
321.167	294.31
321.633	350.41
322.099	487.21
322.564	648.31
323.03	503.41
323.496	353.66
323.962	332.51
324.427	310.11
324.893	274.71
325.359	261.96
325.824	229.41
326.29	243.26
326.755	246.41
327.221	245.06
327.686	263.26
328.152	234.11
328.617	219.66
329.083	219.41
329.548	240.06
330.014	251.56
330.479	270.06
330.944	313.01
331.41	362.61
331.875	344.11
332.34	353.61
332.805	409.01
333.271	520.71
333.736	689.11
334.201	611.96
334.666	459.81
335.131	522.06
335.596	409.91
336.061	445.51
336.526	443.16
336.991	392.46
337.456	417.66
337.921	331.81
338.386	269.96
338.851	249.66
339.316	235.16
339.781	227.71
340.246	226.71
340.711	229.46
341.175	236.41
341.64	244.26
342.105	239.96
342.569	259.96
343.034	278.36
343.499	285.71
343.963	273.06
344.428	269.26
344.893	279.66
345.357	287.81
345.822	273.01
346.286	284.11
346.751	297.71
347.215	286.16
347.679	293.91
348.144	311.71
348.608	317.76
349.073	325.56
349.537	363.01
350.001	354.91
350.465	335.91
350.93	324.36
351.394	320.96
351.858	323.56
352.322	335.51
352.786	337.81
353.25	327.81
353.715	329.11
354.179	350.26
354.643	372.61
355.107	374.86
355.571	388.91
356.035	398.76
356.498	390.46
356.962	421.76
357.426	413.36
357.89	371.26
358.354	353.96
358.818	347.86
359.281	359.36
359.745	377.81
360.209	365.46
360.673	365.91
361.136	371.06
361.6	368.91
362.064	400.71
362.527	410.46
362.991	403.66
363.454	403.56
363.918	412.16
364.381	408.91
364.845	392.36
365.308	394.01
365.772	390.11
366.235	396.86
366.698	418.21
367.162	505.76
367.625	556.46
368.088	453.96
368.552	414.91
369.015	418.76
369.478	450.56
369.941	456.46
370.404	462.36
370.867	493.01
371.331	497.76
371.794	506.86
372.257	561.06
372.72	591.66
373.183	565.11
373.646	574.66
374.109	576.06
374.572	666.91
375.035	774.36
375.497	592.36
375.96	482.91
376.423	449.96
376.886	456.16
377.349	468.46
377.811	465.86
378.274	474.86
378.737	487.01
379.199	499.16
379.662	509.16
380.125	551.96
380.587	590.31
381.05	636.76
381.512	633.31
381.975	611.61
382.437	604.86
382.9	609.16
383.362	604.21
383.825	651.06
384.287	808.61
384.75	902.96
385.212	795.91
385.674	663.01
386.136	602.01
386.599	599.71
387.061	629.41
387.523	650.66
387.985	649.16
388.447	672.66
388.91	746.96
389.372	909.06
389.834	852.71
390.296	714.76
390.758	721.51
391.22	743.66
391.682	896.01
392.144	1370.81
392.606	1277.71
393.068	774.21
393.529	705.81
393.991	685.81
394.453	678.46
394.915	709.71
395.377	855.46
395.838	1032.86
396.3	740.06
396.762	593.21
397.224	566.71
397.685	558.61
398.147	561.16
398.608	569.46
399.07	564.06
399.531	557.81
399.993	572.31
400.454	582.41
400.916	579.51
401.377	592.81
401.839	600.16
402.3	598.61
402.762	628.96
403.223	694.01
403.684	709.16
404.145	650.06
404.607	633.46
405.068	633.26
405.529	648.76
405.99	657.71
406.451	658.91
406.913	647.31
407.374	659.96
407.835	660.86
408.296	681.46
408.757	687.71
409.218	707.76
409.679	716.91
410.14	730.26
410.601	761.31
411.062	788.31
411.522	897.91
411.983	991.26
412.444	852.26
412.905	750.01
413.366	753.01
413.826	781.61
414.287	873.86
414.748	1041.46
415.208	1058.41
415.669	887.01
416.13	812.96
416.59	794.76
417.051	822.26
417.511	858.11
417.972	915.11
418.432	983.31
418.893	1102.96
419.353	1044.31
419.814	797.81
420.274	722.66
420.734	721.86
421.195	774.56
421.655	800.06
422.115	776.51
422.576	748.71
423.036	750.46
423.496	784.46
423.956	816.71
424.416	873.26
424.876	985.31
425.336	988.51
425.797	979.81
426.257	983.11
426.717	916.96
427.177	859.06
427.637	884.41
428.097	936.56
428.556	977.21
429.016	1061.01
429.476	1043.26
429.936	1009.91
430.396	981.01
430.856	990.46
431.315	1019.96
431.775	1092.86
432.235	1149.76
432.694	1173.41
433.154	1103.86
433.614	1064.41
434.073	1024.66
434.533	945.21
434.993	908.76
435.452	920.71
435.912	906.81
436.371	892.21
436.83	900.21
437.29	921.96
437.749	872.61
438.209	858.51
438.668	867.21
439.127	876.36
439.587	858.16
440.046	828.41
440.505	845.06
440.964	843.06
441.424	866.06
441.883	886.86
442.342	838.06
442.801	802.41
443.26	825.11
443.719	820.61
444.178	805.76
444.637	821.61
445.096	817.41
445.555	841.11
446.014	843.21
446.473	812.46
446.932	813.56
447.391	830.51
447.849	849.36
448.308	837.71
448.767	856.86
449.226	879.56
449.685	878.91
450.143	923.41
450.602	921.46
451.061	886.06
451.519	908.91
451.978	919.16
452.436	957.16
452.895	907.81
453.353	879.76
453.812	888.51
454.27	880.36
454.729	848.51
455.187	863.11
455.646	866.16
456.104	876.16
456.562	867.76
457.021	862.91
457.479	823.76
457.937	850.51
458.395	874.46
458.854	858.01
459.312	848.11
459.77	859.81
460.228	878.76
460.686	881.76
461.144	886.66
461.602	871.66
462.06	873.91
462.518	888.86
462.976	896.26
463.434	906.01
463.892	913.71
464.35	931.36
464.808	955.31
465.266	947.26
465.724	963.31
466.181	964.21
466.639	965.66
467.097	1011.41
467.555	1040.81
468.012	1033.61
468.47	1046.81
468.928	1076.11
469.385	1108.46
469.843	1120.46
470.3	1111.06
470.758	1139.16
471.215	1163.31
471.673	1185.81
472.13	1216.26
472.588	1242.31
473.045	1242.11
473.503	1254.16
473.96	1310.01
474.417	1333.36
474.875	1389.91
475.332	1444.71
475.789	1464.11
476.246	1507.01
476.704	1571.76
477.161	1611.66
477.618	1654.81
478.075	1753.01
478.532	1880.41
478.989	2019.41
479.446	2229.71
479.903	2347.26
480.36	2560.41
480.817	2746.56
481.274	2934.41
481.731	3214.06
482.188	3444.66
482.645	3724.36
483.102	3929.86
483.558	4219.66
484.015	4422.16
484.472	4430.41
484.929	4293.31
485.385	4111.81
485.842	3994.16
486.299	3799.91
486.755	3451.31
487.212	3080.61
487.668	2768.61
488.125	2570.26
488.582	2382.56
489.038	2297.91
489.494	2227.41
489.951	2164.21
490.407	2112.06
490.864	2087.21
491.32	2042.26
491.776	2007.56
492.233	2012.26
492.689	1980.61
493.145	1958.11
493.602	1948.61
494.058	1983.31
494.514	2012.71
494.97	2016.56
495.426	2050.46
495.882	2057.06
496.338	2063.06
496.794	2160.81
497.251	2170.51
497.707	2159.61
498.163	2172.51
498.618	2168.71
499.074	2179.01
499.53	2218.91
499.986	2260.16
500.442	2286.26
500.898	2285.01
501.354	2307.76
501.809	2322.26
502.265	2361.66
502.721	2476.96
503.177	2524.81
503.632	2400.21
504.088	2423.51
504.543	2635.91
504.999	2482.81
505.455	2208.56
505.91	2094.96
506.366	2089.71
506.821	2080.26
507.277	2051.06
507.732	2064.06
508.187	2049.66
508.643	2077.46
509.098	2075.31
509.553	2112.96
510.009	2128.16
510.464	2172.06
510.919	2186.71
511.375	2227.66
511.83	2253.76
512.285	2292.36
512.74	2346.86
513.195	2382.46
513.65	2423.71
514.105	2451.66
514.56	2464.81
515.015	2509.91
515.47	2537.61
515.925	2540.71
516.38	2526.06
516.835	2508.51
517.29	2507.76
517.745	2511.96
518.2	2477.16
518.655	2400.46
519.109	2370.96
519.564	2346.96
520.019	2326.81
520.474	2307.01
520.928	2280.96
521.383	2279.81
521.838	2273.46
522.292	2245.51
522.747	2211.46
523.201	2206.26
523.656	2182.21
524.11	2175.81
524.565	2173.26
525.019	2184.66
525.474	2193.86
525.928	2168.16
526.382	2161.56
526.837	2138.61
527.291	2160.86
527.745	2141.01
528.2	2143.26
528.654	2123.96
529.108	2128.41
529.562	2142.61
530.016	2122.76
530.47	2138.36
530.925	2136.21
531.379	2149.76
531.833	2178.76
532.287	2146.21
532.741	2136.56
533.195	2136.41
533.649	2140.26
534.103	2136.41
534.556	2126.21
535.01	2142.91
535.464	2139.26
535.918	2164.71
536.372	2169.71
536.826	2149.51
537.279	2128.76
537.733	2138.61
538.187	2157.61
538.64	2151.81
539.094	2164.46
539.548	2203.81
540.001	2177.36
540.455	2192.01
540.908	2209.46
541.362	2231.71
541.815	2251.26
542.269	2299.21
542.722	2291.56
543.175	2315.21
543.629	2330.26
544.082	2348.76
544.536	2366.66
544.989	2362.26
545.442	2383.66
545.895	2371.96
546.349	2379.06
546.802	2395.11
547.255	2379.56
547.708	2405.11
548.161	2427.86
548.614	2434.31
549.067	2446.96
549.52	2423.76
549.973	2397.61
550.426	2395.91
550.879	2358.16
551.332	2360.21
551.785	2384.76
552.238	2408.71
552.691	2405.26
553.144	2438.26
553.596	2471.26
554.049	2508.46
554.502	2573.81
554.955	2617.11
555.407	2638.46
555.86	2613.16
556.313	2591.61
556.765	2558.16
557.218	2524.71
557.67	2529.46
558.123	2489.66
558.576	2465.46
559.028	2471.01
559.48	2508.06
559.933	2491.66
560.385	2424.06
560.838	2329.36
561.29	2255.71
561.742	2268.36
562.195	2211.51
562.647	2196.21
563.099	2206.81
563.551	2175.91
564.004	2204.26
564.456	2182.81
564.908	2145.66
565.36	2093.26
565.812	2053.21
566.264	2035.96
566.716	2014.11
567.168	1971.41
567.62	1987.66
568.072	1970.71
568.524	1946.31
568.976	1937.76
569.428	1914.36
569.88	1914.76
570.332	1922.26
570.784	1918.31
571.235	1917.51
571.687	1928.91
572.139	1932.91
572.59	1955.31
573.042	1955.01
573.494	1959.36
573.945	1926.21
574.397	1893.96
574.849	1881.36
575.3	1903.26
575.752	1863.21
576.203	1858.01
576.655	1864.86
577.106	1836.46
577.557	1832.26
578.009	1816.91
578.46	1822.56
578.912	1792.71
579.363	1819.16
579.814	1806.66
580.265	1816.96
580.717	1815.06
581.168	1811.96
581.619	1816.11
582.07	1832.31
582.521	1822.01
582.972	1825.61
583.423	1850.51
583.875	1889.91
584.326	1980.96
584.777	2159.36
585.227	2366.06
585.678	2532.36
586.129	2585.76
586.58	2628.11
587.031	2649.11
587.482	2827.31
587.933	3291.31
588.384	3017.21
588.834	2495.26
589.285	2119.66
589.736	2073.21
590.186	2075.96
590.637	2050.51
591.088	2009.76
591.538	1979.71
591.989	1965.91
592.439	1958.01
592.89	1946.96
593.34	1944.46
593.791	1958.96
594.241	1958.36
594.692	1991.21
595.142	1971.41
595.593	1938.21
596.043	1940.76
596.493	1967.26
596.943	2005.21
597.394	1991.11
597.844	1969.51
598.294	1992.31
598.744	2063.36
599.195	2159.76
599.645	2285.31
600.095	2412.11
600.545	2516.16
600.995	2620.06
601.445	2717.11
601.895	2849.31
602.345	2933.11
602.795	2888.31
603.245	2761.06
603.695	2587.21
604.145	2444.91
604.594	2323.86
605.044	2218.01
605.494	2076.46
605.944	1968.56
606.393	1942.41
606.843	1916.56
607.293	1906.61
607.743	1907.91
608.192	1931.36
608.642	1915.51
609.091	1932.46
609.541	1922.46
609.99	1917.06
610.44	1865.56
610.889	1850.71
611.339	1835.11
611.788	1818.46
612.238	1840.26
612.687	1859.76
613.136	1885.11
613.586	1922.11
614.035	1928.61
614.484	1943.91
614.933	1953.41
615.383	1911.36
615.832	1848.76
616.281	1811.11
616.73	1753.56
617.179	1711.31
617.628	1671.11
618.077	1640.31
618.526	1615.01
618.975	1608.46
619.424	1570.91
619.873	1579.46
620.322	1564.41
620.771	1566.96
621.22	1545.76
621.669	1515.66
622.118	1501.26
622.567	1492.46
623.015	1462.26
623.464	1462.86
623.913	1439.36
624.361	1444.26
624.81	1437.11
625.259	1429.91
625.707	1413.81
626.156	1430.91
626.604	1434.71
627.053	1448.36
627.501	1437.76
627.95	1441.26
628.398	1468.96
628.847	1451.36
629.295	1454.31
629.744	1470.06
630.192	1515.51
630.64	1620.36
631.089	1783.41
631.537	1864.41
631.985	1856.81
632.433	1932.96
632.881	1914.66
633.33	2299.61
633.778	2516.71
634.226	1774.61
634.674	1642.86
635.122	1653.96
635.57	1664.01
636.018	1931.66
636.466	1584.51
636.914	1411.91
637.362	1409.06
637.81	1425.51
638.258	1465.71
638.705	1472.26
639.153	1512.41
639.601	1530.26
640.049	1556.66
640.497	1606.91
640.944	1642.66
641.392	1565.11
641.84	1464.86
642.287	1411.56
642.735	1401.11
643.182	1378.96
643.63	1384.41
644.078	1389.36
644.525	1415.31
644.973	1431.56
645.42	1450.66
645.867	1475.91
646.315	1503.36
646.762	1556.91
647.21	1587.66
647.657	1673.61
648.104	1746.91
648.551	1797.01
648.999	1942.51
649.446	2124.56
649.893	2384.41
650.34	2801.96
650.787	3469.96
651.234	4497.96
651.682	6285.76
652.129	9005.31
652.576	12839.51
653.023	15483.01
653.47	15540.06
653.917	15540.11
654.363	15540.01
654.81	15537.01
655.257	15537.66
655.704	15294.36
656.151	9587.61
656.598	6220.56
657.044	4443.16
657.491	3470.21
657.938	2827.71
658.385	2391.26
658.831	2116.31
659.278	1907.01
659.724	1749.56
660.171	1627.21
660.618	1517.11
661.064	1425.66
661.511	1381.11
661.957	1328.71
662.404	1311.96
662.85	1305.56
663.296	1282.36
663.743	1259.21
664.189	1240.01
664.635	1229.46
665.082	1206.46
665.528	1201.11
665.974	1170.06
666.42	1168.81
666.867	1185.51
667.313	1189.91
667.759	1244.16
668.205	1241.01
668.651	1246.66
669.097	1207.76
669.543	1324.01
669.989	1248.16
670.435	1102.56
670.881	1098.06
671.327	1130.91
671.773	1217.36
672.219	1310.11
672.665	1394.96
673.11	1429.91
673.556	1450.41
674.002	1484.16
674.448	1505.31
674.893	1268.66
675.339	1117.26
675.785	1030.46
676.23	977.61
676.676	941.66
677.122	921.91
677.567	897.76
678.013	862.61
678.458	860.86
678.904	857.96
679.349	840.51
679.794	852.76
680.24	843.01
680.685	844.26
681.131	834.81
681.576	844.26
682.021	848.71
682.466	855.01
682.912	866.41
683.357	912.76
683.802	984.41
684.247	1084.56
684.692	1152.91
685.137	1185.46
685.583	1208.01
686.028	1265.61
686.473	1197.91
686.918	1035.11
687.363	938.61
687.807	910.01
688.252	860.06
688.697	831.11
689.142	814.96
689.587	809.61
690.032	828.51
690.477	861.11
690.921	910.21
691.366	957.31
691.811	990.96
692.255	1070.56
692.7	1312.16
693.145	1911.06
693.589	2907.91
694.034	3434.31
694.478	3629.66
694.923	3286.21
695.367	4672.06
695.812	2825.06
696.256	1200.11
696.701	896.26
697.145	829.81
697.59	795.01
698.034	787.96
698.478	788.51
698.922	792.76
699.367	814.41
699.811	848.66
700.255	925.56
700.699	1012.86
701.143	1098.86
701.588	1148.06
702.032	1196.46
702.476	1230.71
702.92	1316.41
703.364	1732.66
703.808	2660.61
704.252	3296.96
704.696	3442.86
705.14	3236.61
705.584	4431.46
706.027	2444.71
706.471	1237.06
706.915	925.91
707.359	827.66
707.803	773.86
708.246	748.46
708.69	754.16
709.134	739.26
709.577	742.96
710.021	754.76
710.465	748.21
710.908	737.31
711.352	767.46
711.795	856.31
712.239	923.36
712.682	942.46
713.126	934.51
713.569	1037.56
714.012	858.81
714.456	756.21
714.899	716.16
715.342	661.61
715.786	639.11
716.229	621.51
716.672	605.61
717.115	609.36
717.558	619.46
718.002	633.51
718.445	672.96
718.888	701.56
719.331	712.86
719.774	722.36
720.217	702.26
720.66	670.76
721.103	632.26
721.546	593.96
721.989	581.96
722.432	578.36
722.874	581.76
723.317	582.01
723.76	632.91
724.203	790.71
724.645	1053.31
725.088	1217.36
725.531	1177.11
725.974	1299.41
726.416	1160.11
726.859	725.81
727.301	600.56
727.744	574.41
728.187	570.46
728.629	581.91
729.071	610.11
729.514	625.76
729.956	665.46
730.399	662.31
730.841	665.91
731.283	649.26
731.726	636.61
732.168	639.11
732.61	678.56
733.053	732.11
733.495	805.51
733.937	901.31
734.379	1063.46
734.821	1366.11
735.263	2186.31
735.705	3936.41
736.148	5709.01
736.59	5615.36
737.032	6048.91
737.474	4978.16
737.916	1913.21
738.357	1006.76
738.799	787.46
739.241	730.31
739.683	730.81
740.125	741.81
740.567	742.46
741.008	779.16
741.45	808.16
741.892	838.96
742.334	829.91
742.775	822.21
743.217	777.76
743.658	683.16
744.1	688.51
744.542	766.26
744.983	792.46
745.425	825.46
745.866	818.91
746.307	742.06
746.749	804.76
747.19	1181.21
747.632	2324.86
748.073	4281.41
748.514	5832.46
748.956	7712.01
749.397	8956.11
749.838	6161.16
750.279	5840.41
750.72	3006.51
751.162	1273.06
751.603	735.21
752.044	591.11
752.485	528.16
752.926	498.61
753.367	476.06
753.808	460.71
754.249	452.06
754.69	452.71
755.131	442.81
755.572	445.21
756.013	446.46
756.453	445.11
756.894	456.96
757.335	457.61
757.776	464.56
758.216	478.16
758.657	505.21
759.098	566.81
759.538	683.76
759.979	991.26
760.42	2038.61
760.86	5226.46
761.301	10609.06
761.741	12218.76
762.182	13839.61
762.622	8965.06
763.063	3265.66
763.503	1423.21
763.943	1079.01
764.384	1146.76
764.824	1076.51
765.264	1073.51
765.705	762.06
766.145	560.46
766.585	499.21
767.025	535.21
767.465	686.51
767.906	830.11
768.346	858.66
768.786	899.96
769.226	941.06
769.666	1664.26
770.106	3606.51
770.546	5001.61
770.986	5547.96
771.426	4183.06
771.866	1758.31
772.306	803.91
772.745	516.21
773.185	443.61
773.625	448.26
774.065	526.76
774.505	865.56
774.944	1736.36
775.384	2583.76
775.824	2915.91
776.263	2384.11
776.703	1170.96
777.142	599.21
777.582	409.56
778.021	365.11
778.461	340.06
778.9	332.46
779.34	310.76
779.779	292.36
780.219	285.21
780.658	282.91
781.097	278.76
781.537	272.26
781.976	270.81
782.415	268.01
782.855	263.81
783.294	267.01
783.733	259.86
784.172	269.46
784.611	263.56
785.05	268.66
785.489	281.31
785.928	284.16
786.367	291.76
786.806	313.26
787.245	330.31
787.684	345.56
788.123	334.76
788.562	323.91
789.001	307.46
789.44	301.96
789.879	305.61
790.317	305.91
790.756	328.96
791.195	378.26
791.634	508.76
792.072	925.81
792.511	2296.16
792.95	4150.21
793.388	4937.96
793.827	3165.46
794.265	1463.11
794.704	709.56
795.142	429.06
795.581	357.01
796.019	322.26
796.458	321.41
796.896	328.31
797.334	381.86
797.773	520.51
798.211	998.51
798.649	2078.16
799.087	3465.01
799.526	4856.56
799.964	4927.56
800.402	3349.06
800.84	1533.36
801.278	754.76
801.716	459.86
802.154	379.91
802.592	356.21
803.03	352.36
803.468	362.11
803.906	357.36
804.344	358.01
804.782	347.66
805.22	348.41
805.658	358.81
806.096	384.01
806.533	429.26
806.971	549.91
807.409	812.76
807.847	1622.76
808.284	4172.56
808.722	7136.56
809.16	10045.66
809.597	13554.16
810.035	15524.21
810.472	10603.51
810.91	4549.76
811.347	2044.26
811.785	957.86
812.222	604.46
812.66	465.66
813.097	393.91
813.535	343.16
813.972	319.66
814.409	287.81
814.846	276.36
815.284	263.96
815.721	263.11
816.158	280.26
816.595	361.41
817.032	438.21
817.47	408.11
817.907	323.41
818.344	286.01
818.781	270.36
819.218	318.16
819.655	448.21
820.092	576.66
820.529	530.41
820.966	436.16
821.403	330.61
821.839	289.26
822.276	301.66
822.713	342.56
823.15	339.36
823.587	366.71
824.023	677.16
824.46	1691.96
824.897	2900.31
825.333	2213.06
825.77	1030.01
826.206	544.51
826.643	315.96
827.08	237.76
827.516	211.91
827.953	197.31
828.389	184.91
828.825	173.76
829.262	168.76
829.698	161.86
830.135	158.56
830.571	156.06
831.007	164.91
831.443	164.41
831.88	163.36
832.316	173.71
832.752	170.56
833.188	170.71
833.624	166.51
834.06	173.61
834.497	171.46
834.933	177.81
835.369	186.81
835.805	199.81
836.241	206.91
836.677	229.06
837.112	267.36
837.548	326.86
837.984	492.71
838.42	1072.26
838.856	2966.41
839.292	5747.61
839.727	4176.66
840.163	2893.61
840.599	4409.86
841.034	6641.31
841.47	3270.21
841.906	1628.51
842.341	923.21
842.777	803.16
843.212	928.26
843.648	544.41
844.083	343.41
844.519	234.41
844.954	189.11
845.39	159.76
845.825	158.36
846.261	149.96
846.696	140.31
847.131	143.36
847.566	145.31
848.002	147.41
848.437	154.56
848.872	166.56
849.307	203.81
849.742	373.16
850.177	972.21
850.613	2030.21
851.048	1429.76
851.483	662.06
851.918	377.21
852.353	220.11
852.788	168.36
853.223	148.86
853.657	127.86
854.092	123.96
854.527	114.61
854.962	124.61
855.397	132.71
855.832	114.61
856.266	104.96
856.701	109.16
857.136	108.81
857.57	124.16
858.005	143.76
858.44	129.36
858.874	127.01
859.309	129.06
859.743	127.31
860.178	125.96
860.612	134.91
861.047	164.16
861.481	216.21
861.915	151.71
862.35	119.81
862.784	102.66
863.218	99.61
863.653	109.96
864.087	126.91
864.521	167.41
864.955	284.61
865.39	470.86
865.824	336.21
866.258	389.16
866.692	546.96
867.126	394.96
867.56	223.56
867.994	147.46
868.428	129.31
868.862	149.46
869.296	145.71
869.73	171.06
870.164	145.91
870.598	138.76
871.031	104.41
871.465	96.01
871.899	79.41
872.333	69.86
872.766	73.96
873.2	77.31
873.634	75.66
874.067	83.06
874.501	84.56
874.935	82.21
875.368	85.21
875.802	73.81
876.235	67.56
876.669	63.46
877.102	63.01
877.535	60.36
877.969	61.46
878.402	66.76
878.836	66.36
879.269	60.86
879.702	64.06
880.135	68.96
880.569	74.81
881.002	62.06
881.435	60.31
881.868	58.56
882.301	54.76
882.734	49.06
883.167	58.26
883.601	52.41
884.034	52.56
884.467	50.26
884.899	53.41
885.332	50.11
885.765	48.86
886.198	49.56
886.631	46.76
887.064	49.01
887.497	47.16
887.929	49.81
888.362	49.41
888.795	52.76
889.228	51.46
889.66	50.86
890.093	52.76
890.526	46.91
890.958	49.81
891.391	51.21
891.823	48.31
892.256	47.41
892.688	49.46
893.121	42.91
893.553	47.76
893.985	45.51
894.418	42.81
894.85	47.61
895.282	45.01
895.715	40.66
896.147	35.46
896.579	36.91
897.011	47.16
897.444	44.71
897.876	35.91
898.308	41.36
898.74	45.11
899.172	43.61
899.604	44.26
900.036	46.46
900.468	42.51
900.9	46.86
901.332	55.46
901.764	53.76
902.196	53.96
902.628	56.61
903.06	75.91
903.491	79.31
903.923	65.56
904.355	64.06
904.787	77.06
905.218	56.96
905.65	63.66
906.082	54.91
906.513	53.06
906.945	60.81
907.376	53.91
907.808	62.36
908.239	64.31
908.671	69.56
909.102	71.21
909.534	103.11
909.965	185.61
910.397	477.81
910.828	1351.11
911.259	813.91
911.691	446.71
912.122	261.01
912.553	135.26
912.984	77.11
913.415	67.16
913.847	59.46
914.278	54.31
914.709	51.86
915.14	43.66
915.571	46.96
916.002	44.91
916.433	43.51
916.864	42.96
917.295	46.26
917.726	52.06
918.157	66.36
918.587	63.36
919.018	63.66
919.449	57.26
919.88	66.11
920.311	108.86
920.741	288.81
921.172	497.56
921.603	244.91
922.033	160.21
922.464	97.26
922.895	68.46
923.325	51.01
923.756	49.86
924.186	67.86
924.617	111.76
925.047	177.01
925.478	154.41
925.908	114.16
926.338	79.46
926.769	54.06
927.199	52.46
927.629	38.76
928.06	48.96
928.49	44.86
928.92	38.11
929.35	32.41
929.78	28.16
930.21	30.66
930.641	21.06
931.071	27.31
931.501	27.56
931.931	21.51
932.361	26.41
932.791	30.41
933.221	28.56
933.651	44.06
934.08	64.56
934.51	38.61
934.94	33.41
935.37	27.36
935.8	24.36
936.229	19.61
936.659	21.71
937.089	36.81
937.519	52.66
937.948	68.36
938.378	39.86
938.807	27.06
939.237	20.01
939.666	22.31
940.096	14.46
940.525	10.91
940.955	15.16
941.384	11.06
941.814	16.01
942.243	15.51
942.672	11.01
943.102	9.76
943.531	8.11
943.96	10.96
944.39	9.81
944.819	17.41
945.248	10.51
945.677	14.01
946.106	11.36
946.535	15.11
946.964	11.11
947.393	12.26
947.822	14.31
948.251	18.26
948.68	15.81
949.109	12.71
949.538	10.46
949.967	10.91
950.396	12.61
950.825	4.71
951.254	10.86
951.682	6.51
952.111	6.86
952.54	11.96
952.969	10.86
953.397	6.16
953.826	3.81
954.254	16.31
954.683	10.91
955.112	14.86
955.54	11.86
955.969	7.46
956.397	10.21
956.826	6.36
957.254	6.26
957.682	9.01
958.111	11.06
958.539	7.31
958.967	12.76
959.396	12.91
959.824	7.91
960.252	8.61
960.68	6.41
961.109	13.56
961.537	12.71
961.965	5.56
962.393	11.71
962.821	7.91
963.249	10.61
963.677	19.26
964.105	86.26
964.533	143.81
964.961	66.41
965.389	42.06
965.817	24.61
966.245	14.06
966.672	11.81
967.1	10.61
967.528	4.11
967.956	8.86
968.383	9.21
968.811	5.41
969.239	6.81
969.666	8.86
970.094	5.91
970.522	2.16
970.949	6.31
971.377	0.11
971.804	4.81
972.232	-0.44
972.659	6.86
973.087	7.96
973.514	5.56
973.941	2.56
974.369	2.51
974.796	3.26
975.223	6.81
975.651	8.36
976.078	6.16
976.505	11.06
976.932	33.66
977.359	42.71
977.786	23.46
978.214	21.76
978.641	5.01
979.068	4.96
979.495	3.36
979.922	3.86
980.349	4.16
980.776	8.56
981.202	6.51
981.629	7.71
982.056	7.16
982.483	-0.04
982.91	4.91
983.337	3.81
983.763	5.66
984.19	7.96
984.617	1.21
985.043	7.21
985.47	6.11
985.897	7.16
986.323	6.46
986.75	4.06
987.176	4.86
987.603	3.96
988.029	6.51
988.456	9.46
988.882	5.01
989.308	1.96
989.735	1.86
990.161	2.31
990.587	4.51
991.014	1.96
991.44	5.71
991.866	1.81
992.292	1.81
992.719	4.56
993.145	7.26
993.571	2.51
993.997	9.51
994.423	3.06
994.849	-2.84
995.275	-1.74
995.701	4.96
996.127	0.36
996.553	3.06
996.979	-1.19
997.405	6.11
997.83	4.21
998.256	7.71
998.682	2.96
999.108	2.71
999.534	-1.84
999.959	3.11
1000.385	5.61
1000.811	-0.94
1001.236	-1.99
1001.662	3.96
1002.087	6.56
1002.513	5.76
1002.938	-0.69
1003.364	3.66
1003.789	8.96
1004.215	2.56
1004.64	0.51
1005.066	3.86
1005.491	7.26
1005.916	1.61
1006.342	4.96
1006.767	3.26
1007.192	5.21
1007.617	2.66
1008.042	-3.29
1008.468	5.66
1008.893	8.91
1009.318	12.16
1009.743	13.66
1010.168	23.71
1010.593	21.66
1011.018	12.71
1011.443	6.91
1011.868	8.71
1012.293	7.31
1012.718	-1.24
1013.143	3.61
1013.567	6.76
1013.992	3.91
1014.417	4.96
1014.842	1.61
1015.267	1.56
1015.691	4.31
1016.116	1.86
1016.541	1.56
1016.965	2.41
1017.39	2.81
1017.814	0.81
1018.239	-2.44
1018.663	-7.09
1019.088	-2.99
1019.512	1.26
1019.937	0.01
1020.361	-1.69
1020.785	2.71
1021.21	-1.64
1021.634	2.41
1022.058	4.01
1022.483	-3.19
1022.907	-2.99
1023.331	-2.79
1023.755	-1.99
1024.179	3.91
1024.604	3.06
1025.028	0.71
1025.452	3.36
1025.876	6.31
1026.3	2.26
1026.724	-0.84
1027.148	0.51
1027.572	-0.64
1027.996	6.51
1028.42	5.21
1028.843	1.61
1029.267	-3.04
1029.691	1.61
1030.115	-3.19
1030.539	1.91
1030.962	-2.59
1031.386	0.36
1031.81	-0.04
1032.233	-1.09
1032.657	-5.39
1033.08	4.41
1033.504	3.46
1033.927	6.51
1034.351	-1.09
1034.774	-3.29
1035.198	-2.24
1035.621	0.21
1036.045	-3.14
1036.468	3.66
1036.891	0.11
1037.315	4.86
1037.738	2.31
1038.161	-0.54
1038.584	-3.29
1039.008	1.46
1039.431	-0.74
1039.854	-2.89
1040.277	3.86
1040.7	0.81
1041.123	1.21
1041.546	-0.39
1041.969	4.06
1042.392	0.76
1042.815	-6.94
1043.238	-5.24
1043.661	3.16
1044.084	2.11
1044.507	-0.14
1044.93	-1.89
1045.352	-3.64
1045.775	2.31
1046.198	2.66
1046.621	2.06
1047.043	2.91
1047.466	2.01
1047.889	-0.39
1048.311	4.86
1048.734	0.91
1049.156	-1.84
1049.579	-5.59
1050.001	-6.59
1050.424	-0.49
1050.846	-4.34
1051.269	-4.79
1051.691	2.06
1052.113	-1.59
1052.536	-0.04
1052.958	-2.24
1053.38	1.06
1053.802	-0.14
1054.225	1.91
1054.647	1.26
1055.069	1.51
1055.491	-0.09
1055.913	0.11
1056.335	-6.64
1056.757	-6.34
1057.179	-3.44
1057.601	-5.24
1058.023	1.76
1058.445	-4.94
1058.867	4.66
1059.289	-0.44
1059.711	-3.54
1060.133	0.31
1060.555	-3.14
1060.976	0.61
1061.398	-0.44
1061.82	3.46
1062.241	-4.64
1062.663	0.51
1063.085	-1.44
1063.506	-5.54
1063.928	1.16
1064.35	4.21
1064.771	-0.14
1065.193	-3.24
1065.614	-1.44
1066.035	3.61
1066.457	1.96
1066.878	1.81
1067.3	1.56
1067.721	3.31
1068.142	-1.44
1068.564	1.36
1068.985	1.46
1069.406	-7.29
1069.827	-2.04
1070.248	-3.39
1070.67	-5.09
1071.091	-8.09
1071.512	-1.04
1071.933	-2.94
1072.354	-6.44
1072.775	-0.69
1073.196	1.31
1073.617	-4.49
1074.038	-2.64
1074.459	-4.24
1074.88	-3.69
1075.3	-1.29
1075.721	-1.49
1076.142	1.71
1076.563	-7.79
1076.983	4.66
1077.404	-6.19
1077.825	2.61
1078.246	-6.44
1078.666	-6.49
1079.087	-1.94
1079.507	-2.74
1079.928	-0.34
1080.348	-3.04
1080.769	-2.69
1081.189	-4.29
1081.61	-7.84
1082.03	0.76
1082.451	-1.24
1082.871	-1.04
1083.291	-2.59
1083.711	-1.24
1084.132	-0.84
1084.552	-4.19
1084.972	-7.94
1085.392	-5.19
1085.813	-1.89
1086.233	-1.24
1086.653	4.96
1087.073	-0.59
1087.493	0.61
1087.913	-1.99
1088.333	-3.09
1088.753	-0.54
1089.173	-1.49
1089.593	2.61
1090.013	-0.59
1090.433	-3.99
1090.852	-1.54
1091.272	-6.34
1091.692	-1.89
1092.112	-8.94
1092.531	-4.09
1092.951	0.46
1093.371	0.51
1093.79	-4.24
1094.21	0.71
1094.63	0.11
1095.049	0.61
1095.469	-12.34
1095.888	0.46
1096.308	0.56
1096.727	-1.04
1097.146	-6.24
1097.566	-3.49
1097.985	-2.74
1098.405	0.21
1098.824	2.16
1099.243	-2.49
1099.662	-2.69
1100.082	3.11
1100.501	-2.29
1100.92	3.96
1101.339	1.56
1101.758	4.91
