Data from MSPlasma+Separation6_Subt14_10-14-58-729.txt Node
Date: Fri Jul 21 10:14:58 EDT 2017
User: Ender
Spectrometer: HR+D1039
Trigger mode: 0
Integration Time (sec): 6.430000E-3
Scans to average: 20
Electric dark correction enabled: true
Nonlinearity correction enabled: false
Boxcar width: 0
XAxis mode: Wavelengths
Number of Pixels in Spectrum: 2048
>>>>>Begin Spectral Data<<<<<
187.836	0.25
188.309	0.25
188.782	0.25
189.255	-1.3
189.728	1.55
190.201	-1.25
190.674	2.75
191.147	-3.5
191.619	1.4
192.092	1
192.565	-1.55
193.038	5.35
193.511	2
193.984	-1
194.456	-2.5
194.929	-0.35
195.402	-2.4
195.874	-0.45
196.347	3.45
196.82	0.75
197.292	-1.05
197.765	-2.4
198.237	-2.45
198.71	-3.05
199.182	4.1
199.655	5.2
200.127	3.2
200.6	0.95
201.072	6.75
201.544	-0.1
202.017	4.6
202.489	7.9
202.961	-1.7
203.433	-2
203.906	3.6
204.378	3.65
204.85	4.3
205.322	4.4
205.794	8.9
206.266	11.3
206.739	9.45
207.211	1.1
207.683	1.25
208.155	3.6
208.627	-1.8
209.099	6.55
209.57	8.05
210.042	7.75
210.514	6.7
210.986	17.2
211.458	22.65
211.93	11.25
212.402	7.15
212.873	3.2
213.345	0.8
213.817	6.65
214.288	3.35
214.76	3.3
215.232	4.25
215.703	2.65
216.175	9.7
216.646	3.4
217.118	2.6
217.589	2.1
218.061	1.2
218.532	1.9
219.004	11.1
219.475	15.2
219.946	29.35
220.418	42.6
220.889	26.4
221.36	17
221.832	7.75
222.303	1.9
222.774	6.5
223.245	5.65
223.717	2.45
224.188	5.65
224.659	4.65
225.13	4.1
225.601	1.3
226.072	7.2
226.543	13.4
227.014	1.75
227.485	7.45
227.956	10.45
228.427	17.95
228.898	16.85
229.369	13.55
229.839	13.15
230.31	17.35
230.781	16.95
231.252	18.1
231.722	24.8
232.193	36.75
232.664	39.6
233.135	57.8
233.605	61.2
234.076	47.9
234.546	40.15
235.017	45.35
235.487	45.1
235.958	48.25
236.428	65.3
236.899	103.4
237.369	119.85
237.84	82.65
238.31	107.65
238.78	106.2
239.251	113.6
239.721	112.7
240.191	83.9
240.662	50
241.132	43.3
241.602	47.25
242.072	73.15
242.542	87.2
243.013	63.9
243.483	54.6
243.953	41.55
244.423	41.3
244.893	52.5
245.363	55.35
245.833	55.7
246.303	60
246.773	81.7
247.243	83.55
247.712	92.5
248.182	113.55
248.652	108.25
249.122	170
249.592	310.8
250.061	480.1
250.531	760.8
251.001	581.1
251.471	478.8
251.94	357.9
252.41	196
252.879	139.9
253.349	102.75
253.818	89.15
254.288	78.85
254.757	73.8
255.227	100
255.696	83.4
256.166	69.6
256.635	80.25
257.105	97.8
257.574	125.95
258.043	126.95
258.513	227.95
258.982	292.85
259.451	201.1
259.92	205.4
260.389	191.25
260.859	136.85
261.328	157.05
261.797	231.6
262.266	207.45
262.735	101.2
263.204	62.7
263.673	57.5
264.142	47.9
264.611	48.9
265.08	57.95
265.549	60.45
266.018	56.35
266.487	57.1
266.955	50
267.424	58.6
267.893	65.4
268.362	64
268.83	61.35
269.299	66.65
269.768	73
270.236	83.25
270.705	92.9
271.174	90.25
271.642	96.75
272.111	111.6
272.579	180.4
273.048	281.85
273.516	359.7
273.985	356.9
274.453	270.75
274.922	163.35
275.39	107.45
275.858	100.8
276.327	85.9
276.795	83.8
277.263	93.65
277.731	129.65
278.2	242.95
278.668	321.35
279.136	247.35
279.604	157.25
280.072	98.05
280.54	87.05
281.008	85.85
281.477	91.25
281.945	91.95
282.413	93.25
282.881	97.8
283.348	92.55
283.816	100.6
284.284	102
284.752	101.6
285.22	105.4
285.688	116.25
286.156	192.15
286.623	514.4
287.091	999.4
287.559	520.35
288.026	199.3
288.494	125.8
288.962	103.35
289.429	104.8
289.897	94.35
290.364	90.1
290.832	92.6
291.3	97.2
291.767	96.35
292.234	98.95
292.702	105.75
293.169	113.3
293.637	116.15
294.104	110.3
294.571	109.75
295.039	112.05
295.506	109.05
295.973	116.1
296.44	109.9
296.908	119.3
297.375	139.25
297.842	137.15
298.309	112.7
298.776	115.4
299.243	127.5
299.71	115.45
300.177	115.1
300.644	131.05
301.111	138.1
301.578	130.45
302.045	117.1
302.512	119.15
302.979	124.7
303.446	130.2
303.913	129.45
304.379	141.4
304.846	158.45
305.313	174.15
305.78	204.45
306.246	245.95
306.713	261.95
307.18	228.4
307.646	252.1
308.113	219.65
308.579	177.25
309.046	176
309.512	170.3
309.979	162.7
310.445	150.3
310.912	155
311.378	155.75
311.845	152.1
312.311	152.85
312.777	145.8
313.244	157
313.71	163.85
314.176	181
314.642	210.45
315.109	239.2
315.575	223.5
316.041	203.45
316.507	189.75
316.973	215.2
317.439	206.75
317.905	232.8
318.371	224.75
318.837	220.05
319.303	231.3
319.769	215.6
320.235	235.6
320.701	269.05
321.167	282.75
321.633	342.6
322.099	478.1
322.564	630.2
323.03	503.55
323.496	348.9
323.962	327.75
324.427	308.35
324.893	273.2
325.359	259.95
325.824	228.1
326.29	238.7
326.755	235.85
327.221	243
327.686	249.8
328.152	229.3
328.617	220.9
329.083	218.85
329.548	235.1
330.014	242.65
330.479	262.05
330.944	307.65
331.41	351.55
331.875	338.3
332.34	348.45
332.805	408.3
333.271	508.8
333.736	675
334.201	607.95
334.666	450.5
335.131	511.45
335.596	410.7
336.061	432.55
336.526	433.1
336.991	379.7
337.456	415.8
337.921	326.7
338.386	268.1
338.851	250.9
339.316	232.95
339.781	224.7
340.246	225.2
340.711	222.65
341.175	233.2
341.64	239.7
342.105	242.3
342.569	254.6
343.034	271.75
343.499	286.85
343.963	272.6
344.428	269.75
344.893	273.7
345.357	280.5
345.822	274.75
346.286	280.05
346.751	291.95
347.215	281.45
347.679	293
348.144	317.85
348.608	311.9
349.073	319.8
349.537	360.9
350.001	356.85
350.465	332.5
350.93	321.9
351.394	324.7
351.858	319.3
352.322	330.4
352.786	335.4
353.25	330.75
353.715	331.5
354.179	350.8
354.643	365.15
355.107	377.35
355.571	398
356.035	405.05
356.498	386.4
356.962	420.75
357.426	413.15
357.89	368.15
358.354	344.8
358.818	344.1
359.281	360.6
359.745	371.35
360.209	365.4
360.673	372.35
361.136	374.9
361.6	377.9
362.064	398.2
362.527	405.1
362.991	405.8
363.454	406.7
363.918	410.95
364.381	400.5
364.845	399.7
365.308	387.3
365.772	387.45
366.235	392.65
366.698	420.85
367.162	497.75
367.625	559.5
368.088	457.35
368.552	409.95
369.015	421.55
369.478	449.7
369.941	452.55
370.404	464.8
370.867	488.15
371.331	500.35
371.794	502.1
372.257	559.8
372.72	589.4
373.183	565.15
373.646	568.35
374.109	580.7
374.572	663.95
375.035	780.35
375.497	597.1
375.96	475.2
376.423	453.45
376.886	452.2
377.349	465.3
377.811	463.7
378.274	475.05
378.737	487.9
379.199	499.45
379.662	508.35
380.125	545.35
380.587	595.15
381.05	634.55
381.512	628.85
381.975	612.3
382.437	608.1
382.9	603.7
383.362	608.4
383.825	654.5
384.287	816.2
384.75	909.05
385.212	806.55
385.674	659.25
386.136	606.2
386.599	594.9
387.061	627.25
387.523	647.15
387.985	650.8
388.447	683.35
388.91	748.95
389.372	913.55
389.834	850.1
390.296	713.6
390.758	716.95
391.22	741.1
391.682	906.05
392.144	1393.25
392.606	1296.25
393.068	772.9
393.529	708.3
393.991	695.25
394.453	678.6
394.915	715.25
395.377	859.35
395.838	1054.7
396.3	751.8
396.762	595.8
397.224	564.6
397.685	556.8
398.147	554.95
398.608	562.6
399.07	570
399.531	570.95
399.993	575.45
400.454	579
400.916	573
401.377	600.3
401.839	598.85
402.3	603.95
402.762	630.25
403.223	687
403.684	702.95
404.145	651.85
404.607	629.85
405.068	634.05
405.529	648.9
405.99	659.35
406.451	663.4
406.913	648.95
407.374	658.6
407.835	665.15
408.296	691.85
408.757	696
409.218	711.2
409.679	724.5
410.14	730.6
410.601	758.1
411.062	791.65
411.522	915.8
411.983	998.9
412.444	858.9
412.905	764.5
413.366	764.95
413.826	779.1
414.287	870.45
414.748	1032.55
415.208	1058.5
415.669	885.55
416.13	821.35
416.59	794.85
417.051	810.15
417.511	855.35
417.972	918
418.432	982.95
418.893	1098.85
419.353	1049.05
419.814	803.1
420.274	722.65
420.734	726.25
421.195	770.2
421.655	799.95
422.115	769.7
422.576	743.05
423.036	748.6
423.496	777.85
423.956	814.65
424.416	873.8
424.876	980.3
425.336	976.8
425.797	975.05
426.257	979.15
426.717	915.6
427.177	862.9
427.637	883.95
428.097	936.05
428.556	974.4
429.016	1059.35
429.476	1047.75
429.936	1008.75
430.396	975.4
430.856	994.7
431.315	1025.75
431.775	1098.55
432.235	1157.8
432.694	1176.1
433.154	1105.9
433.614	1073.8
434.073	1040.15
434.533	943.4
434.993	921.95
435.452	919.95
435.912	904.9
436.371	898.7
436.83	898.45
437.29	908.2
437.749	866.85
438.209	845.85
438.668	862.75
439.127	867
439.587	852
440.046	822.75
440.505	838.65
440.964	839.3
441.424	859.45
441.883	874.1
442.342	825
442.801	800.95
443.26	823.05
443.719	816
444.178	812.15
444.637	814.15
445.096	816.4
445.555	838.85
446.014	828.25
446.473	810.35
446.932	809.35
447.391	817.1
447.849	835.15
448.308	829.3
448.767	855.95
449.226	873
449.685	875.3
450.143	911.5
450.602	910.75
451.061	875.65
451.519	896
451.978	903.7
452.436	936.3
452.895	891.1
453.353	871.3
453.812	884.4
454.27	871.1
454.729	840.9
455.187	851.45
455.646	859.25
456.104	866.15
456.562	861.75
457.021	856.95
457.479	818.75
457.937	844.3
458.395	863.6
458.854	848.8
459.312	840.9
459.77	852.4
460.228	861.3
460.686	873.95
461.144	872.5
461.602	859.25
462.06	861.45
462.518	891.35
462.976	882.7
463.434	892.35
463.892	900.35
464.35	920.65
464.808	922.7
465.266	943.8
465.724	945.95
466.181	960.45
466.639	962.1
467.097	994
467.555	1035.2
468.012	1016.9
468.47	1030.05
468.928	1060.85
469.385	1088.25
469.843	1102.9
470.3	1088.55
470.758	1125.65
471.215	1139.2
471.673	1168.5
472.13	1209.5
472.588	1227.25
473.045	1226.6
473.503	1246.45
473.96	1303.85
474.417	1312.5
474.875	1370.85
475.332	1417.3
475.789	1445.2
476.246	1491.65
476.704	1549.5
477.161	1599.8
477.618	1643.65
478.075	1724.15
478.532	1871.15
478.989	2015.35
479.446	2232.7
479.903	2354.8
480.36	2566.35
480.817	2750.2
481.274	2937.55
481.731	3224.35
482.188	3472.5
482.645	3755.4
483.102	3964.5
483.558	4261.3
484.015	4470.95
484.472	4478.8
484.929	4346.25
485.385	4154.8
485.842	4041.95
486.299	3828.2
486.755	3458.1
487.212	3112.75
487.668	2801.9
488.125	2591.25
488.582	2387.6
489.038	2300.5
489.494	2210.55
489.951	2152.45
490.407	2092.8
490.864	2062.1
491.32	2014.7
491.776	1993.5
492.233	1988.05
492.689	1969.25
493.145	1930.9
493.602	1913.8
494.058	1959.3
494.514	1980.15
494.97	2002.65
495.426	2008.85
495.882	2007.55
496.338	2028.95
496.794	2104.85
497.251	2122.55
497.707	2120.2
498.163	2130.1
498.618	2124.45
499.074	2141.55
499.53	2180.05
499.986	2214.2
500.442	2241.4
500.898	2242.3
501.354	2292.5
501.809	2300.55
502.265	2310.9
502.721	2432.2
503.177	2502.7
503.632	2386.15
504.088	2396.8
504.543	2604.85
504.999	2449.45
505.455	2163.55
505.91	2068.5
506.366	2048.5
506.821	2030.05
507.277	2028.4
507.732	2026
508.187	2018.25
508.643	2042.05
509.098	2037.75
509.553	2070.4
510.009	2097.9
510.464	2136.75
510.919	2143.6
511.375	2166.6
511.83	2201.15
512.285	2237.05
512.74	2295.85
513.195	2318.6
513.65	2368.55
514.105	2406.7
514.56	2400.05
515.015	2457.6
515.47	2491.8
515.925	2464.95
516.38	2458.85
516.835	2454.3
517.29	2446.5
517.745	2460.4
518.2	2428.3
518.655	2348.9
519.109	2316.8
519.564	2291.8
520.019	2286.6
520.474	2240.45
520.928	2222
521.383	2229.65
521.838	2226.85
522.292	2183.3
522.747	2168.05
523.201	2167.55
523.656	2123.15
524.11	2125.3
524.565	2117.1
525.019	2124.8
525.474	2150
525.928	2139.75
526.382	2122.55
526.837	2101.9
527.291	2111.35
527.745	2096.85
528.2	2094.35
528.654	2065.55
529.108	2080.3
529.562	2082.95
530.016	2087.95
530.47	2086.55
530.925	2086.1
531.379	2100.6
531.833	2124.55
532.287	2106.15
532.741	2094.4
533.195	2088.4
533.649	2093.5
534.103	2098.15
534.556	2074.05
535.01	2091.45
535.464	2090.05
535.918	2123.05
536.372	2114.3
536.826	2106.6
537.279	2086.8
537.733	2083.65
538.187	2097.45
538.64	2095.25
539.094	2113.15
539.548	2140.45
540.001	2136.15
540.455	2141.6
540.908	2152.15
541.362	2187.1
541.815	2201.65
542.269	2244.9
542.722	2233.15
543.175	2268.95
543.629	2271.95
544.082	2290.65
544.536	2309.25
544.989	2313
545.442	2330.5
545.895	2314.75
546.349	2318.8
546.802	2330.65
547.255	2340.35
547.708	2337.05
548.161	2377.2
548.614	2378.45
549.067	2369
549.52	2368.3
549.973	2348.2
550.426	2322.1
550.879	2305.2
551.332	2306.1
551.785	2314.65
552.238	2338.8
552.691	2342.7
553.144	2376.05
553.596	2414.45
554.049	2433.85
554.502	2479.1
554.955	2547.2
555.407	2575
555.86	2538.65
556.313	2509.3
556.765	2496.05
557.218	2463.05
557.67	2469.7
558.123	2434.3
558.576	2413.1
559.028	2419.95
559.48	2452.6
559.933	2428.25
560.385	2359.55
560.838	2289.5
561.29	2215.4
561.742	2200.55
562.195	2141.2
562.647	2144.2
563.099	2139.8
563.551	2119.25
564.004	2155.35
564.456	2133
564.908	2091.55
565.36	2052.3
565.812	1997.65
566.264	1983.05
566.716	1955.25
567.168	1935.25
567.62	1947.8
568.072	1923.3
568.524	1900.1
568.976	1892.4
569.428	1878.7
569.88	1875.35
570.332	1878.5
570.784	1870.9
571.235	1870.3
571.687	1880.3
572.139	1885.7
572.59	1903.15
573.042	1907.3
573.494	1908.6
573.945	1870.45
574.397	1840.25
574.849	1842.6
575.3	1849.05
575.752	1815.85
576.203	1810.9
576.655	1808.6
577.106	1783
577.557	1786.1
578.009	1768.1
578.46	1786.2
578.912	1758.85
579.363	1771.85
579.814	1761.3
580.265	1759.6
580.717	1769.8
581.168	1769.25
581.619	1767.85
582.07	1791.05
582.521	1782.15
582.972	1786
583.423	1799.5
583.875	1840.65
584.326	1936.55
584.777	2118.3
585.227	2325.75
585.678	2481.4
586.129	2531.25
586.58	2577.95
587.031	2605.7
587.482	2765.05
587.933	3246.1
588.384	2988.35
588.834	2446.95
589.285	2076.25
589.736	2013.05
590.186	2018.75
590.637	1995.2
591.088	1959.05
591.538	1929
591.989	1918.9
592.439	1901.25
592.89	1882.65
593.34	1901.8
593.791	1907.45
594.241	1915.75
594.692	1937.55
595.142	1921.1
595.593	1892.9
596.043	1897.3
596.493	1918.85
596.943	1959.15
597.394	1930.1
597.844	1917
598.294	1948.7
598.744	2010.65
599.195	2093.45
599.645	2204.35
600.095	2334.85
600.545	2440
600.995	2533.8
601.445	2634.35
601.895	2764.7
602.345	2842.1
602.795	2799.2
603.245	2671
603.695	2527.55
604.145	2377.15
604.594	2262.55
605.044	2153.15
605.494	2022.1
605.944	1928.45
606.393	1880.9
606.843	1850.05
607.293	1856.05
607.743	1853.7
608.192	1873.45
608.642	1875
609.091	1878.4
609.541	1868.45
609.99	1864.75
610.44	1822.2
610.889	1808.5
611.339	1797.65
611.788	1772.95
612.238	1799
612.687	1823.05
613.136	1827.95
613.586	1867.95
614.035	1870.2
614.484	1890.1
614.933	1898.2
615.383	1857.8
615.832	1798.3
616.281	1755.75
616.73	1712.85
617.179	1663.5
617.628	1623.05
618.077	1592.3
618.526	1574.05
618.975	1564.8
619.424	1538.8
619.873	1547.5
620.322	1530.4
620.771	1532.6
621.22	1503.65
621.669	1471.2
622.118	1465
622.567	1459.05
623.015	1426.8
623.464	1431.1
623.913	1414.95
624.361	1401.15
624.81	1404.4
625.259	1396.65
625.707	1382.4
626.156	1392.35
626.604	1413.75
627.053	1407.8
627.501	1408.9
627.95	1413.65
628.398	1430.25
628.847	1413.65
629.295	1417.25
629.744	1435.3
630.192	1470.95
630.64	1575.55
631.089	1739.1
631.537	1820.9
631.985	1838.4
632.433	1892.15
632.881	1889.45
633.33	2275.65
633.778	2481.1
634.226	1750.8
634.674	1619.35
635.122	1607.8
635.57	1630.05
636.018	1897.9
636.466	1541.15
636.914	1374.05
637.362	1372.4
637.81	1381.35
638.258	1422.9
638.705	1433.05
639.153	1484.55
639.601	1495.75
640.049	1507.55
640.497	1557.6
640.944	1598.95
641.392	1527.9
641.84	1442.4
642.287	1384.2
642.735	1361.85
643.182	1354.4
643.63	1351.15
644.078	1360.25
644.525	1379.15
644.973	1422.7
645.42	1429.9
645.867	1446.1
646.315	1479.15
646.762	1524.25
647.21	1565.7
647.657	1650.4
648.104	1726.2
648.551	1775.85
648.999	1933.05
649.446	2122.4
649.893	2392.55
650.34	2802.05
650.787	3491.25
651.234	4559.55
651.682	6344.6
652.129	9091.3
652.576	12986.05
653.023	15529.85
653.47	15539.65
653.917	15539.7
654.363	15539.6
654.81	15536.6
655.257	15537.25
655.704	15488.05
656.151	9826.9
656.598	6396.15
657.044	4526.8
657.491	3518
657.938	2846.85
658.385	2409.75
658.831	2130.25
659.278	1898.35
659.724	1744.65
660.171	1624.75
660.618	1495.15
661.064	1412.7
661.511	1369.05
661.957	1325
662.404	1296.3
662.85	1277.2
663.296	1257.5
663.743	1235.95
664.189	1218.9
664.635	1212.95
665.082	1197.25
665.528	1172.7
665.974	1147.7
666.42	1137.15
666.867	1161.95
667.313	1168.55
667.759	1213.85
668.205	1217.55
668.651	1230.05
669.097	1192.55
669.543	1300.55
669.989	1227.4
670.435	1074.7
670.881	1072
671.327	1108.25
671.773	1187.9
672.219	1278.75
672.665	1353.1
673.11	1394.5
673.556	1419.65
674.002	1449.1
674.448	1455.55
674.893	1240.95
675.339	1084.4
675.785	996.7
676.23	957.4
676.676	918.35
677.122	890.4
677.567	871.9
678.013	850.55
678.458	837.3
678.904	837.5
679.349	830.25
679.794	831.15
680.24	821.4
680.685	816.75
681.131	812.3
681.576	824.6
682.021	832.45
682.466	831.1
682.912	839.05
683.357	884.1
683.802	944.9
684.247	1050.35
684.692	1112
685.137	1157.95
685.583	1174.65
686.028	1232.6
686.473	1163.75
686.918	1010.35
687.363	925.15
687.807	883.55
688.252	839.8
688.697	809.45
689.142	783.95
689.587	785.85
690.032	809.05
690.477	836.95
690.921	881.9
691.366	926.5
691.811	967.55
692.255	1039.3
692.7	1270.2
693.145	1840.3
693.589	2790.8
694.034	3312.1
694.478	3501.85
694.923	3189.5
695.367	4537.5
695.812	2764
696.256	1178.85
696.701	867.55
697.145	805.05
697.59	771.75
698.034	760.75
698.478	764.85
698.922	771.2
699.367	789
699.811	829.8
700.255	898.2
700.699	980.95
701.143	1056.7
701.588	1116.1
702.032	1163.65
702.476	1191.15
702.92	1264.2
703.364	1661.35
703.808	2553.95
704.252	3187.7
704.696	3349.4
705.14	3143.25
705.584	4305.2
706.027	2375.65
706.471	1214.85
706.915	901.2
707.359	810.65
707.803	754.2
708.246	727
708.69	727.85
709.134	720.65
709.577	717.8
710.021	720.65
710.465	722.85
710.908	712.55
711.352	751.95
711.795	833.25
712.239	890.15
712.682	922.8
713.126	912
713.569	1004.15
714.012	830.45
714.456	737.55
714.899	690.75
715.342	647.6
715.786	624.45
716.229	597.9
716.672	585.6
717.115	587.2
717.558	598.95
718.002	614.9
718.445	643.7
718.888	678.15
719.331	691.75
719.774	708.65
720.217	691.15
720.66	649.4
721.103	618.25
721.546	581.1
721.989	565.1
722.432	560.35
722.874	562.45
723.317	565.4
723.76	618.55
724.203	764.1
724.645	1012.05
725.088	1181.9
725.531	1158
725.974	1262.75
726.416	1127.5
726.859	706.65
727.301	578.35
727.744	553.1
728.187	554.3
728.629	566.65
729.071	589.6
729.514	621.9
729.956	645.25
730.399	650.15
730.841	651.3
731.283	635.5
731.726	616.55
732.168	623.9
732.61	659.3
733.053	714.5
733.495	786.55
733.937	874.05
734.379	1029.8
734.821	1317.65
735.263	2104.2
735.705	3792.75
736.148	5517.7
736.59	5461.75
737.032	5931.1
737.474	4871.1
737.916	1864
738.357	982.35
738.799	759.5
739.241	705.85
739.683	710.25
740.125	720.15
740.567	718.5
741.008	749.9
741.45	791.3
741.892	818.55
742.334	816
742.775	806.3
743.217	767.75
743.658	673.2
744.1	677.75
744.542	753.95
744.983	775.75
745.425	815.35
745.866	799.7
746.307	713.95
746.749	782.95
747.19	1138.05
747.632	2223.1
748.073	4130.1
748.514	5668.35
748.956	7491.15
749.397	8714.6
749.838	5989.75
750.279	5706.35
750.72	2952
751.162	1248.85
751.603	712
752.044	581.2
752.485	510.7
752.926	488.9
753.367	466.1
753.808	452.15
754.249	438.45
754.69	439.2
755.131	437.35
755.572	432.45
756.013	430.05
756.453	438.95
756.894	445.05
757.335	443.45
757.776	451.65
758.216	466.3
758.657	492.85
759.098	547.5
759.538	667.05
759.979	965.3
760.42	1957.5
760.86	5029.9
761.301	10287.5
761.741	11913.9
762.182	13605.85
762.622	8798.4
763.063	3188.1
763.503	1403
763.943	1073.95
764.384	1157.5
764.824	1091.8
765.264	1083.7
765.705	772.05
766.145	552.05
766.585	498.4
767.025	527.85
767.465	680.45
767.906	823.6
768.346	863.2
768.786	901.05
769.226	921.6
769.666	1600.75
770.106	3458.4
770.546	4857.05
770.986	5440.2
771.426	4091.05
771.866	1709
772.306	794
772.745	505.3
773.185	436.55
773.625	437.35
774.065	508.7
774.505	826.05
774.944	1683.8
775.384	2508.3
775.824	2830.7
776.263	2317.25
776.703	1146.6
777.142	576.85
777.582	397.65
778.021	360.8
778.461	334.2
778.9	324.3
779.34	300.3
779.779	282.9
780.219	278.05
780.658	268.4
781.097	268.65
781.537	263.45
781.976	265.6
782.415	264.15
782.855	253.65
783.294	253.95
783.733	257.9
784.172	260.7
784.611	261.4
785.05	264.4
785.489	269.85
785.928	274.45
786.367	284
786.806	300.8
787.245	326.15
787.684	335
788.123	334.25
788.562	311.65
789.001	300.15
789.44	291.9
789.879	293.75
790.317	300.1
790.756	316.3
791.195	363.55
791.634	497
792.072	895.4
792.511	2217.3
792.95	4024.8
793.388	4807
793.827	3126.4
794.265	1439.45
794.704	688
795.142	418.9
795.581	345.35
796.019	316.8
796.458	309.75
796.896	326.8
797.334	370.8
797.773	499.9
798.211	957.45
798.649	2003.8
799.087	3354
799.526	4709.05
799.964	4835.6
800.402	3295
800.84	1504.9
801.278	735.35
801.716	450.9
802.154	364.45
802.592	345.7
803.03	341.35
803.468	349.55
803.906	350.5
804.344	347.85
804.782	334.55
805.22	335.35
805.658	349
806.096	372.15
806.533	416.85
806.971	538.4
807.409	781.9
807.847	1561.9
808.284	4003.55
808.722	6959.75
809.16	9740.75
809.597	13164.5
810.035	15500.15
810.472	10456.3
810.91	4469.5
811.347	1990.25
811.785	935.85
812.222	590.7
812.66	454.05
813.097	386.05
813.535	338.05
813.972	304.25
814.409	283.4
814.846	268.6
815.284	253.65
815.721	258.05
816.158	283.05
816.595	361.2
817.032	434.85
817.47	401.05
817.907	312.45
818.344	276.1
818.781	264.35
819.218	312.4
819.655	447.8
820.092	575.55
820.529	528.75
820.966	440.05
821.403	324.55
821.839	285.6
822.276	301.3
822.713	342.7
823.15	334.25
823.587	360.55
824.023	657.15
824.46	1640.65
824.897	2832.8
825.333	2181.15
825.77	1004.9
826.206	525.5
826.643	310.8
827.08	231.25
827.516	209.35
827.953	194.7
828.389	181.75
828.825	178.25
829.262	164.55
829.698	158.7
830.135	157.05
830.571	156.95
831.007	154.45
831.443	157
831.88	163.1
832.316	167.05
832.752	162.55
833.188	160.2
833.624	165.1
834.06	171.1
834.497	169.45
834.933	171.7
835.369	186.7
835.805	193.45
836.241	207.65
836.677	221.3
837.112	261
837.548	328.55
837.984	479.85
838.42	1039.35
838.856	2878.2
839.292	5633.1
839.727	4128.45
840.163	2817.4
840.599	4302.75
841.034	6507.4
841.47	3212.75
841.906	1583.75
842.341	894.4
842.777	778.4
843.212	909.9
843.648	531.75
844.083	337.8
844.519	230
844.954	184.8
845.39	160.75
845.825	155.05
846.261	145.15
846.696	141.8
847.131	134.35
847.566	139.1
848.002	144.4
848.437	152.05
848.872	154.7
849.307	202.3
849.742	356.5
850.177	941.95
850.613	1997.1
851.048	1405.4
851.483	654.7
851.918	361.1
852.353	217.05
852.788	170.55
853.223	143.15
853.657	123.4
854.092	118.75
854.527	116.7
854.962	121.25
855.397	128.15
855.832	114.55
856.266	99.7
856.701	99.5
857.136	105.85
857.57	126.45
858.005	146.7
858.44	125.4
858.874	124.4
859.309	129.6
859.743	120.5
860.178	120.25
860.612	134.8
861.047	162.1
861.481	212
861.915	148.8
862.35	124
862.784	98.15
863.218	95.65
863.653	105.9
864.087	125.75
864.521	163.2
864.955	279.8
865.39	466.65
865.824	333.15
866.258	386.95
866.692	545.85
867.126	404.35
867.56	220.6
867.994	147.05
868.428	129
868.862	156.35
869.296	143.25
869.73	166
870.164	145.45
870.598	129.85
871.031	103.15
871.465	91.95
871.899	72.05
872.333	71.8
872.766	71.9
873.2	74.35
873.634	73.35
874.067	79.5
874.501	77.85
874.935	80.5
875.368	79.3
875.802	71.35
876.235	68.65
876.669	69.2
877.102	61.65
877.535	58.05
877.969	59.8
878.402	62.6
878.836	66.25
879.269	58.65
879.702	59.2
880.135	65.6
880.569	72.65
881.002	60.7
881.435	60.85
881.868	60.3
882.301	56.55
882.734	55.3
883.167	56
883.601	50.15
884.034	54.2
884.467	48.9
884.899	51.95
885.332	47.15
885.765	50.15
886.198	49.55
886.631	48.4
887.064	49
887.497	51.8
887.929	52.85
888.362	43.25
888.795	44.35
889.228	50.1
889.66	47.95
890.093	45.9
890.526	45.65
890.958	48.55
891.391	50.85
891.823	42.8
892.256	44.9
892.688	45.7
893.121	40
893.553	48.15
893.985	44.1
894.418	38.1
894.85	44.55
895.282	44.35
895.715	41.15
896.147	39.55
896.579	39.7
897.011	45.45
897.444	41.5
897.876	37.5
898.308	40.55
898.74	42.7
899.172	46.75
899.604	45.9
900.036	40.7
900.468	40.3
900.9	50.6
901.332	56.1
901.764	51.75
902.196	55.3
902.628	54.9
903.06	75.75
903.491	76.45
903.923	66.6
904.355	68.25
904.787	74.75
905.218	58.5
905.65	53.75
906.082	55.55
906.513	51.75
906.945	53.8
907.376	54.7
907.808	61.05
908.239	63.2
908.671	67.95
909.102	70.75
909.534	100.6
909.965	184.85
910.397	460.7
910.828	1323.3
911.259	804.75
911.691	440.5
912.122	255.85
912.553	128.2
912.984	77.45
913.415	64.9
913.847	59.6
914.278	54.3
914.709	48.05
915.14	42.95
915.571	49.75
916.002	44.95
916.433	45.2
916.864	41.85
917.295	47.65
917.726	52.55
918.157	69.75
918.587	67
919.018	61.6
919.449	54.35
919.88	66.3
920.311	105.95
920.741	283.7
921.172	483.4
921.603	244.9
922.033	160.1
922.464	104.9
922.895	70.2
923.325	49.45
923.756	46.95
924.186	61.95
924.617	109.6
925.047	166.55
925.478	152
925.908	108.25
926.338	74.4
926.769	56.1
927.199	43.5
927.629	40.2
928.06	44.65
928.49	43.75
928.92	37.5
929.35	33.05
929.78	29.5
930.21	31.35
930.641	24.85
931.071	21.95
931.501	23
931.931	19.05
932.361	24.05
932.791	27.85
933.221	30.15
933.651	38.45
934.08	62.15
934.51	41.5
934.94	34.95
935.37	27.35
935.8	22.1
936.229	21.2
936.659	24.65
937.089	35.05
937.519	47.95
937.948	66.5
938.378	40.1
938.807	25.4
939.237	21.1
939.666	21.45
940.096	17.65
940.525	9.4
940.955	14.65
941.384	10.9
941.814	11.75
942.243	11.1
942.672	15.7
943.102	9.2
943.531	5.85
943.96	13.85
944.39	12.15
944.819	10.45
945.248	11.9
945.677	13.05
946.106	9.3
946.535	15.4
946.964	11.95
947.393	11.35
947.822	11.25
948.251	12.1
948.68	13.1
949.109	17.05
949.538	8.75
949.967	12.4
950.396	12.25
950.825	14
951.254	13.85
951.682	7.15
952.111	6
952.54	10
952.969	5.3
953.397	5.15
953.826	5.8
954.254	13.75
954.683	10.25
955.112	12.15
955.54	10.1
955.969	9.75
956.397	10.4
956.826	5.55
957.254	6.4
957.682	9.75
958.111	12.05
958.539	13.4
958.967	7.35
959.396	9.95
959.824	9.8
960.252	9.35
960.68	8.05
961.109	9
961.537	10.1
961.965	4.6
962.393	6.85
962.821	8.75
963.249	8.8
963.677	14.45
964.105	85.55
964.533	141.5
964.961	72.65
965.389	42
965.817	28.25
966.245	13.1
966.672	8.3
967.1	8.45
967.528	6.9
967.956	3.8
968.383	8.75
968.811	7.4
969.239	10.5
969.666	6.15
970.094	7.8
970.522	2.3
970.949	5.25
971.377	-1.5
971.804	3.15
972.232	5.65
972.659	1.3
973.087	5.9
973.514	2.3
973.941	1.25
974.369	2.45
974.796	11.45
975.223	3
975.651	9.55
976.078	9.55
976.505	14.9
976.932	35.3
977.359	42.1
977.786	24.65
978.214	19.4
978.641	5.45
979.068	8.3
979.495	8.2
979.922	7.25
980.349	2.4
980.776	8.95
981.202	4.3
981.629	6.3
982.056	6.3
982.483	2.3
982.91	6.75
983.337	3.25
983.763	4.75
984.19	7.1
984.617	1.05
985.043	6.65
985.47	9.15
985.897	5.35
986.323	9.4
986.75	3.2
987.176	3.05
987.603	5.7
988.029	4.85
988.456	11.15
988.882	3.95
989.308	0.25
989.735	2.15
990.161	2.1
990.587	1.8
991.014	3.45
991.44	7.95
991.866	0.3
992.292	0.1
992.719	1.2
993.145	6.15
993.571	2.8
993.997	7.75
994.423	7.4
994.849	0.25
995.275	5.85
995.701	6.6
996.127	-0.6
996.553	1.2
996.979	-0.25
997.405	3.15
997.83	1.85
998.256	1.5
998.682	3.75
999.108	1.1
999.534	-1.8
999.959	1.15
1000.385	5.45
1000.811	0.35
1001.236	-1.2
1001.662	4.35
1002.087	8.2
1002.513	2.65
1002.938	-1.25
1003.364	2.7
1003.789	4.5
1004.215	1.85
1004.64	-0.7
1005.066	0
1005.491	6
1005.916	6.55
1006.342	2.75
1006.767	4.65
1007.192	5.3
1007.617	5.35
1008.042	3.45
1008.468	5.45
1008.893	9.2
1009.318	7.35
1009.743	13.9
1010.168	22.5
1010.593	17.55
1011.018	13.7
1011.443	9.65
1011.868	7.85
1012.293	4.15
1012.718	0.3
1013.143	2.6
1013.567	10
1013.992	4.85
1014.417	2.7
1014.842	-1.2
1015.267	3.05
1015.691	4.95
1016.116	3.1
1016.541	2.95
1016.965	3.05
1017.39	2.2
1017.814	-1.6
1018.239	1.35
1018.663	-0.1
1019.088	-2.9
1019.512	9.65
1019.937	0.5
1020.361	4.35
1020.785	1.4
1021.21	-0.5
1021.634	-0.25
1022.058	1.55
1022.483	-1.8
1022.907	-1.15
1023.331	-0.65
1023.755	-3.8
1024.179	0.8
1024.604	1.1
1025.028	0.45
1025.452	4.9
1025.876	2.35
1026.3	2.85
1026.724	-5.35
1027.148	2.65
1027.572	-1.55
1027.996	1.6
1028.42	3.45
1028.843	1.4
1029.267	1.7
1029.691	6.1
1030.115	0.05
1030.539	1.95
1030.962	-2.15
1031.386	3.7
1031.81	1.65
1032.233	0.35
1032.657	-9.1
1033.08	3.1
1033.504	2.5
1033.927	-0.95
1034.351	-1.25
1034.774	1.55
1035.198	1.1
1035.621	2
1036.045	-5.1
1036.468	7
1036.891	0.8
1037.315	2.45
1037.738	0.35
1038.161	3
1038.584	2.15
1039.008	0.1
1039.431	-0.7
1039.854	-5.55
1040.277	5.35
1040.7	-0.4
1041.123	-1.7
1041.546	0
1041.969	1
1042.392	4.05
1042.815	-7.25
1043.238	0.5
1043.661	-2.35
1044.084	-1
1044.507	3.1
1044.93	-1.15
1045.352	2.7
1045.775	3.9
1046.198	3.75
1046.621	0.35
1047.043	0.3
1047.466	3.9
1047.889	-4.05
1048.311	2.3
1048.734	-5.05
1049.156	-2.05
1049.579	-0.25
1050.001	-1.05
1050.424	0.3
1050.846	-2.95
1051.269	0.4
1051.691	-2.25
1052.113	-2.05
1052.536	-0.9
1052.958	-3.45
1053.38	0.65
1053.802	2.6
1054.225	3.05
1054.647	4.8
1055.069	-1
1055.491	1.7
1055.913	0.9
1056.335	-8.2
1056.757	-4.45
1057.179	-2.75
1057.601	-0.65
1058.023	-1.85
1058.445	-2.8
1058.867	5.85
1059.289	-0.95
1059.711	-4.4
1060.133	0.75
1060.555	-4.05
1060.976	1.85
1061.398	-4.85
1061.82	0.15
1062.241	-1.2
1062.663	0.95
1063.085	-1.95
1063.506	-6.5
1063.928	-0.25
1064.35	1.1
1064.771	-1.5
1065.193	-2.95
1065.614	-3.55
1066.035	0.05
1066.457	4.35
1066.878	1.4
1067.3	-0.95
1067.721	0.85
1068.142	0.9
1068.564	4
1068.985	-1.4
1069.406	-7
1069.827	-1.05
1070.248	-4.4
1070.67	-0.65
1071.091	-7.95
1071.512	-1.65
1071.933	0.95
1072.354	-4.95
1072.775	-0.4
1073.196	-3.65
1073.617	-5.45
1074.038	-0.4
1074.459	-1.15
1074.88	-1.2
1075.3	0.75
1075.721	3.95
1076.142	0.55
1076.563	-6.55
1076.983	1.8
1077.404	-10.25
1077.825	-0.05
1078.246	-4.5
1078.666	-4.05
1079.087	0.4
1079.507	-4.25
1079.928	0
1080.348	-0.65
1080.769	-1.45
1081.189	-0.9
1081.61	-4.9
1082.03	1.85
1082.451	-4.55
1082.871	-5.6
1083.291	-3.1
1083.711	-3.3
1084.132	-3.65
1084.552	-4.1
1084.972	-5.15
1085.392	-4.85
1085.813	-1.4
1086.233	1.05
1086.653	1.65
1087.073	-2.3
1087.493	-2.65
1087.913	-7.1
1088.333	0.65
1088.753	1.3
1089.173	3
1089.593	0
1090.013	-1.65
1090.433	-2.55
1090.852	3.05
1091.272	-4.8
1091.692	1.45
1092.112	-2.5
1092.531	-5.8
1092.951	-2.25
1093.371	-1.15
1093.79	0.3
1094.21	-2.15
1094.63	-0.45
1095.049	0.75
1095.469	-6.3
1095.888	2.5
1096.308	-0.4
1096.727	0.55
1097.146	0.15
1097.566	-1.7
1097.985	-6.6
1098.405	-4.3
1098.824	-0.25
1099.243	-3
1099.662	-3.1
1100.082	-5.35
1100.501	0.85
1100.92	3.6
1101.339	4.15
1101.758	1.75
