Data from MSPlasma+Separation6_Subt14_10-15-14-279.txt Node
Date: Fri Jul 21 10:15:14 EDT 2017
User: Ender
Spectrometer: HR+D1039
Trigger mode: 0
Integration Time (sec): 6.430000E-3
Scans to average: 20
Electric dark correction enabled: true
Nonlinearity correction enabled: false
Boxcar width: 0
XAxis mode: Wavelengths
Number of Pixels in Spectrum: 2048
>>>>>Begin Spectral Data<<<<<
187.836	1.75
188.309	1.75
188.782	1.75
189.255	0.65
189.728	-1.25
190.201	-1.05
190.674	1.75
191.147	-1.05
191.619	1.9
192.092	1.45
192.565	-2.4
193.038	2.4
193.511	3.55
193.984	1
194.456	-2.4
194.929	-2.85
195.402	-2.8
195.874	-0.6
196.347	-0.25
196.82	2.3
197.292	-1.05
197.765	1.9
198.237	-1.95
198.71	-4.1
199.182	3.45
199.655	5.5
200.127	1.9
200.6	5.95
201.072	3.45
201.544	1.5
202.017	3.25
202.489	1.75
202.961	-0.5
203.433	-2
203.906	2.3
204.378	3.3
204.85	5.7
205.322	0.5
205.794	7.5
206.266	2.15
206.739	3.7
207.211	5.05
207.683	3.6
208.155	7.9
208.627	1.9
209.099	5.6
209.57	5.9
210.042	3.85
210.514	7.25
210.986	19.4
211.458	23.4
211.93	14.1
212.402	7.9
212.873	1.35
213.345	-1
213.817	4.75
214.288	0.5
214.76	5.7
215.232	-0.55
215.703	1.85
216.175	5.05
216.646	4.1
217.118	4.85
217.589	0.25
218.061	7.5
218.532	-0.85
219.004	6.2
219.475	17.65
219.946	35.3
220.418	42.05
220.889	26.45
221.36	14.7
221.832	13.1
222.303	10.2
222.774	10.65
223.245	3.75
223.717	7.3
224.188	8.7
224.659	1.75
225.13	0.65
225.601	6.4
226.072	9.9
226.543	10.8
227.014	9.25
227.485	7.95
227.956	9.65
228.427	17.9
228.898	13.1
229.369	16.1
229.839	13.8
230.31	14.2
230.781	15.3
231.252	22
231.722	27.45
232.193	36.15
232.664	43
233.135	62.6
233.605	70.1
234.076	53.2
234.546	42.55
235.017	52.75
235.487	47.6
235.958	48.3
236.428	66.1
236.899	112.55
237.369	122.7
237.84	96.15
238.31	110.9
238.78	116.75
239.251	115.25
239.721	116.15
240.191	87.65
240.662	55.05
241.132	42.15
241.602	51.85
242.072	81.85
242.542	93.85
243.013	68.8
243.483	56.15
243.953	43.3
244.423	46.05
244.893	55.55
245.363	67.1
245.833	56.85
246.303	66.55
246.773	81.8
247.243	84.25
247.712	95.85
248.182	113.8
248.652	118.6
249.122	180.15
249.592	340.2
250.061	511.35
250.531	822.45
251.001	622.7
251.471	521
251.94	390.8
252.41	210.8
252.879	149.05
253.349	112.8
253.818	86.85
254.288	82.15
254.757	82.8
255.227	109.9
255.696	86.05
256.166	79.4
256.635	84.65
257.105	106.95
257.574	134.3
258.043	133.95
258.513	254.9
258.982	319.4
259.451	214.95
259.92	225.45
260.389	204.1
260.859	152.1
261.328	177.7
261.797	259.35
262.266	232.45
262.735	102.05
263.204	68.45
263.673	61.6
264.142	49.45
264.611	58.55
265.08	65.15
265.549	64.95
266.018	60.45
266.487	65.05
266.955	58.8
267.424	65.95
267.893	71.8
268.362	66.25
268.83	64.7
269.299	66.9
269.768	80.95
270.236	94.65
270.705	100.2
271.174	96.85
271.642	107.9
272.111	118.95
272.579	208.8
273.048	312.85
273.516	395.8
273.985	403.35
274.453	305.4
274.922	189
275.39	115.3
275.858	111.6
276.327	92.8
276.795	91.75
277.263	105.5
277.731	143.1
278.2	268.8
278.668	350.15
279.136	270.4
279.604	172.55
280.072	110.95
280.54	96.8
281.008	100
281.477	100.2
281.945	103.75
282.413	105.6
282.881	103.35
283.348	104.45
283.816	114.2
284.284	120.85
284.752	114.2
285.22	113.5
285.688	131.65
286.156	209.5
286.623	574.9
287.091	1132.1
287.559	583.75
288.026	219.65
288.494	141.25
288.962	120.9
289.429	110.7
289.897	110.05
290.364	99.4
290.832	105.3
291.3	105.95
291.767	112.9
292.234	115.3
292.702	117.25
293.169	123.35
293.637	133.6
294.104	129.55
294.571	121.4
295.039	122.05
295.506	124.7
295.973	128.4
296.44	121.3
296.908	131.05
297.375	161
297.842	151.3
298.309	129.25
298.776	131.2
299.243	135.75
299.71	133.3
300.177	127.5
300.644	147
301.111	156.15
301.578	145.7
302.045	130.05
302.512	132.05
302.979	132.9
303.446	141.95
303.913	142.6
304.379	155.1
304.846	177.35
305.313	194.9
305.78	222.6
306.246	273.8
306.713	289.95
307.18	254.6
307.646	283.45
308.113	249.65
308.579	196.4
309.046	191.25
309.512	193.7
309.979	175.1
310.445	166.2
310.912	170.7
311.378	170.3
311.845	174.95
312.311	163.55
312.777	166.65
313.244	173.65
313.71	183.25
314.176	200.85
314.642	227.2
315.109	266.2
315.575	249.7
316.041	226.3
316.507	215
316.973	241.75
317.439	232.8
317.905	256.75
318.371	245.6
318.837	237.2
319.303	252.05
319.769	234.05
320.235	259.7
320.701	298.75
321.167	314.65
321.633	379.5
322.099	523.55
322.564	708.8
323.03	550
323.496	383.05
323.962	365.55
324.427	342.25
324.893	302.9
325.359	286.35
325.824	250.6
326.29	264.1
326.755	265.8
327.221	267.45
327.686	280.2
328.152	252.95
328.617	244.55
329.083	248.05
329.548	255.8
330.014	263.65
330.479	287.7
330.944	340.65
331.41	382.7
331.875	370.85
332.34	387.2
332.805	442.1
333.271	566.7
333.736	750.05
334.201	673.55
334.666	503.2
335.131	568.3
335.596	447.35
336.061	471.15
336.526	480.5
336.991	418.5
337.456	455.45
337.921	357.4
338.386	300.1
338.851	273.25
339.316	252.35
339.781	245.4
340.246	255
340.711	250.45
341.175	257
341.64	259.05
342.105	261.9
342.569	278.5
343.034	299.8
343.499	312.6
343.963	296.55
344.428	300.6
344.893	301.2
345.357	308.1
345.822	302.8
346.286	307.3
346.751	317.4
347.215	313
347.679	318.4
348.144	344.5
348.608	343.7
349.073	358.7
349.537	399.65
350.001	386.3
350.465	362.5
350.93	356.2
351.394	353.75
351.858	351.3
352.322	367.7
352.786	364.35
353.25	364.6
353.715	363.8
354.179	385.85
354.643	401.25
355.107	413.25
355.571	432.75
356.035	438.45
356.498	425
356.962	457.95
357.426	446.25
357.89	405.4
358.354	379.05
358.818	374.05
359.281	393.7
359.745	408.8
360.209	404.1
360.673	409.1
361.136	408.9
361.6	405.05
362.064	434.35
362.527	441.2
362.991	442.6
363.454	444.9
363.918	440.55
364.381	439.5
364.845	432.05
365.308	424.75
365.772	421.75
366.235	426.45
366.698	450.55
367.162	546.5
367.625	607.8
368.088	489.65
368.552	450.65
369.015	456.1
369.478	494.1
369.941	494.8
370.404	504.15
370.867	536.1
371.331	549.65
371.794	555.15
372.257	606.75
372.72	646.8
373.183	618.15
373.646	629.1
374.109	620.1
374.572	718.35
375.035	846.45
375.497	642.6
375.96	524.25
376.423	495.15
376.886	499.25
377.349	504.05
377.811	515.6
378.274	523.1
378.737	528.05
379.199	541.1
379.662	556.7
380.125	592
380.587	649.75
381.05	692.7
381.512	690.05
381.975	666
382.437	665.35
382.9	658.8
383.362	665.05
383.825	706.65
384.287	896
384.75	995.15
385.212	880.8
385.674	722.2
386.136	658.1
386.599	648.3
387.061	674.65
387.523	708.05
387.985	700.45
388.447	726.1
388.91	824.95
389.372	987.15
389.834	936.65
390.296	775.55
390.758	777.15
391.22	801.25
391.682	981.65
392.144	1516.6
392.606	1426.8
393.068	844.3
393.529	768.95
393.991	754.8
394.453	728.9
394.915	771.45
395.377	934.7
395.838	1150.1
396.3	820.85
396.762	639.1
397.224	607.55
397.685	602.65
398.147	609.05
398.608	623.3
399.07	621.5
399.531	610.45
399.993	632.1
400.454	639
400.916	630.8
401.377	649.55
401.839	653.95
402.3	653.9
402.762	684.6
403.223	754.7
403.684	766.6
404.145	706.7
404.607	679.8
405.068	686.15
405.529	709.9
405.99	720.65
406.451	719.25
406.913	703.25
407.374	714.35
407.835	721.3
408.296	740.5
408.757	746.1
409.218	774
409.679	776.55
410.14	789.1
410.601	816.1
411.062	857.05
411.522	984.1
411.983	1092.35
412.444	938.45
412.905	818.6
413.366	818.45
413.826	853.25
414.287	947
414.748	1130.9
415.208	1158.2
415.669	962.25
416.13	871.45
416.59	858.85
417.051	882.15
417.511	934.35
417.972	1000.9
418.432	1081.85
418.893	1204.85
419.353	1139.4
419.814	880.45
420.274	789.65
420.734	787.85
421.195	834.75
421.655	866.7
422.115	840.25
422.576	811.6
423.036	815.3
423.496	843.8
423.956	879.4
424.416	941.8
424.876	1064.6
425.336	1068.65
425.797	1057.25
426.257	1060.6
426.717	994.4
427.177	924.3
427.637	949.25
428.097	996.65
428.556	1057.95
429.016	1146
429.476	1133.1
429.936	1093.4
430.396	1052.2
430.856	1068.05
431.315	1108.1
431.775	1189.15
432.235	1244.5
432.694	1265.6
433.154	1199.95
433.614	1166.55
434.073	1113.75
434.533	1018.1
434.993	986.4
435.452	997.7
435.912	977
436.371	970.15
436.83	969.25
437.29	988.15
437.749	934.1
438.209	920.55
438.668	940.65
439.127	943.4
439.587	919.4
440.046	882.65
440.505	913.6
440.964	919.6
441.424	937.85
441.883	943.95
442.342	896.35
442.801	869.15
443.26	896.5
443.719	884.1
444.178	880.25
444.637	883
445.096	885.7
445.555	906.65
446.014	901.4
446.473	877
446.932	876.35
447.391	891
447.849	909.2
448.308	898.25
448.767	920.05
449.226	940.85
449.685	949.65
450.143	985.45
450.602	989.95
451.061	952.1
451.519	966.1
451.978	988.55
452.436	1018.2
452.895	969.7
453.353	941.35
453.812	951.25
454.27	939.85
454.729	913.65
455.187	919.05
455.646	925.45
456.104	934.8
456.562	924.65
457.021	918.75
457.479	880.7
457.937	912.05
458.395	937.5
458.854	925.25
459.312	913.7
459.77	915.9
460.228	930.05
460.686	944.25
461.144	949.75
461.602	938.05
462.06	939.3
462.518	963.55
462.976	962.75
463.434	966.5
463.892	974.75
464.35	998.9
464.808	1013.4
465.266	1027.05
465.724	1039.35
466.181	1042.45
466.639	1032.05
467.097	1079.8
467.555	1118.75
468.012	1096.8
468.47	1115.15
468.928	1151.1
469.385	1179.7
469.843	1196.8
470.3	1190.25
470.758	1223.35
471.215	1246.75
471.673	1265.75
472.13	1297
472.588	1332.55
473.045	1326.2
473.503	1342.5
473.96	1401.9
474.417	1423.65
474.875	1495
475.332	1542.75
475.789	1555.45
476.246	1601.7
476.704	1671.45
477.161	1728.45
477.618	1768.25
478.075	1849.35
478.532	1996.45
478.989	2149
479.446	2379.05
479.903	2495.9
480.36	2723.1
480.817	2899.35
481.274	3122.45
481.731	3412.75
482.188	3651.85
482.645	3956.3
483.102	4207.6
483.558	4511.9
484.015	4723.7
484.472	4746.15
484.929	4595.75
485.385	4393.1
485.842	4296.65
486.299	4077.2
486.755	3705.45
487.212	3313.7
487.668	2987.4
488.125	2769.65
488.582	2539.4
489.038	2456.9
489.494	2384.35
489.951	2313.25
490.407	2259.65
490.864	2222.35
491.32	2173.7
491.776	2139.65
492.233	2158.05
492.689	2113.55
493.145	2097.1
493.602	2072.35
494.058	2114.55
494.514	2146
494.97	2156.2
495.426	2192.75
495.882	2192.65
496.338	2200.7
496.794	2281.2
497.251	2293.75
497.707	2304.4
498.163	2310.6
498.618	2300.25
499.074	2326.5
499.53	2355.3
499.986	2398.65
500.442	2425.2
500.898	2424.5
501.354	2457.25
501.809	2474.25
502.265	2516.95
502.721	2633.6
503.177	2712.45
503.632	2572.65
504.088	2582.5
504.543	2834.7
504.999	2650.35
505.455	2353.8
505.91	2231.95
506.366	2213.05
506.821	2207.7
507.277	2182.15
507.732	2193.9
508.187	2206.45
508.643	2202.85
509.098	2201.1
509.553	2253.05
510.009	2274.45
510.464	2306.95
510.919	2326.3
511.375	2358.8
511.83	2389.9
512.285	2430.8
512.74	2493.55
513.195	2538.75
513.65	2566.05
514.105	2600.7
514.56	2617.4
515.015	2675.25
515.47	2687.25
515.925	2686.1
516.38	2664.55
516.835	2652.65
517.29	2654.3
517.745	2677.35
518.2	2619.35
518.655	2553.9
519.109	2515.35
519.564	2489.25
520.019	2475.6
520.474	2429
520.928	2422.1
521.383	2416.7
521.838	2407.3
522.292	2373.65
522.747	2355.55
523.201	2344.2
523.656	2311.65
524.11	2309.8
524.565	2300.6
525.019	2323.15
525.474	2322.95
525.928	2323.95
526.382	2287.3
526.837	2257.85
527.291	2283.6
527.745	2264.7
528.2	2255.05
528.654	2249.95
529.108	2243
529.562	2265.35
530.016	2251.8
530.47	2261.35
530.925	2249.25
531.379	2286.8
531.833	2298.35
532.287	2289.95
532.741	2261.2
533.195	2267.15
533.649	2271.95
534.103	2264.6
534.556	2262.1
535.01	2275.2
535.464	2262.5
535.918	2276.95
536.372	2275.4
536.826	2273.6
537.279	2255.4
537.733	2256.95
538.187	2264.5
538.64	2266.75
539.094	2290.55
539.548	2321.4
540.001	2306.3
540.455	2327.55
540.908	2337.9
541.362	2365.3
541.815	2387.75
542.269	2426.45
542.722	2425
543.175	2434.2
543.629	2459.55
544.082	2468.35
544.536	2509.4
544.989	2506.2
545.442	2520.2
545.895	2502.75
546.349	2519.8
546.802	2533.05
547.255	2520
547.708	2536.6
548.161	2557.25
548.614	2565.7
549.067	2579.6
549.52	2561.4
549.973	2534.15
550.426	2530.35
550.879	2495.75
551.332	2494.85
551.785	2506.9
552.238	2529.45
552.691	2536.65
553.144	2571.1
553.596	2601.85
554.049	2642.15
554.502	2697
554.955	2744.15
555.407	2791.4
555.86	2764.45
556.313	2727.65
556.765	2710.35
557.218	2668.15
557.67	2655.45
558.123	2625.5
558.576	2609
559.028	2621.45
559.48	2645.4
559.933	2626.65
560.385	2543.6
560.838	2465.9
561.29	2392.7
561.742	2377.7
562.195	2331.4
562.647	2324.45
563.099	2319.05
563.551	2297.75
564.004	2327.2
564.456	2310.3
564.908	2263.5
565.36	2214.55
565.812	2166.3
566.264	2154
566.716	2110.25
567.168	2088.75
567.62	2096.4
568.072	2079.45
568.524	2054.35
568.976	2046.95
569.428	2023.75
569.88	2007.65
570.332	2029
570.784	2016.65
571.235	2012.5
571.687	2031.55
572.139	2034.05
572.59	2058.2
573.042	2062.3
573.494	2059.1
573.945	2023.95
574.397	1988.15
574.849	1985.9
575.3	2005.45
575.752	1967.5
576.203	1950.5
576.655	1962.9
577.106	1933.1
577.557	1917.95
578.009	1898.15
578.46	1922.25
578.912	1900.1
579.363	1911.6
579.814	1908.25
580.265	1903.5
580.717	1909.15
581.168	1900.3
581.619	1915.55
582.07	1930.65
582.521	1933.4
582.972	1920.9
583.423	1939.15
583.875	1989.5
584.326	2080.75
584.777	2276.35
585.227	2487.2
585.678	2664
586.129	2697
586.58	2763.1
587.031	2798.45
587.482	2972.6
587.933	3496.6
588.384	3208.05
588.834	2644.3
589.285	2227.2
589.736	2179.8
590.186	2182.8
590.637	2167.9
591.088	2109.35
591.538	2084.45
591.989	2066.15
592.439	2057.2
592.89	2036.3
593.34	2041.3
593.791	2062.15
594.241	2065.45
594.692	2089.55
595.142	2064
595.593	2036.6
596.043	2035.95
596.493	2056.6
596.943	2125.2
597.394	2087.8
597.844	2050.15
598.294	2082.6
598.744	2163.4
599.195	2265.3
599.645	2388.65
600.095	2511.45
600.545	2636.7
600.995	2733.6
601.445	2853.55
601.895	2995.3
602.345	3090.05
602.795	3026.35
603.245	2901.1
603.695	2730.35
604.145	2573.9
604.594	2439.35
605.044	2320.1
605.494	2173.6
605.944	2073.6
606.393	2023.7
606.843	1998.45
607.293	2002.8
607.743	1982.15
608.192	2005.15
608.642	2016
609.091	2029.4
609.541	2011.45
609.99	2004.2
610.44	1976.15
610.889	1948.85
611.339	1938.65
611.788	1906.45
612.238	1935.2
612.687	1951.7
613.136	1984.75
613.586	2009.2
614.035	2003.65
614.484	2041.7
614.933	2049.1
615.383	1994.65
615.832	1933.3
616.281	1899.45
616.73	1841.25
617.179	1797.6
617.628	1752.35
618.077	1719.3
618.526	1692.75
618.975	1683.45
619.424	1649.35
619.873	1673.1
620.322	1647.85
620.771	1648.8
621.22	1620.85
621.669	1590.15
622.118	1578.75
622.567	1567.35
623.015	1533.05
623.464	1535.95
623.913	1508.3
624.361	1508.55
624.81	1511.2
625.259	1498.85
625.707	1482.8
626.156	1494.5
626.604	1507.75
627.053	1519.95
627.501	1515.4
627.95	1516.8
628.398	1542.8
628.847	1523.4
629.295	1528.8
629.744	1541.95
630.192	1578.7
630.64	1693.85
631.089	1853.75
631.537	1949.45
631.985	1949.4
632.433	2035.45
632.881	2032.45
633.33	2455.2
633.778	2691.3
634.226	1875.5
634.674	1735
635.122	1730.95
635.57	1748.45
636.018	2043.95
636.466	1656.7
636.914	1475.65
637.362	1468.4
637.81	1494.25
638.258	1523.15
638.705	1547.3
639.153	1587.85
639.601	1608.45
640.049	1626.95
640.497	1671.55
640.944	1726.15
641.392	1650.65
641.84	1550.85
642.287	1487
642.735	1466.2
643.182	1455.6
643.63	1440.65
644.078	1451.4
644.525	1473.75
644.973	1508.5
645.42	1522.35
645.867	1542.3
646.315	1571.8
646.762	1625.75
647.21	1674.1
647.657	1759.4
648.104	1819.4
648.551	1869.55
648.999	2026.35
649.446	2220.7
649.893	2506.25
650.34	2912.05
650.787	3626.3
651.234	4690.65
651.682	6513.6
652.129	9285.2
652.576	13229.75
653.023	15536.3
653.47	15539.5
653.917	15539.55
654.363	15539.45
654.81	15536.45
655.257	15537.1
655.704	15540.9
656.151	10208.9
656.598	6610
657.044	4722.5
657.491	3688.15
657.938	2996.15
658.385	2534.35
658.831	2235.2
659.278	2008.55
659.724	1849.6
660.171	1718.2
660.618	1600.2
661.064	1498.7
661.511	1451.85
661.957	1404.85
662.404	1379.9
662.85	1363.7
663.296	1341.75
663.743	1313.65
664.189	1297.4
664.635	1293.15
665.082	1266.8
665.528	1261.3
665.974	1235.25
666.42	1215.05
666.867	1247.75
667.313	1249.5
667.759	1304.05
668.205	1299.35
668.651	1312.15
669.097	1271.15
669.543	1398.5
669.989	1310.05
670.435	1149.85
670.881	1157.6
671.327	1186.5
671.773	1267.1
672.219	1357.95
672.665	1449
673.11	1499.7
673.556	1517
674.002	1554.05
674.448	1571.35
674.893	1336.65
675.339	1163.55
675.785	1081.5
676.23	1018.45
676.676	976.55
677.122	969.55
677.567	934
678.013	908.75
678.458	911.2
678.904	900.65
679.349	883.7
679.794	892.6
680.24	882.5
680.685	878.8
681.131	880.5
681.576	886.95
682.021	887.25
682.466	889.8
682.912	906.8
683.357	943.45
683.802	1027.15
684.247	1116.4
684.692	1190.85
685.137	1241.6
685.583	1263.25
686.028	1333.1
686.473	1260.5
686.918	1086.9
687.363	998.8
687.807	952.25
688.252	898.2
688.697	873.4
689.142	851.5
689.587	846.85
690.032	872
690.477	896.85
690.921	947.1
691.366	1000.4
691.811	1038.3
692.255	1116.4
692.7	1369.7
693.145	1963.55
693.589	3012.8
694.034	3558.25
694.478	3795.7
694.923	3477.1
695.367	4985.95
695.812	2996.5
696.256	1256.45
696.701	924.2
697.145	862.3
697.59	841.3
698.034	824.15
698.478	820.45
698.922	833.3
699.367	851.9
699.811	888.45
700.255	963.3
700.699	1054.6
701.143	1137.25
701.588	1194.7
702.032	1245.55
702.476	1292.85
702.92	1363.4
703.364	1796.4
703.808	2742
704.252	3423.95
704.696	3601.7
705.14	3408.1
705.584	4717.4
706.027	2589.45
706.471	1305.7
706.915	969.15
707.359	867.4
707.803	815.4
708.246	788.7
708.69	790.15
709.134	769.55
709.577	771.65
710.021	782
710.465	771.9
710.908	773.9
711.352	802.95
711.795	891.3
712.239	962.2
712.682	987.5
713.126	979.55
713.569	1086.85
714.012	902
714.456	797.05
714.899	742.85
715.342	698.2
715.786	670.95
716.229	645.8
716.672	635.65
717.115	643.35
717.558	651.95
718.002	663.6
718.445	690.7
718.888	729.1
719.331	740.45
719.774	756.05
720.217	730.6
720.66	703.35
721.103	655.1
721.546	633.2
721.989	606.15
722.432	600.4
722.874	604.45
723.317	611.9
723.76	664.4
724.203	817.3
724.645	1083.15
725.088	1270.3
725.531	1248.25
725.974	1364.25
726.416	1216.6
726.859	758.4
727.301	626.5
727.744	591.95
728.187	595.25
728.629	612.9
729.071	636.2
729.514	659.75
729.956	691.1
730.399	695.8
730.841	695.95
731.283	676.4
731.726	655.35
732.168	672.5
732.61	707.25
733.053	761.45
733.495	842.85
733.937	941.15
734.379	1103.7
734.821	1420
735.263	2267.2
735.705	4068.6
736.148	5949.7
736.59	5909
737.032	6452.25
737.474	5295.05
737.916	2010.65
738.357	1066.25
738.799	817.35
739.241	758.6
739.683	765.65
740.125	779.5
740.567	784.1
741.008	818.65
741.45	847.55
741.892	880.35
742.334	879.05
742.775	862.85
743.217	824.65
743.658	717.75
744.1	722.9
744.542	809.1
744.983	830.45
745.425	874.95
745.866	868.05
746.307	769.8
746.749	842.25
747.19	1223.9
747.632	2392.15
748.073	4449.85
748.514	6093.8
748.956	8104
749.397	9455
749.838	6504.4
750.279	6236.4
750.72	3196.45
751.162	1340.75
751.603	767.6
752.044	626.9
752.485	548.4
752.926	514.45
753.367	498.1
753.808	480.85
754.249	477.65
754.69	474.9
755.131	473.05
755.572	465.9
756.013	462.4
756.453	463.6
756.894	476.4
757.335	473.75
757.776	479.9
758.216	505.7
758.657	526.1
759.098	584.5
759.538	721.25
759.979	1026.65
760.42	2103.3
760.86	5409.3
761.301	11069.15
761.741	12831.1
762.182	14672.4
762.622	9558.8
763.063	3425.85
763.503	1504.8
763.943	1141.25
764.384	1222.4
764.824	1158
765.264	1153
765.705	819.1
766.145	590.25
766.585	528.9
767.025	553.3
767.465	721.3
767.906	868.9
768.346	913.2
768.786	958.25
769.226	983.5
769.666	1711.5
770.106	3738.25
770.546	5251.75
770.986	5931.15
771.426	4451.1
771.866	1856.6
772.306	846.45
772.745	536.6
773.185	459.5
773.625	466.6
774.065	548.1
774.505	886.55
774.944	1776.2
775.384	2658.85
775.824	3048.1
776.263	2491.95
776.703	1212.25
777.142	613.9
777.582	419
778.021	380.95
778.461	364.9
778.9	351.7
779.34	320.5
779.779	309.5
780.219	297.15
780.658	293.4
781.097	291.15
781.537	283.8
781.976	282.75
782.415	279.6
782.855	282.9
783.294	279.2
783.733	275.9
784.172	286.25
784.611	279.65
785.05	284.25
785.489	287.95
785.928	297.15
786.367	306.65
786.806	327.1
787.245	346.65
787.684	351.45
788.123	359.45
788.562	340.75
789.001	324.75
789.44	317.95
789.879	319
790.317	321.8
790.756	340.5
791.195	385.4
791.634	534
792.072	964.15
792.511	2387.1
792.95	4365.25
793.388	5246.95
793.827	3359.6
794.265	1532.95
794.704	737.1
795.142	441.2
795.581	371.85
796.019	343.35
796.458	335.95
796.896	346.7
797.334	404.7
797.773	540.1
798.211	1043.95
798.649	2158.4
799.087	3638.8
799.526	5096.8
799.964	5257.4
800.402	3572.25
800.84	1614.5
801.278	786.4
801.716	477.65
802.154	390.1
802.592	370.4
803.03	366.2
803.468	380.7
803.906	382.15
804.344	371.25
804.782	362.3
805.22	362.8
805.658	379.2
806.096	400.4
806.533	444.65
806.971	576.5
807.409	839.05
807.847	1692.35
808.284	4345.7
808.722	7512.8
809.16	10558.45
809.597	14147.75
810.035	15541.45
810.472	11332.3
810.91	4831.9
811.347	2149.5
811.785	1005.35
812.222	632.75
812.66	490.5
813.097	416.7
813.535	364.9
813.972	327.25
814.409	306.2
814.846	287.2
815.284	270.3
815.721	282.45
816.158	302.1
816.595	383.9
817.032	465.95
817.47	426.7
817.907	337.35
818.344	299.4
818.781	289.4
819.218	330.3
819.655	478.3
820.092	613.4
820.529	567.85
820.966	462.35
821.403	345.75
821.839	304
822.276	321.95
822.713	366.6
823.15	350.7
823.587	387.85
824.023	700.85
824.46	1781.65
824.897	3077.6
825.333	2358.4
825.77	1080.25
826.206	566.65
826.643	332.25
827.08	254.4
827.516	220.8
827.953	204.1
828.389	194.15
828.825	185.95
829.262	175.65
829.698	170.8
830.135	164.3
830.571	164.85
831.007	165.8
831.443	171.05
831.88	172.65
832.316	184.2
832.752	178.95
833.188	177.15
833.624	181.25
834.06	177.6
834.497	182.55
834.933	185.4
835.369	199.25
835.805	206.75
836.241	218.65
836.677	240.35
837.112	276.6
837.548	345.15
837.984	519.45
838.42	1114.7
838.856	3122.45
839.292	6127.25
839.727	4472.35
840.163	3038.35
840.599	4647.9
841.034	7051.7
841.47	3483.5
841.906	1702.35
842.341	962.45
842.777	827.9
843.212	971.95
843.648	574
844.083	359.35
844.519	246.7
844.954	199.7
845.39	177.05
845.825	166.05
846.261	158.85
846.696	153.5
847.131	147
847.566	142.35
848.002	155.1
848.437	168.2
848.872	171.1
849.307	215.25
849.742	393.75
850.177	1022
850.613	2154.6
851.048	1517.75
851.483	697.45
851.918	395.1
852.353	228.75
852.788	178.7
853.223	150.05
853.657	134.1
854.092	127.45
854.527	124.7
854.962	130.45
855.397	137.5
855.832	120.25
856.266	107.95
856.701	110.65
857.136	112.9
857.57	129
858.005	152
858.44	135.5
858.874	132.15
859.309	136.35
859.743	135
860.178	129.75
860.612	139.8
861.047	177
861.481	226.95
861.915	161.25
862.35	131.7
862.784	108.6
863.218	105.15
863.653	115
864.087	135.45
864.521	178.45
864.955	298.55
865.39	501.75
865.824	363.3
866.258	413.75
866.692	589.9
867.126	422.9
867.56	237.45
867.994	157.3
868.428	136.2
868.862	165.2
869.296	154
869.73	183.2
870.164	159.05
870.598	146.85
871.031	107
871.465	96.6
871.899	82.15
872.333	70
872.766	75.75
873.2	80.65
873.634	83.25
874.067	80.9
874.501	85.1
874.935	83.7
875.368	88.1
875.802	78.95
876.235	72.3
876.669	73.55
877.102	65.95
877.535	67.3
877.969	60.6
878.402	64.8
878.836	66.95
879.269	64.5
879.702	65.35
880.135	69.5
880.569	75.55
881.002	69.35
881.435	65.85
881.868	63.55
882.301	55.75
882.734	59.45
883.167	62.45
883.601	57.9
884.034	60.2
884.467	49.75
884.899	56.75
885.332	52.6
885.765	53.95
886.198	47.25
886.631	51.7
887.064	52.6
887.497	53.65
887.929	54.25
888.362	46.75
888.795	48.2
889.228	56.7
889.66	53.3
890.093	48.2
890.526	48.95
890.958	56.35
891.391	58.2
891.823	44.8
892.256	51.3
892.688	52.5
893.121	45.7
893.553	50.85
893.985	43.6
894.418	41.25
894.85	52.7
895.282	50
895.715	41.25
896.147	42.75
896.579	40.8
897.011	47.15
897.444	46.75
897.876	42.65
898.308	40.4
898.74	45.15
899.172	49.95
899.604	49.05
900.036	48.45
900.468	42.8
900.9	49.8
901.332	57.4
901.764	59.55
902.196	54.65
902.628	56.4
903.06	74.55
903.491	79.75
903.923	70.6
904.355	73.3
904.787	75.7
905.218	63.65
905.65	59.2
906.082	56.1
906.513	55.1
906.945	52.7
907.376	60.6
907.808	60.3
908.239	63.25
908.671	69.1
909.102	69.9
909.534	103.15
909.965	200.05
910.397	500.1
910.828	1450.7
911.259	867.4
911.691	468.35
912.122	270.1
912.553	141.8
912.984	79.05
913.415	67.25
913.847	61.3
914.278	59.3
914.709	52.05
915.14	51.8
915.571	49.65
916.002	45.35
916.433	42.95
916.864	45.1
917.295	46.7
917.726	57.05
918.157	68.35
918.587	65.75
919.018	64.55
919.449	61.95
919.88	72.3
920.311	108.55
920.741	306.45
921.172	526.8
921.603	267.25
922.033	168.65
922.464	108.5
922.895	68.2
923.325	53.8
923.756	53.2
924.186	72
924.617	122.3
925.047	177.3
925.478	163.95
925.908	116.2
926.338	81.7
926.769	57.9
927.199	51.15
927.629	46.9
928.06	44
928.49	44.4
928.92	35.1
929.35	34.9
929.78	30.65
930.21	29.9
930.641	28.1
931.071	22.85
931.501	28.75
931.931	26.15
932.361	25.3
932.791	28.9
933.221	31.75
933.651	45.1
934.08	74.25
934.51	44.55
934.94	39.4
935.37	29.5
935.8	24.35
936.229	23.55
936.659	23.55
937.089	34.75
937.519	50.55
937.948	71.15
938.378	43.4
938.807	27.75
939.237	21.95
939.666	23.75
940.096	14
940.525	15.5
940.955	13
941.384	11
941.814	14.1
942.243	14.65
942.672	13.25
943.102	8.65
943.531	11.9
943.96	14.35
944.39	12.05
944.819	17.35
945.248	9.8
945.677	7.7
946.106	12.25
946.535	15.75
946.964	12.75
947.393	11.3
947.822	12
948.251	14.3
948.68	12.7
949.109	12.55
949.538	13.25
949.967	13.1
950.396	6.35
950.825	16.1
951.254	13.5
951.682	5.5
952.111	5.75
952.54	11.4
952.969	9.55
953.397	11.05
953.826	4.15
954.254	11.65
954.683	10.4
955.112	15.4
955.54	10.6
955.969	9.4
956.397	9.1
956.826	5.95
957.254	6.3
957.682	10.8
958.111	11.25
958.539	13.25
958.967	11.7
959.396	12.55
959.824	11.45
960.252	9
960.68	10.1
961.109	8.7
961.537	14.2
961.965	5.15
962.393	11.9
962.821	10.7
963.249	9.35
963.677	18.9
964.105	91.8
964.533	156.5
964.961	77.85
965.389	44.45
965.817	26.95
966.245	15.2
966.672	9.8
967.1	10.3
967.528	3.8
967.956	6.3
968.383	11.4
968.811	7.45
969.239	4.6
969.666	8.1
970.094	7.15
970.522	1.65
970.949	7.5
971.377	0.45
971.804	2.35
972.232	3.7
972.659	7.1
973.087	7.5
973.514	5.1
973.941	3.65
974.369	1.8
974.796	3.55
975.223	6.95
975.651	7.35
976.078	4.9
976.505	12
976.932	35.55
977.359	46.8
977.786	31.5
978.214	19.45
978.641	10.95
979.068	9.15
979.495	5.95
979.922	9.3
980.349	8
980.776	7.9
981.202	4.65
981.629	5.9
982.056	7
982.483	1.45
982.91	10.1
983.337	2.8
983.763	5.45
984.19	8.8
984.617	1.75
985.043	7.3
985.47	9.65
985.897	5.05
986.323	9.6
986.75	2.5
987.176	1.7
987.603	6.2
988.029	4.15
988.456	8.45
988.882	5.25
989.308	6.6
989.735	0.85
990.161	5.1
990.587	6.6
991.014	5.35
991.44	9
991.866	3.7
992.292	6.35
992.719	3.8
993.145	7.25
993.571	4.1
993.997	7.55
994.423	8.15
994.849	-0.1
995.275	7.15
995.701	6.7
996.127	-0.55
996.553	2.8
996.979	4.85
997.405	6.15
997.83	3.85
998.256	8.45
998.682	1.85
999.108	4.8
999.534	-2.6
999.959	2.95
1000.385	7.45
1000.811	0.8
1001.236	-2.9
1001.662	1.35
1002.087	8.75
1002.513	4.55
1002.938	5.05
1003.364	4.55
1003.789	7.05
1004.215	6.45
1004.64	7.95
1005.066	4.85
1005.491	6.25
1005.916	2
1006.342	3.2
1006.767	5.15
1007.192	7.95
1007.617	3.05
1008.042	6.3
1008.468	3.05
1008.893	6.35
1009.318	9.6
1009.743	17.75
1010.168	22.9
1010.593	25.1
1011.018	11.6
1011.443	7.1
1011.868	8.6
1012.293	6.7
1012.718	5.75
1013.143	5.05
1013.567	7.6
1013.992	7.45
1014.417	3.7
1014.842	4.3
1015.267	2.95
1015.691	6.15
1016.116	6
1016.541	7.1
1016.965	3.65
1017.39	3.65
1017.814	-2.7
1018.239	-1.35
1018.663	-1.25
1019.088	-1.9
1019.512	3.15
1019.937	-0.9
1020.361	3.3
1020.785	0.3
1021.21	-3.6
1021.634	-0.45
1022.058	0.2
1022.483	-3.1
1022.907	-0.85
1023.331	-1.75
1023.755	-1.85
1024.179	2.5
1024.604	0.9
1025.028	3.45
1025.452	7.25
1025.876	4.25
1026.3	2.25
1026.724	-1.6
1027.148	5.05
1027.572	1.2
1027.996	3.8
1028.42	2.95
1028.843	-0.3
1029.267	-1.25
1029.691	3.45
1030.115	-0.25
1030.539	4.8
1030.962	-4.45
1031.386	1.2
1031.81	0.15
1032.233	-0.6
1032.657	-3.8
1033.08	1.55
1033.504	0.4
1033.927	-2.45
1034.351	-3.75
1034.774	-1.7
1035.198	0.1
1035.621	0.65
1036.045	-0.25
1036.468	4.55
1036.891	3.65
1037.315	4.85
1037.738	0.05
1038.161	0.3
1038.584	0.25
1039.008	-3.8
1039.431	-0.7
1039.854	-3.3
1040.277	3.2
1040.7	2.6
1041.123	1.95
1041.546	-1.55
1041.969	4.25
1042.392	4.25
1042.815	-7
1043.238	-2.7
1043.661	0.3
1044.084	-1.25
1044.507	-1.7
1044.93	-5.4
1045.352	2.3
1045.775	3.25
1046.198	0.95
1046.621	4.5
1047.043	-1.15
1047.466	1.25
1047.889	-2.8
1048.311	2.4
1048.734	-3.2
1049.156	1.85
1049.579	1.6
1050.001	-0.4
1050.424	-4
1050.846	-6
1051.269	-2.55
1051.691	0.35
1052.113	-2.35
1052.536	-3.3
1052.958	-2.7
1053.38	0.2
1053.802	1.15
1054.225	4.5
1054.647	-0.25
1055.069	-1.3
1055.491	0.15
1055.913	-0.55
1056.335	-7.25
1056.757	-4.1
1057.179	1
1057.601	-1.45
1058.023	-0.3
1058.445	-3.7
1058.867	0.85
1059.289	-0.4
1059.711	-3.55
1060.133	1
1060.555	-2
1060.976	4.8
1061.398	-0.3
1061.82	1.65
1062.241	2.05
1062.663	-0.25
1063.085	-0.85
1063.506	-7.55
1063.928	-1.65
1064.35	-0.7
1064.771	-0.3
1065.193	-2.75
1065.614	-3.9
1066.035	7.25
1066.457	3.1
1066.878	3.25
1067.3	-1.3
1067.721	2.45
1068.142	4.45
1068.564	4.95
1068.985	2.95
1069.406	-6.4
1069.827	-3.55
1070.248	-1.5
1070.67	-2.35
1071.091	-4.55
1071.512	-2.8
1071.933	-2.45
1072.354	-4.9
1072.775	-1.3
1073.196	1.2
1073.617	-3.9
1074.038	-1.75
1074.459	-3.45
1074.88	-2.05
1075.3	2.25
1075.721	2.55
1076.142	-0.9
1076.563	-4
1076.983	0.85
1077.404	-5.95
1077.825	-3.1
1078.246	-3.2
1078.666	-3.4
1079.087	-5.5
1079.507	-8.9
1079.928	0.9
1080.348	-2
1080.769	2.75
1081.189	-2.4
1081.61	-6.6
1082.03	4.75
1082.451	-3.95
1082.871	-4.75
1083.291	3.6
1083.711	-3.6
1084.132	-2.2
1084.552	-9.05
1084.972	-3.3
1085.392	-5.2
1085.813	0.6
1086.233	0.1
1086.653	1.25
1087.073	-2.3
1087.493	0.35
1087.913	-2.05
1088.333	-5.3
1088.753	5.2
1089.173	0.15
1089.593	-1.6
1090.013	-1.55
1090.433	-7.3
1090.852	-0.35
1091.272	-2.95
1091.692	-0.4
1092.112	-0.65
1092.531	-2.85
1092.951	-2.25
1093.371	-0.95
1093.79	-3.4
1094.21	-3.05
1094.63	-3.65
1095.049	-2.55
1095.469	-10.25
1095.888	-1.05
1096.308	-1.9
1096.727	-3.05
1097.146	-5.65
1097.566	-3.55
1097.985	-0.05
1098.405	-2.05
1098.824	-2.4
1099.243	-6.7
1099.662	-7.85
1100.082	-4.05
1100.501	-3.05
1100.92	3
1101.339	1.6
1101.758	1.8
