Data from MSPlasma+Separation6_Subt14_10-15-36-171.txt Node
Date: Fri Jul 21 10:15:36 EDT 2017
User: Ender
Spectrometer: HR+D1039
Trigger mode: 0
Integration Time (sec): 2.510000E-3
Scans to average: 20
Electric dark correction enabled: true
Nonlinearity correction enabled: false
Boxcar width: 0
XAxis mode: Wavelengths
Number of Pixels in Spectrum: 2048
>>>>>Begin Spectral Data<<<<<
187.836	0.08
188.309	0.08
188.782	0.08
189.255	-3.77
189.728	0.98
190.201	1.43
190.674	1.98
191.147	0.28
191.619	-1.62
192.092	0.88
192.565	-1.87
193.038	4.43
193.511	1.98
193.984	-1.37
194.456	-1.27
194.929	2.13
195.402	-2.12
195.874	-2.12
196.347	3.38
196.82	2.03
197.292	-2.72
197.765	-3.87
198.237	-1.47
198.71	-1.37
199.182	-0.27
199.655	2.13
200.127	0.08
200.6	-0.82
201.072	0.38
201.544	-2.17
202.017	2.08
202.489	0.93
202.961	-3.42
203.433	-5.87
203.906	1.43
204.378	0.68
204.85	1.38
205.322	-8.82
205.794	5.33
206.266	-1.17
206.739	1.63
207.211	-4.17
207.683	0.73
208.155	-1.02
208.627	-0.87
209.099	6.13
209.57	0.88
210.042	0.68
210.514	4.03
210.986	4.58
211.458	9.53
211.93	2.48
212.402	3.58
212.873	-2.82
213.345	-2.92
213.817	6.58
214.288	-2.87
214.76	3.68
215.232	-2.52
215.703	0.18
216.175	-1.37
216.646	0.58
217.118	0.33
217.589	-6.97
218.061	-1.42
218.532	-6.72
219.004	1.78
219.475	0.53
219.946	9.28
220.418	14.68
220.889	7.98
221.36	6.38
221.832	6.18
222.303	0.88
222.774	-2.52
223.245	-4.72
223.717	-1.92
224.188	-0.12
224.659	1.03
225.13	-4.37
225.601	2.08
226.072	-2.07
226.543	1.48
227.014	-1.97
227.485	2.48
227.956	1.18
228.427	7.88
228.898	2.48
229.369	1.48
229.839	2.38
230.31	7.78
230.781	3.03
231.252	5.13
231.722	9.23
232.193	9.78
232.664	18.18
233.135	21.48
233.605	20.28
234.076	19.78
234.546	15.63
235.017	14.93
235.487	13.98
235.958	10.83
236.428	26.38
236.899	38.63
237.369	48.48
237.84	33.13
238.31	43.73
238.78	36.43
239.251	41.03
239.721	39.93
240.191	25.88
240.662	16.78
241.132	11.68
241.602	16.08
242.072	24.08
242.542	28.53
243.013	21.08
243.483	22.53
243.953	12.18
244.423	17.13
244.893	17.33
245.363	21.43
245.833	21.93
246.303	23.98
246.773	28.93
247.243	29.68
247.712	38.58
248.182	45.03
248.652	44.58
249.122	71.28
249.592	130.38
250.061	196.48
250.531	313.48
251.001	238.73
251.471	195.73
251.94	151.48
252.41	78.58
252.879	58.58
253.349	41.23
253.818	34.08
254.288	28.03
254.757	27.23
255.227	37.13
255.696	29.03
256.166	28.03
256.635	30.33
257.105	36.13
257.574	48.63
258.043	50.93
258.513	98.88
258.982	120.93
259.451	85.68
259.92	81.03
260.389	76.38
260.859	58.93
261.328	67.33
261.797	99.78
262.266	84.38
262.735	42.03
263.204	25.13
263.673	20.83
264.142	17.28
264.611	18.33
265.08	17.53
265.549	23.98
266.018	20.33
266.487	19.88
266.955	18.13
267.424	23.58
267.893	26.38
268.362	20.83
268.83	19.83
269.299	20.03
269.768	27.73
270.236	31.68
270.705	36.88
271.174	37.03
271.642	36.38
272.111	48.48
272.579	74.68
273.048	126.13
273.516	157.28
273.985	159.33
274.453	120.43
274.922	69.38
275.39	44.88
275.858	38.98
276.327	28.63
276.795	27.13
277.263	35.68
277.731	54.98
278.2	110.63
278.668	138.08
279.136	110.68
279.604	66.63
280.072	36.38
280.54	35.08
281.008	37.38
281.477	37.28
281.945	35.38
282.413	37.28
282.881	39.78
283.348	39.33
283.816	40.43
284.284	41.88
284.752	41.93
285.22	43.23
285.688	45.18
286.156	84.03
286.623	236.43
287.091	457.63
287.559	234.33
288.026	92.63
288.494	55.58
288.962	44.58
289.429	40.08
289.897	36.93
290.364	35.03
290.832	34.28
291.3	36.13
291.767	38.88
292.234	39.83
292.702	40.03
293.169	42.53
293.637	50.53
294.104	47.08
294.571	44.28
295.039	45.03
295.506	41.98
295.973	43.58
296.44	43.13
296.908	52.63
297.375	57.78
297.842	54.98
298.309	46.88
298.776	45.38
299.243	52.33
299.71	44.33
300.177	48.73
300.644	50.78
301.111	55.58
301.578	57.28
302.045	48.08
302.512	45.93
302.979	47.43
303.446	55.58
303.913	57.88
304.379	59.73
304.846	67.68
305.313	78.53
305.78	94.28
306.246	109.68
306.713	119.48
307.18	103.58
307.646	115.73
308.113	99.93
308.579	76.33
309.046	72.08
309.512	72.78
309.979	69.53
310.445	58.73
310.912	66.43
311.378	66.98
311.845	61.93
312.311	65.13
312.777	59.08
313.244	68.88
313.71	66.23
314.176	81.28
314.642	89.23
315.109	102.03
315.575	99.98
316.041	87.48
316.507	79.63
316.973	92.78
317.439	89.68
317.905	102.48
318.371	99.38
318.837	94.98
319.303	99.43
319.769	90.18
320.235	103.08
320.701	118.63
321.167	127.98
321.633	158.78
322.099	216.58
322.564	291.43
323.03	230.78
323.496	155.63
323.962	149.68
324.427	135.83
324.893	117.38
325.359	110.28
325.824	97.23
326.29	103.93
326.755	101.13
327.221	100.33
327.686	114.28
328.152	97.43
328.617	92.93
329.083	99.73
329.548	96.53
330.014	106.38
330.479	117.68
330.944	137.43
331.41	162.23
331.875	147.03
332.34	152.58
332.805	186.73
333.271	233.93
333.736	313.13
334.201	274.43
334.666	205.93
335.131	238.63
335.596	183.93
336.061	187.33
336.526	194.18
336.991	172.53
337.456	183.68
337.921	143.38
338.386	114.93
338.851	101.28
339.316	96.03
339.781	94.43
340.246	93.98
340.711	96.93
341.175	97.63
341.64	98.63
342.105	104.98
342.569	111.08
343.034	113.43
343.499	123.73
343.963	116.03
344.428	115.68
344.893	116.78
345.357	121.78
345.822	120.48
346.286	115.68
346.751	120.03
347.215	120.73
347.679	127.98
348.144	135.38
348.608	132.78
349.073	140.33
349.537	160.13
350.001	153.78
350.465	137.93
350.93	134.53
351.394	136.68
351.858	138.83
352.322	142.63
352.786	142.83
353.25	142.93
353.715	139.83
354.179	152.58
354.643	149.98
355.107	157.53
355.571	163.13
356.035	171.43
356.498	169.18
356.962	182.03
357.426	176.93
357.89	157.63
358.354	146.58
358.818	145.73
359.281	153.78
359.745	161.08
360.209	156.28
360.673	155.73
361.136	163.43
361.6	162.18
362.064	170.43
362.527	182.78
362.991	169.98
363.454	176.33
363.918	178.98
364.381	176.88
364.845	173.48
365.308	166.63
365.772	169.13
366.235	174.68
366.698	181.43
367.162	217.13
367.625	246.48
368.088	197.83
368.552	178.43
369.015	183.13
369.478	195.13
369.941	199.53
370.404	200.58
370.867	221.13
371.331	218.83
371.794	223.53
372.257	245.03
372.72	261.23
373.183	252.33
373.646	252.18
374.109	249.48
374.572	295.68
375.035	347.18
375.497	257.88
375.96	206.88
376.423	199.63
376.886	197.48
377.349	200.38
377.811	201.63
378.274	206.23
378.737	206.93
379.199	209.53
379.662	217.18
380.125	235.98
380.587	263.33
381.05	275.98
381.512	280.43
381.975	266.73
382.437	270.48
382.9	263.83
383.362	266.53
383.825	290.18
384.287	364.53
384.75	404.43
385.212	357.38
385.674	292.48
386.136	266.33
386.599	269.43
387.061	272.73
387.523	282.13
387.985	288.93
388.447	303.08
388.91	339.38
389.372	412.48
389.834	386.88
390.296	314.13
390.758	315.78
391.22	323.98
391.682	405.68
392.144	619.93
392.606	582.93
393.068	349.48
393.529	311.23
393.991	297.48
394.453	289.68
394.915	307.73
395.377	382.38
395.838	464.58
396.3	327.78
396.762	256.93
397.224	247.68
397.685	235.48
398.147	240.88
398.608	244.13
399.07	252.13
399.531	240.78
399.993	245.18
400.454	243.63
400.916	246.18
401.377	256.18
401.839	255.68
402.3	255.63
402.762	269.13
403.223	296.68
403.684	305.83
404.145	279.18
404.607	275.28
405.068	272.58
405.529	279.38
405.99	283.28
406.451	288.68
406.913	283.48
407.374	290.18
407.835	285.03
408.296	295.88
408.757	298.23
409.218	307.63
409.679	313.03
410.14	309.83
410.601	331.83
411.062	342.63
411.522	393.38
411.983	443.33
412.444	375.38
412.905	328.63
413.366	326.23
413.826	328.98
414.287	365.33
414.748	429.93
415.208	441.88
415.669	372.73
416.13	344.18
416.59	329.43
417.051	343.33
417.511	354.78
417.972	384.13
418.432	416.48
418.893	459.38
419.353	437.38
419.814	339.78
420.274	305.78
420.734	310.08
421.195	328.03
421.655	340.58
422.115	328.13
422.576	315.98
423.036	319.33
423.496	332.68
423.956	346.88
424.416	373.68
424.876	420.98
425.336	418.88
425.797	416.28
426.257	423.03
426.717	394.28
427.177	372.88
427.637	387.23
428.097	409.88
428.556	425.33
429.016	467.23
429.476	463.68
429.936	451.58
430.396	441.93
430.856	449.78
431.315	455.93
431.775	485.83
432.235	503.78
432.694	524.58
433.154	492.48
433.614	473.98
434.073	455.88
434.533	412.28
434.993	405.43
435.452	402.68
435.912	394.33
436.371	394.18
436.83	398.33
437.29	393.88
437.749	372.43
438.209	370.63
438.668	376.78
439.127	373.93
439.587	371.58
440.046	346.23
440.505	358.58
440.964	356.28
441.424	361.68
441.883	374.08
442.342	351.88
442.801	337.43
443.26	348.08
443.719	346.18
444.178	341.98
444.637	344.88
445.096	342.53
445.555	357.23
446.014	358.43
446.473	345.13
446.932	339.43
447.391	349.08
447.849	356.88
448.308	354.43
448.767	360.88
449.226	368.08
449.685	368.83
450.143	390.48
450.602	388.83
451.061	371.73
451.519	378.78
451.978	384.73
452.436	398.73
452.895	384.28
453.353	369.83
453.812	370.78
454.27	365.48
454.729	351.33
455.187	359.68
455.646	366.33
456.104	364.43
456.562	367.93
457.021	357.23
457.479	347.38
457.937	352.08
458.395	358.53
458.854	354.63
459.312	356.08
459.77	356.78
460.228	363.73
460.686	364.78
461.144	366.78
461.602	361.03
462.06	365.68
462.518	377.73
462.976	368.18
463.434	380.08
463.892	380.33
464.35	384.73
464.808	396.23
465.266	391.78
465.724	404.38
466.181	406.83
466.639	397.73
467.097	417.68
467.555	432.88
468.012	431.38
468.47	429.63
468.928	444.33
469.385	460.43
469.843	459.98
470.3	460.93
470.758	479.63
471.215	481.98
471.673	489.93
472.13	512.73
472.588	515.98
473.045	519.38
473.503	521.88
473.96	557.13
474.417	554.73
474.875	590.08
475.332	612.58
475.789	621.53
476.246	636.33
476.704	667.63
477.161	686.73
477.618	708.38
478.075	756.43
478.532	824.08
478.989	894.33
479.446	997.28
479.903	1056.88
480.36	1180.83
480.817	1262.38
481.274	1364.23
481.731	1495.38
482.188	1615.08
482.645	1744.03
483.102	1861.33
483.558	1980.58
484.015	2089.63
484.472	2089.88
484.929	2014.68
485.385	1933.68
485.842	1865.43
486.299	1758.83
486.755	1577.58
487.212	1414.68
487.668	1249.88
488.125	1155.48
488.582	1054.33
489.038	1004.48
489.494	962.53
489.951	932.43
490.407	904.88
490.864	888.83
491.32	862.33
491.776	844.43
492.233	838.53
492.689	834.03
493.145	819.68
493.602	824.08
494.058	834.48
494.514	847.98
494.97	841.63
495.426	856.13
495.882	853.48
496.338	857.28
496.794	894.78
497.251	905.88
497.707	904.38
498.163	901.53
498.618	901.48
499.074	909.73
499.53	931.03
499.986	945.48
500.442	948.83
500.898	952.18
501.354	966.53
501.809	977.78
502.265	988.98
502.721	1045.78
503.177	1073.53
503.632	1010.33
504.088	1014.43
504.543	1117.08
504.999	1032.28
505.455	906.68
505.91	860.23
506.366	856.53
506.821	849.93
507.277	843.13
507.732	843.08
508.187	842.98
508.643	856.98
509.098	856.98
509.553	859.93
510.009	874.33
510.464	888.03
510.919	898.18
511.375	908.43
511.83	913.83
512.285	936.78
512.74	953.23
513.195	970.68
513.65	988.43
514.105	997.38
514.56	1003.98
515.015	1022.78
515.47	1036.68
515.925	1029.33
516.38	1021.23
516.835	1016.83
517.29	1020.23
517.745	1021.53
518.2	1009.78
518.655	979.43
519.109	959.23
519.564	959.13
520.019	950.93
520.474	940.23
520.928	929.68
521.383	927.58
521.838	928.78
522.292	917.28
522.747	903.83
523.201	902.93
523.656	887.28
524.11	894.93
524.565	887.98
525.019	886.68
525.474	897.88
525.928	898.38
526.382	884.38
526.837	872.23
527.291	875.38
527.745	877.98
528.2	870.48
528.654	865.38
529.108	868.38
529.562	877.78
530.016	867.13
530.47	883.58
530.925	873.08
531.379	868.28
531.833	892.23
532.287	883.58
532.741	871.38
533.195	872.43
533.649	876.68
534.103	877.93
534.556	874.78
535.01	874.18
535.464	877.33
535.918	872.23
536.372	886.58
536.826	879.88
537.279	870.73
537.733	874.83
538.187	873.73
538.64	871.68
539.094	888.78
539.548	898.18
540.001	889.83
540.455	892.38
540.908	897.98
541.362	914.23
541.815	918.08
542.269	942.63
542.722	924.93
543.175	942.13
543.629	947.53
544.082	954.83
544.536	966.23
544.989	965.48
545.442	970.48
545.895	971.43
546.349	961.38
546.802	975.48
547.255	973.08
547.708	977.33
548.161	987.73
548.614	980.68
549.067	990.48
549.52	979.08
549.973	969.48
550.426	967.58
550.879	959.98
551.332	946.48
551.785	967.93
552.238	976.13
552.691	970.08
553.144	996.98
553.596	1007.83
554.049	1014.53
554.502	1032.08
554.955	1042.33
555.407	1066.28
555.86	1054.63
556.313	1037.98
556.765	1036.08
557.218	1017.58
557.67	1028.43
558.123	1008.83
558.576	1006.18
559.028	991.83
559.48	1009.73
559.933	1004.78
560.385	980.33
560.838	948.03
561.29	922.43
561.742	924.28
562.195	905.88
562.647	895.38
563.099	896.53
563.551	886.63
564.004	900.03
564.456	888.63
564.908	872.53
565.36	858.73
565.812	841.78
566.264	838.88
566.716	823.33
567.168	805.18
567.62	818.38
568.072	808.18
568.524	792.48
568.976	794.98
569.428	784.38
569.88	786.28
570.332	791.28
570.784	785.78
571.235	775.78
571.687	791.78
572.139	790.38
572.59	792.18
573.042	795.53
573.494	803.53
573.945	777.93
574.397	771.98
574.849	774.38
575.3	775.58
575.752	764.58
576.203	760.38
576.655	763.73
577.106	743.53
577.557	746.18
578.009	748.63
578.46	749.53
578.912	742.48
579.363	746.68
579.814	743.53
580.265	744.33
580.717	744.58
581.168	737.68
581.619	752.58
582.07	754.23
582.521	749.23
582.972	746.08
583.423	760.53
583.875	776.63
584.326	816.23
584.777	900.93
585.227	988.83
585.678	1062.18
586.129	1079.93
586.58	1102.13
587.031	1110.83
587.482	1176.58
587.933	1385.63
588.384	1272.63
588.834	1036.28
589.285	874.23
589.736	848.13
590.186	846.48
590.637	840.38
591.088	828.28
591.538	809.98
591.989	804.58
592.439	801.23
592.89	798.33
593.34	799.88
593.791	805.28
594.241	815.53
594.692	822.48
595.142	812.68
595.593	804.33
596.043	800.28
596.493	814.23
596.943	834.73
597.394	823.28
597.844	799.73
598.294	817.33
598.744	843.68
599.195	873.73
599.645	924.93
600.095	978.53
600.545	1018.13
600.995	1057.58
601.445	1088.78
601.895	1149.78
602.345	1174.68
602.795	1150.43
603.245	1102.08
603.695	1039.93
604.145	986.48
604.594	948.63
605.044	898.83
605.494	843.38
605.944	807.53
606.393	788.63
606.843	774.28
607.293	781.03
607.743	775.23
608.192	788.23
608.642	791.78
609.091	789.58
609.541	788.33
609.99	780.08
610.44	776.68
610.889	765.23
611.339	759.78
611.788	749.83
612.238	754.78
612.687	772.38
613.136	782.68
613.586	790.78
614.035	791.83
614.484	808.73
614.933	813.98
615.383	800.93
615.832	764.13
616.281	753.98
616.73	720.58
617.179	710.08
617.628	689.93
618.077	684.58
618.526	668.18
618.975	669.68
619.424	655.08
619.873	650.43
620.322	652.33
620.771	652.63
621.22	642.88
621.669	628.98
622.118	619.68
622.567	616.98
623.015	608.68
623.464	611.23
623.913	596.98
624.361	604.28
624.81	597.43
625.259	586.13
625.707	587.68
626.156	582.63
626.604	598.13
627.053	597.73
627.501	596.08
627.95	602.63
628.398	605.38
628.847	597.13
629.295	609.13
629.744	619.38
630.192	636.53
630.64	687.43
631.089	757.68
631.537	806.43
631.985	804.53
632.433	844.28
632.881	841.78
633.33	1004.68
633.778	1113.98
634.226	779.98
634.674	705.58
635.122	703.03
635.57	712.53
636.018	833.53
636.466	671.73
636.914	590.13
637.362	583.48
637.81	583.68
638.258	613.43
638.705	608.78
639.153	635.08
639.601	636.03
640.049	649.58
640.497	668.78
640.944	683.78
641.392	655.73
641.84	620.93
642.287	594.43
642.735	592.68
643.182	583.83
643.63	587.88
644.078	592.58
644.525	596.43
644.973	612.73
645.42	631.18
645.867	639.18
646.315	656.43
646.762	682.63
647.21	695.38
647.657	741.13
648.104	780.73
648.551	814.58
648.999	891.83
649.446	988.53
649.893	1126.68
650.34	1330.28
650.787	1672.03
651.234	2189.73
651.682	3103.73
652.129	4526.23
652.576	6551.28
653.023	8770.38
653.47	10212.98
653.917	11012.98
654.363	11409.03
654.81	12062.68
655.257	12102.58
655.704	8248.63
656.151	4789.58
656.598	3071.63
657.044	2178.43
657.491	1680.48
657.938	1355.53
658.385	1134.98
658.831	992.28
659.278	875.78
659.724	792.88
660.171	735.48
660.618	681.43
661.064	637.23
661.511	608.08
661.957	587.43
662.404	574.18
662.85	561.93
663.296	552.28
663.743	537.83
664.189	542.63
664.635	529.13
665.082	520.83
665.528	514.23
665.974	502.53
666.42	494.48
666.867	503.63
667.313	507.23
667.759	537.93
668.205	541.43
668.651	545.28
669.097	524.93
669.543	579.18
669.989	544.58
670.435	466.93
670.881	459.83
671.327	481.68
671.773	505.63
672.219	548.13
672.665	584.73
673.11	591.03
673.556	597.23
674.002	608.98
674.448	614.98
674.893	527.88
675.339	460.93
675.785	421.53
676.23	407.98
676.676	395.08
677.122	381.03
677.567	378.53
678.013	363.08
678.458	362.03
678.904	360.63
679.349	351.18
679.794	355.43
680.24	351.58
680.685	344.43
681.131	344.18
681.576	353.68
682.021	352.83
682.466	355.48
682.912	356.08
683.357	381.08
683.802	404.73
684.247	452.38
684.692	474.13
685.137	488.73
685.583	491.98
686.028	524.88
686.473	489.43
686.918	427.83
687.363	394.73
687.807	373.53
688.252	354.23
688.697	349.08
689.142	337.68
689.587	341.88
690.032	342.68
690.477	357.53
690.921	375.03
691.366	394.58
691.811	407.43
692.255	442.28
692.7	532.73
693.145	778.93
693.589	1167.53
694.034	1360.88
694.478	1425.18
694.923	1300.63
695.367	1800.83
695.812	1134.43
696.256	498.03
696.701	371.08
697.145	346.18
697.59	329.93
698.034	331.93
698.478	334.98
698.922	328.53
699.367	339.13
699.811	356.68
700.255	388.78
700.699	417.98
701.143	454.33
701.588	470.93
702.032	485.68
702.476	502.08
702.92	538.73
703.364	710.53
703.808	1067.73
704.252	1309.58
704.696	1360.08
705.14	1282.53
705.584	1698.53
706.027	987.18
706.471	507.18
706.915	379.48
707.359	341.33
707.803	320.58
708.246	307.73
708.69	311.38
709.134	301.83
709.577	302.83
710.021	309.83
710.465	307.28
710.908	301.08
711.352	317.68
711.795	357.93
712.239	381.93
712.682	388.93
713.126	379.13
713.569	417.43
714.012	356.68
714.456	313.98
714.899	296.43
715.342	274.83
715.786	259.48
716.229	256.43
716.672	249.53
717.115	250.33
717.558	252.23
718.002	262.78
718.445	270.98
718.888	285.73
719.331	286.98
719.774	293.78
720.217	291.68
720.66	275.53
721.103	261.88
721.546	246.03
721.989	239.73
722.432	242.18
722.874	235.13
723.317	241.23
723.76	263.98
724.203	326.48
724.645	427.68
725.088	501.98
725.531	479.18
725.974	514.18
726.416	472.33
726.859	298.68
727.301	249.03
727.744	235.08
728.187	235.58
728.629	242.13
729.071	249.13
729.514	260.33
729.956	267.38
730.399	271.68
730.841	270.93
731.283	268.43
731.726	254.13
732.168	267.33
732.61	282.23
733.053	296.78
733.495	328.83
733.937	367.28
734.379	438.18
734.821	556.83
735.263	881.58
735.705	1540.98
736.148	2203.28
736.59	2175.08
737.032	2302.28
737.474	1931.03
737.916	792.83
738.357	416.48
738.799	323.53
739.241	298.38
739.683	293.43
740.125	304.78
740.567	301.08
741.008	321.38
741.45	335.63
741.892	341.93
742.334	341.48
742.775	338.43
743.217	315.18
743.658	280.03
744.1	277.03
744.542	314.53
744.983	321.78
745.425	339.38
745.866	335.43
746.307	301.88
746.749	334.23
747.19	478.08
747.632	938.78
748.073	1676.48
748.514	2266.73
748.956	2977.63
749.397	3440.63
749.838	2398.63
750.279	2233.88
750.72	1215.93
751.162	525.93
751.603	302.83
752.044	242.98
752.485	219.03
752.926	205.98
753.367	194.88
753.808	190.03
754.249	187.73
754.69	190.93
755.131	186.78
755.572	186.33
756.013	185.98
756.453	181.38
756.894	186.68
757.335	188.78
757.776	188.13
758.216	201.83
758.657	207.18
759.098	234.48
759.538	278.13
759.979	406.28
760.42	831.43
760.86	2026.88
761.301	4110.23
761.741	4725.58
762.182	5352.33
762.622	3473.03
763.063	1346.63
763.503	599.23
763.943	474.63
764.384	518.98
764.824	492.88
765.264	492.18
765.705	349.88
766.145	246.08
766.585	215.78
767.025	225.08
767.465	302.18
767.906	373.68
768.346	392.13
768.786	403.93
769.226	402.83
769.666	671.83
770.106	1409.48
770.546	1931.48
770.986	2132.28
771.426	1638.88
771.866	718.58
772.306	336.53
772.745	211.58
773.185	185.23
773.625	186.48
774.065	222.58
774.505	377.88
774.944	754.63
775.384	1108.23
775.824	1243.63
776.263	1024.53
776.703	509.68
777.142	256.53
777.582	172.23
778.021	157.73
778.461	145.28
778.9	142.48
779.34	133.93
779.779	124.78
780.219	117.58
780.658	111.58
781.097	116.78
781.537	106.23
781.976	113.43
782.415	111.68
782.855	109.43
783.294	119.03
783.733	107.23
784.172	111.33
784.611	102.73
785.05	114.53
785.489	114.73
785.928	117.18
786.367	123.13
786.806	135.38
787.245	141.78
787.684	137.33
788.123	135.38
788.562	132.38
789.001	128.13
789.44	124.03
789.879	121.58
790.317	129.03
790.756	131.63
791.195	158.68
791.634	211.73
792.072	376.73
792.511	921.43
792.95	1611.38
793.388	1886.13
793.827	1252.78
794.265	595.08
794.704	283.93
795.142	181.03
795.581	149.23
796.019	132.08
796.458	133.63
796.896	135.98
797.334	156.18
797.773	206.28
798.211	406.03
798.649	828.58
799.087	1353.83
799.526	1857.18
799.964	1909.83
800.402	1316.43
800.84	623.98
801.278	308.63
801.716	191.38
802.154	152.48
802.592	142.78
803.03	140.03
803.468	147.93
803.906	145.33
804.344	139.73
804.782	139.53
805.22	140.13
805.658	143.78
806.096	155.28
806.533	173.03
806.971	224.13
807.409	325.18
807.847	649.58
808.284	1621.53
808.722	2739.73
809.16	3847.98
809.597	5283.88
810.035	6362.93
810.472	4080.63
810.91	1821.48
811.347	834.83
811.785	393.63
812.222	243.38
812.66	185.83
813.097	161.13
813.535	138.63
813.972	127.03
814.409	117.78
814.846	112.98
815.284	102.38
815.721	108.23
816.158	113.63
816.595	149.58
817.032	179.48
817.47	160.23
817.907	128.83
818.344	115.23
818.781	110.28
819.218	129.88
819.655	182.38
820.092	227.08
820.529	215.58
820.966	174.93
821.403	133.43
821.839	120.38
822.276	121.53
822.713	137.03
823.15	132.38
823.587	148.73
824.023	273.03
824.46	679.33
824.897	1129.88
825.333	869.38
825.77	418.73
826.206	218.58
826.643	131.68
827.08	98.23
827.516	84.58
827.953	77.53
828.389	75.58
828.825	74.93
829.262	68.88
829.698	67.33
830.135	61.13
830.571	61.88
831.007	65.28
831.443	62.48
831.88	63.38
832.316	72.08
832.752	65.63
833.188	67.98
833.624	66.33
834.06	61.28
834.497	70.93
834.933	70.33
835.369	77.78
835.805	85.73
836.241	84.13
836.677	96.63
837.112	106.13
837.548	136.13
837.984	203.13
838.42	433.63
838.856	1168.58
839.292	2184.93
839.727	1628.33
840.163	1154.53
840.599	1715.23
841.034	2516.93
841.47	1300.43
841.906	660.88
842.341	380.03
842.777	335.73
843.212	396.53
843.648	228.63
844.083	143.43
844.519	100.88
844.954	77.98
845.39	65.98
845.825	62.18
846.261	59.33
846.696	59.38
847.131	52.93
847.566	59.38
848.002	55.98
848.437	65.93
848.872	62.43
849.307	81.13
849.742	147.33
850.177	393.73
850.613	804.18
851.048	570.33
851.483	266.68
851.918	153.18
852.353	88.93
852.788	65.93
853.223	63.93
853.657	51.28
854.092	50.23
854.527	45.13
854.962	46.78
855.397	52.08
855.832	39.38
856.266	40.63
856.701	41.48
857.136	41.78
857.57	48.68
858.005	53.68
858.44	50.18
858.874	45.13
859.309	49.13
859.743	51.78
860.178	49.08
860.612	54.58
861.047	67.08
861.481	86.43
861.915	60.33
862.35	48.58
862.784	39.43
863.218	35.83
863.653	38.03
864.087	44.03
864.521	67.33
864.955	113.53
865.39	190.13
865.824	131.83
866.258	157.28
866.692	219.98
867.126	163.28
867.56	91.88
867.994	58.38
868.428	51.13
868.862	60.93
869.296	57.93
869.73	65.08
870.164	62.38
870.598	52.78
871.031	42.78
871.465	36.78
871.899	31.58
872.333	29.23
872.766	33.48
873.2	31.48
873.634	30.93
874.067	36.73
874.501	35.73
874.935	27.93
875.368	32.38
875.802	26.63
876.235	22.23
876.669	27.28
877.102	20.58
877.535	26.68
877.969	21.88
878.402	23.38
878.836	22.98
879.269	21.88
879.702	25.78
880.135	28.53
880.569	28.03
881.002	21.38
881.435	24.23
881.868	26.43
882.301	23.28
882.734	21.08
883.167	21.43
883.601	22.18
884.034	21.08
884.467	16.23
884.899	23.33
885.332	16.18
885.765	21.88
886.198	16.18
886.631	19.53
887.064	20.33
887.497	19.08
887.929	23.33
888.362	16.83
888.795	20.43
889.228	21.63
889.66	18.68
890.093	14.83
890.526	21.73
890.958	17.43
891.391	21.88
891.823	19.28
892.256	19.43
892.688	24.18
893.121	15.48
893.553	24.18
893.985	16.98
894.418	12.03
894.85	19.68
895.282	15.08
895.715	12.28
896.147	12.43
896.579	11.43
897.011	21.68
897.444	19.93
897.876	8.23
898.308	15.88
898.74	20.78
899.172	15.68
899.604	20.78
900.036	18.23
900.468	12.53
900.9	16.13
901.332	26.18
901.764	19.08
902.196	21.98
902.628	25.73
903.06	28.13
903.491	26.28
903.923	22.08
904.355	28.03
904.787	25.18
905.218	20.13
905.65	21.38
906.082	21.88
906.513	22.08
906.945	21.68
907.376	24.53
907.808	22.63
908.239	19.68
908.671	29.18
909.102	26.73
909.534	39.33
909.965	73.73
910.397	188.73
910.828	516.43
911.259	324.88
911.691	177.33
912.122	104.08
912.553	49.73
912.984	25.18
913.415	21.53
913.847	21.48
914.278	19.18
914.709	18.78
915.14	18.43
915.571	20.48
916.002	18.93
916.433	14.33
916.864	15.28
917.295	14.43
917.726	16.98
918.157	25.93
918.587	22.03
919.018	22.53
919.449	20.83
919.88	25.93
920.311	39.83
920.741	109.63
921.172	196.23
921.603	94.13
922.033	60.38
922.464	38.38
922.895	25.83
923.325	19.58
923.756	19.38
924.186	27.53
924.617	45.58
925.047	76.33
925.478	64.58
925.908	48.73
926.338	33.03
926.769	23.83
927.199	20.58
927.629	15.48
928.06	15.28
928.49	17.83
928.92	14.73
929.35	19.73
929.78	9.73
930.21	8.53
930.641	7.43
931.071	5.63
931.501	8.63
931.931	3.73
932.361	8.58
932.791	14.28
933.221	9.68
933.651	14.63
934.08	25.68
934.51	11.48
934.94	13.53
935.37	12.83
935.8	11.53
936.229	4.43
936.659	1.73
937.089	8.63
937.519	16.98
937.948	26.93
938.378	12.43
938.807	5.28
939.237	13.03
939.666	8.28
940.096	1.88
940.525	-0.02
940.955	6.48
941.384	4.98
941.814	2.63
942.243	3.43
942.672	-1.52
943.102	1.33
943.531	0.48
943.96	1.33
944.39	6.58
944.819	6.23
945.248	0.53
945.677	2.03
946.106	5.73
946.535	6.43
946.964	2.63
947.393	-0.87
947.822	-2.47
948.251	5.78
948.68	4.48
949.109	3.68
949.538	0.28
949.967	3.03
950.396	-0.47
950.825	2.18
951.254	0.73
951.682	-3.12
952.111	0.78
952.54	1.68
952.969	5.08
953.397	0.58
953.826	-1.52
954.254	3.88
954.683	2.08
955.112	4.93
955.54	-0.62
955.969	-0.37
956.397	-1.82
956.826	3.03
957.254	2.08
957.682	4.18
958.111	1.03
958.539	6.93
958.967	0.48
959.396	4.68
959.824	1.33
960.252	5.98
960.68	-0.47
961.109	0.98
961.537	5.53
961.965	-3.52
962.393	1.63
962.821	-1.02
963.249	-0.67
963.677	4.68
964.105	31.58
964.533	48.78
964.961	22.83
965.389	10.93
965.817	8.13
966.245	2.18
966.672	1.83
967.1	6.08
967.528	-3.12
967.956	-2.57
968.383	3.13
968.811	-1.17
969.239	-0.17
969.666	0.13
970.094	0.43
970.522	1.88
970.949	-1.27
971.377	-3.52
971.804	-3.97
972.232	0.18
972.659	0.08
973.087	4.48
973.514	-1.77
973.941	1.03
974.369	-1.07
974.796	1.33
975.223	-0.87
975.651	0.53
976.078	0.98
976.505	4.33
976.932	12.53
977.359	15.18
977.786	10.88
978.214	3.93
978.641	-4.22
979.068	3.43
979.495	-0.32
979.922	3.43
980.349	1.73
980.776	-0.12
981.202	1.58
981.629	0.93
982.056	3.13
982.483	-7.62
982.91	3.93
983.337	-4.12
983.763	3.08
984.19	-2.77
984.617	-0.82
985.043	-1.67
985.47	-1.32
985.897	2.73
986.323	1.43
986.75	0.73
987.176	-1.27
987.603	0.83
988.029	1.33
988.456	1.13
988.882	1.98
989.308	-3.17
989.735	0.78
990.161	1.98
990.587	0.18
991.014	0.43
991.44	-0.72
991.866	1.78
992.292	0.33
992.719	1.78
993.145	1.23
993.571	2.08
993.997	5.38
994.423	4.68
994.849	-2.72
995.275	3.28
995.701	5.13
996.127	-5.12
996.553	-0.92
996.979	-2.57
997.405	3.23
997.83	0.48
998.256	2.13
998.682	-1.52
999.108	0.58
999.534	-6.32
999.959	-3.67
1000.385	5.93
1000.811	-4.22
1001.236	-5.42
1001.662	-0.82
1002.087	4.08
1002.513	-4.37
1002.938	-3.72
1003.364	0.78
1003.789	-0.17
1004.215	-2.22
1004.64	-2.92
1005.066	3.88
1005.491	-1.67
1005.916	1.33
1006.342	3.88
1006.767	-0.07
1007.192	3.38
1007.617	0.33
1008.042	-1.22
1008.468	-5.87
1008.893	-0.12
1009.318	3.88
1009.743	2.68
1010.168	5.33
1010.593	8.38
1011.018	5.33
1011.443	2.23
1011.868	5.13
1012.293	-0.37
1012.718	-4.47
1013.143	-1.22
1013.567	3.68
1013.992	1.53
1014.417	-1.22
1014.842	-2.42
1015.267	-1.22
1015.691	3.98
1016.116	-1.12
1016.541	2.58
1016.965	-2.27
1017.39	1.43
1017.814	-3.37
1018.239	-3.02
1018.663	-4.47
1019.088	-5.42
1019.512	2.53
1019.937	-4.57
1020.361	-1.02
1020.785	-3.07
1021.21	-6.57
1021.634	-1.82
1022.058	-0.57
1022.483	-8.12
1022.907	-6.77
1023.331	-4.02
1023.755	-3.97
1024.179	-1.82
1024.604	3.08
1025.028	-2.57
1025.452	3.03
1025.876	2.83
1026.3	0.23
1026.724	-3.02
1027.148	3.03
1027.572	-2.67
1027.996	0.73
1028.42	2.43
1028.843	-2.32
1029.267	-3.07
1029.691	2.03
1030.115	-0.07
1030.539	-3.37
1030.962	-1.17
1031.386	-3.57
1031.81	-2.82
1032.233	-2.97
1032.657	-8.22
1033.08	1.18
1033.504	-6.42
1033.927	-1.52
1034.351	-4.72
1034.774	-0.42
1035.198	-4.32
1035.621	3.33
1036.045	-0.67
1036.468	4.58
1036.891	4.68
1037.315	3.23
1037.738	2.93
1038.161	-1.97
1038.584	-0.72
1039.008	-6.62
1039.431	-4.32
1039.854	-4.72
1040.277	-0.62
1040.7	-3.32
1041.123	0.23
1041.546	-0.87
1041.969	2.28
1042.392	0.23
1042.815	-10.77
1043.238	-1.32
1043.661	-1.72
1044.084	-1.22
1044.507	-2.77
1044.93	-2.52
1045.352	-1.87
1045.775	-0.32
1046.198	1.23
1046.621	0.73
1047.043	-2.22
1047.466	-2.87
1047.889	-5.77
1048.311	4.33
1048.734	-4.07
1049.156	-7.17
1049.579	-5.37
1050.001	-5.52
1050.424	-1.62
1050.846	-3.72
1051.269	-4.67
1051.691	-3.57
1052.113	1.73
1052.536	-5.27
1052.958	-1.02
1053.38	1.93
1053.802	-0.47
1054.225	-0.47
1054.647	1.23
1055.069	2.48
1055.491	-1.42
1055.913	0.73
1056.335	-9.32
1056.757	-4.82
1057.179	-2.62
1057.601	-3.97
1058.023	-1.62
1058.445	-6.97
1058.867	0.03
1059.289	1.43
1059.711	-6.12
1060.133	-2.82
1060.555	-4.22
1060.976	0.93
1061.398	-7.12
1061.82	-0.67
1062.241	-6.87
1062.663	1.38
1063.085	-3.62
1063.506	-2.37
1063.928	-6.17
1064.35	0.63
1064.771	-2.47
1065.193	-0.92
1065.614	-4.17
1066.035	-1.07
1066.457	2.53
1066.878	-2.52
1067.3	-6.77
1067.721	-1.57
1068.142	-0.92
1068.564	-0.42
1068.985	0.03
1069.406	-7.22
1069.827	-5.12
1070.248	-5.07
1070.67	-8.97
1071.091	-2.17
1071.512	-3.32
1071.933	-5.47
1072.354	-8.32
1072.775	-3.67
1073.196	2.13
1073.617	-8.27
1074.038	-4.52
1074.459	-2.77
1074.88	-5.02
1075.3	-3.62
1075.721	-3.57
1076.142	-5.62
1076.563	-4.87
1076.983	0.08
1077.404	-6.42
1077.825	-2.17
1078.246	-2.47
1078.666	-1.72
1079.087	-3.77
1079.507	-4.47
1079.928	-3.52
1080.348	-5.82
1080.769	1.78
1081.189	-1.87
1081.61	-4.32
1082.03	0.23
1082.451	0.43
1082.871	-5.22
1083.291	-3.57
1083.711	-6.07
1084.132	-7.17
1084.552	-6.62
1084.972	-8.67
1085.392	-4.47
1085.813	-1.17
1086.233	-2.27
1086.653	-1.07
1087.073	-4.02
1087.493	-4.37
1087.913	-8.62
1088.333	-4.67
1088.753	-2.82
1089.173	-5.32
1089.593	-2.42
1090.013	-2.72
1090.433	-6.82
1090.852	-0.22
1091.272	-6.67
1091.692	-5.07
1092.112	-3.37
1092.531	-7.52
1092.951	-0.12
1093.371	-1.72
1093.79	-3.77
1094.21	-3.47
1094.63	-4.62
1095.049	0.23
1095.469	-5.67
1095.888	-0.12
1096.308	-3.82
1096.727	-3.27
1097.146	-3.52
1097.566	-3.97
1097.985	-3.57
1098.405	-3.57
1098.824	-3.07
1099.243	-6.07
1099.662	-1.02
1100.082	-2.92
1100.501	-3.37
1100.92	1.68
1101.339	-0.47
1101.758	4.73
