Data from MSPlasma+Separation6_Subt14_10-15-54-041.txt Node
Date: Fri Jul 21 10:15:54 EDT 2017
User: Ender
Spectrometer: HR+D1039
Trigger mode: 0
Integration Time (sec): 2.510000E-3
Scans to average: 20
Electric dark correction enabled: true
Nonlinearity correction enabled: false
Boxcar width: 0
XAxis mode: Wavelengths
Number of Pixels in Spectrum: 2048
>>>>>Begin Spectral Data<<<<<
187.836	-1.81
188.309	-1.81
188.782	-1.81
189.255	2.19
189.728	1.84
190.201	0.44
190.674	-0.71
191.147	0.59
191.619	1.79
192.092	-3.71
192.565	-2.46
193.038	2.69
193.511	3.39
193.984	-0.36
194.456	-0.26
194.929	3.04
195.402	-5.21
195.874	-1.51
196.347	3.79
196.82	0.94
197.292	1.44
197.765	-0.81
198.237	-2.51
198.71	-1.11
199.182	1.59
199.655	-0.36
200.127	0.54
200.6	-0.36
201.072	0.84
201.544	-3.51
202.017	1.94
202.489	-0.46
202.961	-3.11
203.433	-2.96
203.906	-2.01
204.378	0.94
204.85	3.39
205.322	-2.56
205.794	4.29
206.266	-5.46
206.739	-5.26
207.211	-1.56
207.683	1.19
208.155	0.89
208.627	0.19
209.099	5.79
209.57	-2.06
210.042	-1.01
210.514	-1.01
210.986	1.44
211.458	5.64
211.93	4.29
212.402	4.89
212.873	-2.11
213.345	-4.21
213.817	4.79
214.288	1.99
214.76	1.64
215.232	-0.46
215.703	-1.86
216.175	-3.11
216.646	0.34
217.118	1.94
217.589	-6.06
218.061	1.99
218.532	-2.81
219.004	3.14
219.475	2.74
219.946	9.64
220.418	11.54
220.889	10.34
221.36	5.39
221.832	1.99
222.303	2.99
222.774	1.29
223.245	-5.81
223.717	-2.66
224.188	0.39
224.659	0.79
225.13	4.59
225.601	2.79
226.072	1.29
226.543	-0.31
227.014	1.79
227.485	3.69
227.956	0.29
228.427	8.59
228.898	2.54
229.369	1.99
229.839	-0.46
230.31	5.04
230.781	5.24
231.252	2.99
231.722	10.14
232.193	9.09
232.664	10.19
233.135	22.74
233.605	22.54
234.076	20.59
234.546	14.54
235.017	19.49
235.487	20.24
235.958	14.34
236.428	23.14
236.899	35.04
237.369	42.44
237.84	31.79
238.31	40.24
238.78	37.49
239.251	39.04
239.721	39.79
240.191	28.29
240.662	16.54
241.132	13.74
241.602	20.49
242.072	28.84
242.542	31.24
243.013	20.49
243.483	16.94
243.953	14.19
244.423	13.19
244.893	12.59
245.363	21.04
245.833	15.49
246.303	19.44
246.773	28.89
247.243	24.89
247.712	32.89
248.182	39.69
248.652	43.69
249.122	68.94
249.592	129.54
250.061	196.89
250.531	310.49
251.001	235.39
251.471	198.29
251.94	143.44
252.41	80.09
252.879	50.89
253.349	42.24
253.818	32.39
254.288	28.39
254.757	27.09
255.227	38.69
255.696	30.49
256.166	28.99
256.635	33.64
257.105	39.84
257.574	50.39
258.043	47.59
258.513	96.04
258.982	122.39
259.451	83.14
259.92	88.14
260.389	79.94
260.859	56.34
261.328	68.24
261.797	101.29
262.266	87.69
262.735	43.19
263.204	25.29
263.673	19.44
264.142	18.59
264.611	22.09
265.08	22.59
265.549	25.39
266.018	15.29
266.487	17.09
266.955	14.49
267.424	24.09
267.893	26.24
268.362	23.09
268.83	22.69
269.299	30.84
269.768	29.84
270.236	33.94
270.705	38.24
271.174	34.24
271.642	41.09
272.111	51.29
272.579	81.94
273.048	127.54
273.516	162.64
273.985	166.14
274.453	125.09
274.922	75.79
275.39	42.79
275.858	37.64
276.327	37.39
276.795	37.09
277.263	39.24
277.731	54.29
278.2	112.29
278.668	140.84
279.136	111.14
279.604	68.24
280.072	40.74
280.54	33.99
281.008	39.39
281.477	39.49
281.945	39.79
282.413	36.24
282.881	41.79
283.348	39.39
283.816	45.69
284.284	44.14
284.752	41.89
285.22	45.79
285.688	51.64
286.156	88.24
286.623	247.49
287.091	477.94
287.559	248.14
288.026	93.09
288.494	57.99
288.962	45.04
289.429	42.74
289.897	39.69
290.364	38.64
290.832	40.99
291.3	41.84
291.767	40.64
292.234	43.04
292.702	45.04
293.169	50.64
293.637	51.44
294.104	52.04
294.571	44.34
295.039	52.14
295.506	43.39
295.973	46.34
296.44	45.19
296.908	53.49
297.375	60.44
297.842	60.39
298.309	46.09
298.776	49.04
299.243	56.94
299.71	48.04
300.177	46.34
300.644	56.89
301.111	62.39
301.578	56.49
302.045	50.49
302.512	49.09
302.979	54.59
303.446	57.09
303.913	59.24
304.379	62.34
304.846	67.79
305.313	77.44
305.78	95.84
306.246	114.34
306.713	124.04
307.18	109.09
307.646	120.64
308.113	102.89
308.579	81.99
309.046	81.14
309.512	74.49
309.979	72.04
310.445	65.19
310.912	67.34
311.378	69.89
311.845	67.69
312.311	64.24
312.777	65.19
313.244	67.24
313.71	71.99
314.176	79.74
314.642	95.74
315.109	107.74
315.575	105.24
316.041	92.34
316.507	85.14
316.973	98.74
317.439	95.59
317.905	104.44
318.371	101.09
318.837	98.89
319.303	102.69
319.769	94.79
320.235	105.99
320.701	124.24
321.167	133.84
321.633	161.44
322.099	226.34
322.564	300.94
323.03	235.94
323.496	160.54
323.962	154.04
324.427	142.59
324.893	120.79
325.359	119.54
325.824	104.49
326.29	107.34
326.755	110.29
327.221	110.29
327.686	117.14
328.152	103.59
328.617	94.29
329.083	98.89
329.548	106.79
330.014	106.19
330.479	122.34
330.944	142.09
331.41	168.84
331.875	159.74
332.34	161.09
332.805	187.49
333.271	244.49
333.736	323.49
334.201	282.59
334.666	209.94
335.131	236.49
335.596	188.09
336.061	201.64
336.526	205.04
336.991	180.99
337.456	192.54
337.921	156.94
338.386	121.04
338.851	107.09
339.316	101.99
339.781	96.64
340.246	101.89
340.711	101.29
341.175	101.44
341.64	101.14
342.105	108.99
342.569	123.39
343.034	124.59
343.499	128.19
343.963	124.29
344.428	123.64
344.893	119.54
345.357	126.59
345.822	123.59
346.286	120.29
346.751	133.74
347.215	123.79
347.679	130.94
348.144	149.39
348.608	145.04
349.073	149.69
349.537	164.09
350.001	154.84
350.465	150.09
350.93	140.59
351.394	145.09
351.858	143.89
352.322	151.24
352.786	145.44
353.25	148.49
353.715	143.89
354.179	159.79
354.643	164.64
355.107	164.34
355.571	177.34
356.035	177.64
356.498	177.89
356.962	190.94
357.426	183.79
357.89	165.59
358.354	158.24
358.818	160.49
359.281	164.04
359.745	172.69
360.209	165.89
360.673	165.84
361.136	170.64
361.6	169.44
362.064	182.24
362.527	185.24
362.991	180.59
363.454	179.49
363.918	189.54
364.381	184.04
364.845	180.84
365.308	180.94
365.772	175.39
366.235	182.59
366.698	193.34
367.162	229.24
367.625	260.69
368.088	206.29
368.552	186.59
369.015	188.24
369.478	206.69
369.941	209.39
370.404	210.14
370.867	224.84
371.331	226.24
371.794	230.14
372.257	259.84
372.72	272.14
373.183	264.49
373.646	268.64
374.109	268.89
374.572	307.99
375.035	366.94
375.497	266.99
375.96	218.69
376.423	200.14
376.886	208.84
377.349	205.04
377.811	213.39
378.274	219.74
378.737	218.24
379.199	224.19
379.662	232.09
380.125	248.89
380.587	274.59
381.05	292.99
381.512	292.19
381.975	279.49
382.437	280.94
382.9	277.24
383.362	277.14
383.825	302.24
384.287	387.59
384.75	439.19
385.212	378.24
385.674	308.84
386.136	276.24
386.599	274.54
387.061	284.64
387.523	299.59
387.985	304.34
388.447	314.39
388.91	351.94
389.372	434.04
389.834	402.44
390.296	331.24
390.758	331.69
391.22	348.34
391.682	427.49
392.144	660.94
392.606	616.29
393.068	356.54
393.529	327.84
393.991	319.04
394.453	309.69
394.915	328.39
395.377	397.54
395.838	493.14
396.3	344.74
396.762	263.39
397.224	253.04
397.685	242.34
398.147	252.44
398.608	258.34
399.07	265.09
399.531	254.99
399.993	259.79
400.454	256.99
400.916	254.84
401.377	265.29
401.839	270.39
402.3	270.74
402.762	285.04
403.223	312.24
403.684	320.09
404.145	291.49
404.607	284.19
405.068	284.24
405.529	293.59
405.99	292.34
406.451	296.89
406.913	292.44
407.374	295.54
407.835	304.69
408.296	315.49
408.757	312.34
409.218	321.94
409.679	324.64
410.14	331.39
410.601	347.54
411.062	363.29
411.522	421.54
411.983	461.89
412.444	395.94
412.905	337.79
413.366	342.34
413.826	350.34
414.287	380.59
414.748	459.34
415.208	467.24
415.669	396.54
416.13	357.44
416.59	354.49
417.051	365.69
417.511	380.29
417.972	405.94
418.432	429.89
418.893	477.14
419.353	456.94
419.814	358.39
420.274	322.34
420.734	319.14
421.195	347.79
421.655	361.84
422.115	342.19
422.576	331.44
423.036	333.44
423.496	343.84
423.956	361.24
424.416	390.04
424.876	440.39
425.336	438.49
425.797	437.24
426.257	440.54
426.717	415.19
427.177	388.79
427.637	403.44
428.097	425.64
428.556	449.89
429.016	482.44
429.476	486.99
429.936	466.84
430.396	453.79
430.856	456.44
431.315	475.99
431.775	505.54
432.235	527.94
432.694	536.19
433.154	507.69
433.614	489.09
434.073	484.14
434.533	431.49
434.993	422.09
435.452	413.39
435.912	410.54
436.371	403.34
436.83	404.54
437.29	414.34
437.749	390.94
438.209	382.04
438.668	389.64
439.127	392.34
439.587	381.79
440.046	368.09
440.505	377.89
440.964	374.84
441.424	381.69
441.883	393.19
442.342	370.59
442.801	354.89
443.26	363.39
443.719	369.84
444.178	358.79
444.637	362.84
445.096	361.79
445.555	371.49
446.014	371.44
446.473	360.94
446.932	361.74
447.391	373.14
447.849	375.49
448.308	369.94
448.767	374.39
449.226	381.94
449.685	386.79
450.143	404.34
450.602	404.34
451.061	386.54
451.519	393.29
451.978	403.99
452.436	421.64
452.895	397.44
453.353	382.64
453.812	389.94
454.27	383.54
454.729	375.74
455.187	373.14
455.646	373.49
456.104	382.29
456.562	380.69
457.021	371.59
457.479	365.74
457.937	369.44
458.395	381.19
458.854	374.14
459.312	376.54
459.77	372.74
460.228	383.39
460.686	380.09
461.144	391.54
461.602	379.59
462.06	375.79
462.518	395.04
462.976	394.19
463.434	393.09
463.892	400.29
464.35	404.34
464.808	410.69
465.266	415.99
465.724	419.24
466.181	416.44
466.639	421.74
467.097	438.39
467.555	453.69
468.012	445.54
468.47	448.09
468.928	464.19
469.385	475.54
469.843	482.14
470.3	479.29
470.758	497.64
471.215	508.84
471.673	519.19
472.13	532.14
472.588	547.34
473.045	541.89
473.503	548.59
473.96	577.09
474.417	584.44
474.875	610.89
475.332	638.19
475.789	640.44
476.246	662.99
476.704	692.64
477.161	715.59
477.618	730.29
478.075	787.79
478.532	850.34
478.989	923.49
479.446	1018.84
479.903	1087.69
480.36	1201.14
480.817	1284.74
481.274	1382.09
481.731	1517.99
482.188	1638.09
482.645	1770.09
483.102	1873.59
483.558	2015.49
484.015	2115.24
484.472	2116.99
484.929	2045.59
485.385	1953.34
485.842	1885.34
486.299	1790.54
486.755	1610.14
487.212	1449.34
487.668	1290.34
488.125	1182.64
488.582	1092.84
489.038	1035.99
489.494	995.29
489.951	958.29
490.407	936.89
490.864	915.84
491.32	896.19
491.776	885.14
492.233	871.69
492.689	867.79
493.145	853.84
493.602	847.94
494.058	863.64
494.514	879.59
494.97	882.14
495.426	892.99
495.882	898.99
496.338	894.34
496.794	927.44
497.251	931.84
497.707	938.14
498.163	937.14
498.618	941.14
499.074	945.04
499.53	960.84
499.986	977.39
500.442	994.09
500.898	990.74
501.354	1018.29
501.809	1014.89
502.265	1034.24
502.721	1081.24
503.177	1113.69
503.632	1052.74
504.088	1058.34
504.543	1172.44
504.999	1088.54
505.455	950.39
505.91	898.84
506.366	890.34
506.821	886.84
507.277	879.49
507.732	878.84
508.187	876.49
508.643	891.34
509.098	887.74
509.553	900.34
510.009	905.19
510.464	932.54
510.919	927.79
511.375	949.74
511.83	966.59
512.285	979.74
512.74	1005.54
513.195	1006.24
513.65	1030.94
514.105	1042.54
514.56	1043.34
515.015	1060.19
515.47	1084.29
515.925	1080.99
516.38	1064.59
516.835	1067.29
517.29	1063.24
517.745	1072.54
518.2	1052.84
518.655	1018.69
519.109	1009.39
519.564	994.84
520.019	989.74
520.474	976.74
520.928	973.39
521.383	973.19
521.838	968.34
522.292	959.74
522.747	946.74
523.201	943.54
523.656	924.34
524.11	929.29
524.565	920.79
525.019	931.34
525.474	948.44
525.928	934.59
526.382	922.99
526.837	911.74
527.291	916.09
527.745	913.14
528.2	912.79
528.654	903.59
529.108	903.19
529.562	903.99
530.016	906.09
530.47	909.44
530.925	904.19
531.379	909.64
531.833	918.94
532.287	913.74
532.741	913.49
533.195	910.19
533.649	915.04
534.103	914.89
534.556	903.64
535.01	918.74
535.464	908.99
535.918	921.24
536.372	923.89
536.826	910.09
537.279	911.29
537.733	908.54
538.187	913.99
538.64	914.64
539.094	925.34
539.548	931.29
540.001	933.09
540.455	934.34
540.908	939.49
541.362	941.94
541.815	954.09
542.269	985.24
542.722	970.14
543.175	986.89
543.629	987.89
544.082	996.74
544.536	1001.94
544.989	1003.09
545.442	1011.19
545.895	1004.49
546.349	1009.99
546.802	1013.79
547.255	1012.99
547.708	1018.14
548.161	1027.49
548.614	1032.89
549.067	1032.74
549.52	1029.19
549.973	1010.04
550.426	1006.54
550.879	999.79
551.332	996.79
551.785	1008.29
552.238	1014.84
552.691	1013.14
553.144	1022.74
553.596	1048.99
554.049	1063.84
554.502	1078.29
554.955	1100.34
555.407	1117.29
555.86	1096.74
556.313	1092.99
556.765	1078.59
557.218	1063.39
557.67	1064.79
558.123	1048.24
558.576	1046.04
559.028	1036.24
559.48	1048.64
559.933	1049.74
560.385	1019.89
560.838	987.29
561.29	958.34
561.742	963.09
562.195	944.89
562.647	933.24
563.099	928.09
563.551	930.39
564.004	938.04
564.456	922.24
564.908	909.84
565.36	892.34
565.812	874.39
566.264	865.84
566.716	858.09
567.168	845.59
567.62	855.04
568.072	838.29
568.524	829.29
568.976	830.19
569.428	817.29
569.88	815.39
570.332	817.29
570.784	820.94
571.235	813.19
571.687	816.14
572.139	820.64
572.59	836.64
573.042	837.79
573.494	833.94
573.945	820.64
574.397	804.59
574.849	796.84
575.3	810.54
575.752	790.14
576.203	787.34
576.655	797.24
577.106	777.74
577.557	775.09
578.009	773.09
578.46	779.04
578.912	769.19
579.363	779.14
579.814	767.69
580.265	768.29
580.717	775.49
581.168	766.09
581.619	769.24
582.07	783.44
582.521	781.64
582.972	777.09
583.423	784.44
583.875	806.44
584.326	853.74
584.777	939.29
585.227	1012.34
585.678	1092.99
586.129	1115.64
586.58	1127.04
587.031	1152.04
587.482	1217.59
587.933	1421.14
588.384	1303.79
588.834	1065.89
589.285	903.69
589.736	887.24
590.186	882.24
590.637	869.39
591.088	856.49
591.538	848.74
591.989	842.49
592.439	833.74
592.89	832.79
593.34	834.19
593.791	847.19
594.241	843.04
594.692	861.49
595.142	852.99
595.593	835.49
596.043	836.24
596.493	839.79
596.943	858.54
597.394	855.74
597.844	835.94
598.294	849.74
598.744	888.79
599.195	915.74
599.645	965.94
600.095	1014.34
600.545	1059.24
600.995	1107.39
601.445	1139.99
601.895	1189.09
602.345	1229.94
602.795	1211.04
603.245	1153.04
603.695	1084.49
604.145	1029.94
604.594	986.34
605.044	931.19
605.494	881.29
605.944	836.04
606.393	826.34
606.843	819.34
607.293	820.59
607.743	808.59
608.192	825.69
608.642	818.99
609.091	823.99
609.541	817.29
609.99	819.09
610.44	799.94
610.889	794.54
611.339	790.09
611.788	781.34
612.238	794.39
612.687	804.59
613.136	813.64
613.586	823.84
614.035	827.94
614.484	832.84
614.933	841.84
615.383	823.14
615.832	799.89
616.281	778.79
616.73	748.19
617.179	736.19
617.628	720.64
618.077	706.24
618.526	697.39
618.975	695.94
619.424	672.59
619.873	685.34
620.322	675.09
620.771	677.09
621.22	668.84
621.669	650.94
622.118	649.69
622.567	642.49
623.015	630.34
623.464	634.79
623.913	616.64
624.361	631.39
624.81	622.59
625.259	617.79
625.707	609.39
626.156	611.34
626.604	619.39
627.053	620.59
627.501	615.19
627.95	625.69
628.398	631.14
628.847	620.59
629.295	628.04
629.744	645.09
630.192	653.89
630.64	706.94
631.089	800.74
631.537	836.19
631.985	838.64
632.433	876.24
632.881	872.64
633.33	1057.94
633.778	1151.34
634.226	802.94
634.674	739.14
635.122	722.24
635.57	746.39
636.018	870.19
636.466	699.59
636.914	616.69
637.362	606.19
637.81	621.94
638.258	631.34
638.705	642.34
639.153	659.79
639.601	669.39
640.049	667.79
640.497	693.24
640.944	705.49
641.392	678.79
641.84	639.84
642.287	619.84
642.735	613.89
643.182	603.44
643.63	604.04
644.078	610.64
644.525	618.34
644.973	642.29
645.42	650.99
645.867	655.44
646.315	683.19
646.762	699.14
647.21	720.54
647.657	765.69
648.104	802.64
648.551	830.84
648.999	904.84
649.446	1007.49
649.893	1136.69
650.34	1347.74
650.787	1679.19
651.234	2200.04
651.682	3104.39
652.129	4504.89
652.576	6529.99
653.023	8714.64
653.47	10172.39
653.917	10983.39
654.363	11363.99
654.81	12039.69
655.257	12096.14
655.704	8216.14
656.151	4809.59
656.598	3082.59
657.044	2185.69
657.491	1704.29
657.938	1369.54
658.385	1154.79
658.831	999.69
659.278	893.69
659.724	812.14
660.171	755.14
660.618	699.44
661.064	649.59
661.511	625.59
661.957	607.79
662.404	592.89
662.85	587.64
663.296	572.49
663.743	551.84
664.189	553.09
664.635	545.74
665.082	529.99
665.528	532.64
665.974	515.49
666.42	515.14
666.867	525.49
667.313	528.29
667.759	565.14
668.205	550.89
668.651	561.54
669.097	545.84
669.543	595.74
669.989	566.84
670.435	489.19
670.881	478.89
671.327	499.14
671.773	530.64
672.219	567.64
672.665	602.44
673.11	618.79
673.556	626.34
674.002	633.59
674.448	639.64
674.893	550.54
675.339	478.84
675.785	447.14
676.23	427.64
676.676	414.59
677.122	402.64
677.567	392.94
678.013	372.19
678.458	375.54
678.904	378.09
679.349	368.09
679.794	369.24
680.24	368.59
680.685	363.74
681.131	365.19
681.576	364.49
682.021	366.74
682.466	374.09
682.912	372.99
683.357	395.64
683.802	429.94
684.247	467.69
684.692	488.89
685.137	507.64
685.583	515.99
686.028	536.44
686.473	513.39
686.918	453.39
687.363	406.14
687.807	393.89
688.252	378.79
688.697	357.14
689.142	350.44
689.587	353.64
690.032	362.94
690.477	370.09
690.921	393.34
691.366	410.99
691.811	425.24
692.255	462.84
692.7	564.94
693.145	811.54
693.589	1215.39
694.034	1418.39
694.478	1493.34
694.923	1355.64
695.367	1872.64
695.812	1184.54
696.256	518.94
696.701	388.99
697.145	358.94
697.59	346.44
698.034	342.49
698.478	343.44
698.922	345.14
699.367	355.24
699.811	365.79
700.255	400.14
700.699	434.89
701.143	473.29
701.588	489.64
702.032	511.44
702.476	525.89
702.92	555.49
703.364	740.69
703.808	1120.84
704.252	1372.19
704.696	1429.49
705.14	1331.69
705.584	1774.24
706.027	1032.24
706.471	528.99
706.915	398.54
707.359	352.64
707.803	339.94
708.246	325.49
708.69	326.64
709.134	323.29
709.577	315.59
710.021	326.39
710.465	325.04
710.908	318.79
711.352	333.99
711.795	373.44
712.239	392.89
712.682	404.79
713.126	397.39
713.569	439.69
714.012	373.19
714.456	329.24
714.899	304.59
715.342	287.24
715.786	273.14
716.229	267.19
716.672	259.69
717.115	261.14
717.558	269.79
718.002	271.59
718.445	282.94
718.888	298.09
719.331	306.84
719.774	312.49
720.217	306.49
720.66	287.54
721.103	273.09
721.546	260.69
721.989	248.44
722.432	253.99
722.874	246.74
723.317	253.39
723.76	275.99
724.203	340.19
724.645	450.79
725.088	517.59
725.531	500.19
725.974	538.49
726.416	489.04
726.859	312.24
727.301	258.49
727.744	247.14
728.187	249.99
728.629	252.49
729.071	263.89
729.514	269.84
729.956	287.04
730.399	290.29
730.841	287.59
731.283	279.49
731.726	268.54
732.168	273.59
732.61	292.89
733.053	315.64
733.495	344.64
733.937	383.34
734.379	452.24
734.821	581.24
735.263	928.94
735.705	1616.54
736.148	2312.44
736.59	2266.09
737.032	2412.04
737.474	2012.09
737.916	824.89
738.357	434.19
738.799	333.84
739.241	310.74
739.683	312.64
740.125	316.29
740.567	320.39
741.008	334.84
741.45	347.74
741.892	365.74
742.334	362.64
742.775	351.89
743.217	333.94
743.658	291.29
744.1	297.14
744.542	327.69
744.983	336.04
745.425	346.04
745.866	352.14
746.307	314.39
746.749	349.24
747.19	510.49
747.632	988.44
748.073	1760.89
748.514	2360.79
748.956	3120.49
749.397	3597.54
749.838	2511.29
750.279	2336.99
750.72	1264.84
751.162	545.74
751.603	320.84
752.044	255.09
752.485	224.34
752.926	211.99
753.367	204.24
753.808	201.59
754.249	196.99
754.69	197.09
755.131	191.74
755.572	190.79
756.013	189.84
756.453	197.14
756.894	195.39
757.335	198.44
757.776	197.84
758.216	207.29
758.657	219.84
759.098	242.89
759.538	295.49
759.979	426.24
760.42	858.14
760.86	2129.34
761.301	4327.34
761.741	4933.99
762.182	5611.44
762.622	3627.74
763.063	1401.14
763.503	626.54
763.943	493.99
764.384	538.04
764.824	506.59
765.264	502.79
765.705	356.94
766.145	257.29
766.585	223.89
767.025	239.64
767.465	317.09
767.906	390.34
768.346	407.14
768.786	419.09
769.226	422.14
769.666	709.19
770.106	1486.49
770.546	2016.34
770.986	2239.19
771.426	1707.59
771.866	751.79
772.306	347.34
772.745	223.74
773.185	192.64
773.625	194.54
774.065	224.59
774.505	381.94
774.944	763.04
775.384	1115.84
775.824	1241.84
776.263	1026.24
776.703	509.34
777.142	262.09
777.582	174.39
778.021	164.84
778.461	151.09
778.9	151.69
779.34	136.94
779.779	128.19
780.219	125.59
780.658	121.99
781.097	121.89
781.537	115.94
781.976	114.09
782.415	116.24
782.855	118.04
783.294	116.24
783.733	112.59
784.172	121.59
784.611	118.24
785.05	116.69
785.489	121.34
785.928	125.74
786.367	126.94
786.806	136.99
787.245	141.54
787.684	146.19
788.123	140.79
788.562	140.49
789.001	135.94
789.44	134.24
789.879	133.54
790.317	135.74
790.756	144.29
791.195	162.54
791.634	218.84
792.072	399.19
792.511	962.39
792.95	1690.99
793.388	1976.84
793.827	1312.79
794.265	623.64
794.704	305.29
795.142	189.14
795.581	153.64
796.019	137.04
796.458	137.44
796.896	145.14
797.334	166.94
797.773	224.14
798.211	431.89
798.649	865.34
799.087	1422.14
799.526	1960.59
799.964	1987.04
800.402	1377.84
800.84	653.79
801.278	318.49
801.716	197.29
802.154	159.74
802.592	151.09
803.03	152.74
803.468	155.74
803.906	159.84
804.344	153.84
804.782	144.24
805.22	143.79
805.658	156.84
806.096	165.14
806.533	183.69
806.971	239.09
807.409	350.39
807.847	690.34
808.284	1695.39
808.722	2871.04
809.16	4031.69
809.597	5551.94
810.035	6632.94
810.472	4255.54
810.91	1910.24
811.347	871.79
811.785	407.49
812.222	251.59
812.66	194.54
813.097	167.39
813.535	148.74
813.972	130.74
814.409	125.89
814.846	114.89
815.284	107.24
815.721	113.59
816.158	123.84
816.595	157.39
817.032	185.99
817.47	169.34
817.907	137.64
818.344	120.64
818.781	115.74
819.218	136.04
819.655	189.54
820.092	236.84
820.529	223.79
820.966	188.49
821.403	140.19
821.839	123.44
822.276	129.94
822.713	146.89
823.15	140.74
823.587	154.09
824.023	286.39
824.46	711.29
824.897	1183.49
825.333	913.59
825.77	439.34
826.206	235.59
826.643	138.29
827.08	103.14
827.516	91.44
827.953	88.09
828.389	80.59
828.825	77.19
829.262	74.64
829.698	71.14
830.135	62.54
830.571	65.24
831.007	69.39
831.443	69.49
831.88	70.59
832.316	74.39
832.752	67.74
833.188	72.19
833.624	76.94
834.06	70.54
834.497	70.54
834.933	68.84
835.369	83.14
835.805	91.89
836.241	91.94
836.677	98.14
837.112	112.29
837.548	142.69
837.984	211.24
838.42	454.64
838.856	1229.14
839.292	2283.64
839.727	1703.49
840.163	1213.24
840.599	1804.34
841.034	2635.49
841.47	1353.79
841.906	685.09
842.341	393.19
842.777	348.34
843.212	399.54
843.648	237.49
844.083	149.99
844.519	102.94
844.954	82.49
845.39	70.64
845.825	67.99
846.261	67.74
846.696	66.04
847.131	56.49
847.566	57.54
848.002	60.09
848.437	64.04
848.872	67.14
849.307	89.59
849.742	161.24
850.177	412.34
850.613	838.09
851.048	591.29
851.483	277.79
851.918	155.69
852.353	96.09
852.788	68.49
853.223	63.09
853.657	53.64
854.092	50.49
854.527	45.29
854.962	50.39
855.397	55.04
855.832	49.94
856.266	41.74
856.701	45.84
857.136	45.14
857.57	48.39
858.005	53.19
858.44	48.89
858.874	51.94
859.309	53.64
859.743	51.64
860.178	45.99
860.612	59.39
861.047	69.84
861.481	88.29
861.915	63.54
862.35	56.44
862.784	44.44
863.218	39.99
863.653	44.09
864.087	50.69
864.521	69.99
864.955	122.89
865.39	193.24
865.824	138.79
866.258	163.04
866.692	229.69
867.126	169.44
867.56	96.24
867.994	61.14
868.428	55.49
868.862	66.39
869.296	57.89
869.73	70.14
870.164	59.74
870.598	55.19
871.031	43.74
871.465	41.84
871.899	31.54
872.333	30.04
872.766	31.59
873.2	34.59
873.634	30.29
874.067	36.74
874.501	37.19
874.935	35.44
875.368	34.99
875.802	27.44
876.235	27.29
876.669	28.09
877.102	19.49
877.535	28.14
877.969	27.99
878.402	24.54
878.836	23.39
879.269	22.24
879.702	23.69
880.135	27.54
880.569	32.39
881.002	22.99
881.435	23.44
881.868	27.69
882.301	26.14
882.734	25.84
883.167	27.89
883.601	23.24
884.034	26.64
884.467	17.39
884.899	19.49
885.332	17.04
885.765	18.24
886.198	16.19
886.631	18.84
887.064	22.74
887.497	18.19
887.929	20.84
888.362	20.79
888.795	22.24
889.228	19.59
889.66	21.19
890.093	20.54
890.526	20.54
890.958	17.29
891.391	20.64
891.823	18.94
892.256	17.59
892.688	22.34
893.121	17.39
893.553	21.84
893.985	20.94
894.418	13.54
894.85	18.14
895.282	13.84
895.715	11.24
896.147	13.99
896.579	15.89
897.011	21.49
897.444	18.69
897.876	11.44
898.308	15.44
898.74	20.19
899.172	22.89
899.604	18.89
900.036	20.59
900.468	13.84
900.9	18.24
901.332	22.74
901.764	23.14
902.196	23.89
902.628	20.44
903.06	30.39
903.491	29.94
903.923	23.99
904.355	28.99
904.787	27.59
905.218	26.24
905.65	24.24
906.082	29.94
906.513	19.29
906.945	21.24
907.376	22.29
907.808	22.84
908.239	25.59
908.671	27.39
909.102	26.59
909.534	38.29
909.965	79.49
910.397	199.54
910.828	552.44
911.259	329.84
911.691	187.09
912.122	107.24
912.553	53.59
912.984	26.79
913.415	24.44
913.847	22.99
914.278	22.99
914.709	21.24
915.14	18.39
915.571	20.39
916.002	19.34
916.433	17.59
916.864	17.29
917.295	17.89
917.726	24.49
918.157	30.39
918.587	24.59
919.018	28.19
919.449	21.79
919.88	26.54
920.311	38.94
920.741	117.99
921.172	206.84
921.603	102.89
922.033	65.14
922.464	44.54
922.895	28.94
923.325	20.94
923.756	23.09
924.186	30.74
924.617	48.99
925.047	79.74
925.478	65.29
925.908	45.54
926.338	31.79
926.769	19.49
927.199	20.19
927.629	16.29
928.06	16.54
928.49	14.49
928.92	17.39
929.35	15.69
929.78	14.94
930.21	13.94
930.641	6.04
931.071	10.89
931.501	11.69
931.931	6.89
932.361	14.79
932.791	12.64
933.221	15.44
933.651	17.69
934.08	28.89
934.51	16.69
934.94	15.24
935.37	9.79
935.8	4.09
936.229	5.29
936.659	6.74
937.089	11.94
937.519	15.89
937.948	22.49
938.378	17.59
938.807	8.39
939.237	6.34
939.666	8.54
940.096	4.14
940.525	1.69
940.955	6.49
941.384	3.49
941.814	3.44
942.243	3.94
942.672	-0.01
943.102	1.14
943.531	1.74
943.96	5.19
944.39	3.59
944.819	5.84
945.248	3.99
945.677	1.39
946.106	2.54
946.535	3.89
946.964	1.84
947.393	3.39
947.822	2.99
948.251	3.69
948.68	8.94
949.109	2.89
949.538	3.24
949.967	3.69
950.396	3.29
950.825	6.14
951.254	4.49
951.682	-1.36
952.111	-2.41
952.54	0.34
952.969	5.39
953.397	-2.76
953.826	-0.86
954.254	7.14
954.683	3.34
955.112	0.94
955.54	1.24
955.969	1.64
956.397	2.29
956.826	4.14
957.254	7.09
957.682	3.09
958.111	3.34
958.539	6.09
958.967	-1.16
959.396	7.49
959.824	6.64
960.252	6.44
960.68	0.09
961.109	1.64
961.537	6.09
961.965	-0.86
962.393	-0.46
962.821	2.69
963.249	4.09
963.677	3.89
964.105	30.64
964.533	55.24
964.961	26.09
965.389	13.24
965.817	7.04
966.245	4.94
966.672	2.29
967.1	2.19
967.528	-1.66
967.956	-2.51
968.383	1.99
968.811	-1.31
969.239	-0.16
969.666	2.54
970.094	4.29
970.522	-4.96
970.949	3.84
971.377	-1.76
971.804	0.34
972.232	1.89
972.659	2.19
973.087	4.89
973.514	-0.81
973.941	0.64
974.369	-1.81
974.796	-0.91
975.223	-3.61
975.651	4.04
976.078	1.09
976.505	5.24
976.932	10.19
977.359	14.04
977.786	7.54
978.214	5.94
978.641	3.04
979.068	4.44
979.495	-3.11
979.922	2.04
980.349	5.64
980.776	2.59
981.202	-1.46
981.629	0.74
982.056	2.24
982.483	-4.21
982.91	5.24
983.337	-3.71
983.763	-3.36
984.19	4.29
984.617	0.14
985.043	-0.06
985.47	-1.31
985.897	1.24
986.323	7.79
986.75	-6.41
987.176	0.24
987.603	1.89
988.029	-2.71
988.456	4.39
988.882	-1.71
989.308	-7.41
989.735	-2.01
990.161	0.34
990.587	-3.31
991.014	3.04
991.44	0.04
991.866	-2.81
992.292	1.79
992.719	-0.36
993.145	0.29
993.571	0.79
993.997	4.34
994.423	5.24
994.849	-8.11
995.275	-0.16
995.701	1.89
996.127	-2.36
996.553	0.74
996.979	-4.26
997.405	6.94
997.83	1.24
998.256	4.44
998.682	-0.61
999.108	0.69
999.534	-5.06
999.959	-2.01
1000.385	4.44
1000.811	-1.41
1001.236	-2.01
1001.662	-4.11
1002.087	3.84
1002.513	-1.61
1002.938	-5.06
1003.364	1.74
1003.789	4.24
1004.215	0.99
1004.64	-2.31
1005.066	0.09
1005.491	3.54
1005.916	0.39
1006.342	-0.41
1006.767	2.09
1007.192	3.14
1007.617	2.64
1008.042	-3.71
1008.468	-1.16
1008.893	0.14
1009.318	1.49
1009.743	0.04
1010.168	7.59
1010.593	10.04
1011.018	1.19
1011.443	-5.66
1011.868	5.34
1012.293	4.64
1012.718	-3.81
1013.143	-1.91
1013.567	4.39
1013.992	0.49
1014.417	-1.71
1014.842	-4.91
1015.267	-4.21
1015.691	4.79
1016.116	-3.11
1016.541	-0.86
1016.965	4.69
1017.39	0.34
1017.814	-4.61
1018.239	-1.31
1018.663	-5.66
1019.088	-2.91
1019.512	3.29
1019.937	-5.16
1020.361	-4.91
1020.785	2.24
1021.21	-6.16
1021.634	-0.56
1022.058	-0.16
1022.483	-5.01
1022.907	-3.01
1023.331	-0.66
1023.755	-5.06
1024.179	-1.56
1024.604	-2.56
1025.028	2.54
1025.452	-2.06
1025.876	2.09
1026.3	-3.36
1026.724	-3.21
1027.148	2.74
1027.572	-5.41
1027.996	1.89
1028.42	-0.36
1028.843	-1.16
1029.267	-2.46
1029.691	5.84
1030.115	-0.41
1030.539	0.39
1030.962	-2.76
1031.386	-2.56
1031.81	0.54
1032.233	-1.56
1032.657	-9.56
1033.08	-0.26
1033.504	-2.76
1033.927	1.59
1034.351	0.84
1034.774	-3.66
1035.198	-4.46
1035.621	-3.46
1036.045	-2.96
1036.468	5.74
1036.891	-2.61
1037.315	1.34
1037.738	-1.91
1038.161	-0.21
1038.584	-0.36
1039.008	-1.46
1039.431	-3.91
1039.854	-8.46
1040.277	1.49
1040.7	-2.61
1041.123	0.49
1041.546	-1.16
1041.969	-0.86
1042.392	2.54
1042.815	-6.91
1043.238	-2.76
1043.661	-5.06
1044.084	-3.61
1044.507	-3.46
1044.93	-2.41
1045.352	0.99
1045.775	-6.61
1046.198	-2.11
1046.621	5.79
1047.043	-7.76
1047.466	-0.66
1047.889	-2.16
1048.311	3.79
1048.734	-1.56
1049.156	-0.01
1049.579	-5.96
1050.001	-2.76
1050.424	-2.91
1050.846	-3.86
1051.269	-6.51
1051.691	-3.06
1052.113	1.54
1052.536	-1.36
1052.958	-5.96
1053.38	-3.61
1053.802	1.84
1054.225	-2.76
1054.647	-0.01
1055.069	-3.11
1055.491	-1.31
1055.913	1.49
1056.335	-8.46
1056.757	-5.21
1057.179	-2.56
1057.601	-2.16
1058.023	1.04
1058.445	-5.91
1058.867	4.04
1059.289	-3.76
1059.711	-4.06
1060.133	1.19
1060.555	-1.21
1060.976	-2.21
1061.398	-0.71
1061.82	-2.31
1062.241	-3.71
1062.663	-3.06
1063.085	-2.46
1063.506	-8.96
1063.928	-4.66
1064.35	0.14
1064.771	-2.96
1065.193	-0.91
1065.614	-1.96
1066.035	-1.41
1066.457	-0.91
1066.878	-2.41
1067.3	-4.31
1067.721	-0.96
1068.142	1.19
1068.564	1.64
1068.985	0.39
1069.406	-3.66
1069.827	-0.96
1070.248	-1.56
1070.67	-4.66
1071.091	-7.36
1071.512	-6.36
1071.933	-2.86
1072.354	-2.86
1072.775	-1.11
1073.196	-2.56
1073.617	-6.21
1074.038	-3.51
1074.459	-4.76
1074.88	-4.31
1075.3	-2.56
1075.721	4.74
1076.142	-1.36
1076.563	-8.36
1076.983	-0.76
1077.404	-4.96
1077.825	-1.01
1078.246	-4.51
1078.666	-5.26
1079.087	-3.61
1079.507	-6.26
1079.928	-8.71
1080.348	-0.76
1080.769	-0.41
1081.189	-2.01
1081.61	-9.01
1082.03	-2.51
1082.451	-0.11
1082.871	-6.51
1083.291	-7.11
1083.711	-1.51
1084.132	-4.16
1084.552	-4.11
1084.972	-9.21
1085.392	-4.86
1085.813	-0.11
1086.233	0.94
1086.653	2.59
1087.073	-3.96
1087.493	-2.76
1087.913	-5.86
1088.333	-2.36
1088.753	-0.11
1089.173	-0.36
1089.593	-2.11
1090.013	-3.51
1090.433	-4.51
1090.852	-0.81
1091.272	-5.46
1091.692	1.54
1092.112	-0.71
1092.531	-4.41
1092.951	-4.06
1093.371	-3.61
1093.79	-3.66
1094.21	-2.36
1094.63	-0.61
1095.049	-1.26
1095.469	-7.36
1095.888	-1.16
1096.308	0.44
1096.727	-2.66
1097.146	-3.81
1097.566	1.54
1097.985	-1.56
1098.405	0.39
1098.824	-0.91
1099.243	-1.26
1099.662	-3.16
1100.082	-3.96
1100.501	-2.16
1100.92	-0.06
1101.339	-3.31
1101.758	1.44
