Data from MSPlasma+Separation6_Subt14_10-15-02-844.txt Node
Date: Fri Jul 21 10:15:02 EDT 2017
User: Ender
Spectrometer: HR+D1039
Trigger mode: 0
Integration Time (sec): 6.430000E-3
Scans to average: 20
Electric dark correction enabled: true
Nonlinearity correction enabled: false
Boxcar width: 0
XAxis mode: Wavelengths
Number of Pixels in Spectrum: 2048
>>>>>Begin Spectral Data<<<<<
187.836	-0.86
188.309	-0.86
188.782	-0.86
189.255	2.59
189.728	3.14
190.201	-1.91
190.674	-2.06
191.147	-2.76
191.619	0.94
192.092	-0.66
192.565	4.34
193.038	1.44
193.511	0.84
193.984	-3.41
194.456	-0.76
194.929	-1.71
195.402	0.49
195.874	0.34
196.347	4.44
196.82	-0.06
197.292	-6.51
197.765	0.29
198.237	-1.81
198.71	-1.61
199.182	1.14
199.655	2.64
200.127	5.64
200.6	1.74
201.072	5.34
201.544	-1.01
202.017	5.64
202.489	3.24
202.961	0.54
203.433	-3.06
203.906	0.54
204.378	-0.06
204.85	0.89
205.322	4.09
205.794	7.19
206.266	2.09
206.739	9.49
207.211	1.24
207.683	1.39
208.155	3.54
208.627	3.49
209.099	5.89
209.57	4.49
210.042	6.84
210.514	8.09
210.986	13.89
211.458	23.04
211.93	13.59
212.402	6.14
212.873	-0.26
213.345	-0.46
213.817	7.04
214.288	-1.11
214.76	1.34
215.232	1.54
215.703	0.34
216.175	0.04
216.646	6.94
217.118	3.74
217.589	-1.06
218.061	2.29
218.532	1.54
219.004	11.64
219.475	15.19
219.946	25.69
220.418	33.14
220.889	26.29
221.36	12.84
221.832	8.69
222.303	8.09
222.774	9.84
223.245	3.59
223.717	4.84
224.188	7.29
224.659	1.84
225.13	6.14
225.601	10.29
226.072	7.54
226.543	10.09
227.014	6.89
227.485	12.19
227.956	8.34
228.427	15.54
228.898	9.54
229.369	12.64
229.839	13.04
230.31	17.09
230.781	14.34
231.252	18.59
231.722	29.04
232.193	32.94
232.664	38.99
233.135	52.09
233.605	61.29
234.076	47.59
234.546	37.84
235.017	46.59
235.487	46.34
235.958	43.09
236.428	61.79
236.899	102.89
237.369	113.14
237.84	83.89
238.31	102.29
238.78	100.34
239.251	105.79
239.721	103.44
240.191	78.99
240.662	49.74
241.132	39.79
241.602	49.14
242.072	70.44
242.542	84.89
243.013	58.89
243.483	58.14
243.953	41.04
244.423	38.84
244.893	49.74
245.363	59.09
245.833	53.39
246.303	57.19
246.773	77.34
247.243	74.34
247.712	88.29
248.182	106.54
248.652	106.59
249.122	157.79
249.592	294.64
250.061	451.34
250.531	715.34
251.001	542.79
251.471	455.94
251.94	347.89
252.41	187.39
252.879	130.29
253.349	97.94
253.818	85.54
254.288	68.44
254.757	70.69
255.227	96.44
255.696	77.44
256.166	70.64
256.635	73.09
257.105	96.14
257.574	120.59
258.043	126.04
258.513	225.79
258.982	282.44
259.451	199.34
259.92	198.69
260.389	181.14
260.859	133.79
261.328	155.74
261.797	229.84
262.266	198.24
262.735	97.99
263.204	63.04
263.673	54.69
264.142	47.99
264.611	53.29
265.08	54.84
265.549	61.44
266.018	55.59
266.487	55.44
266.955	54.24
267.424	60.19
267.893	65.24
268.362	60.94
268.83	58.99
269.299	63.34
269.768	69.14
270.236	83.99
270.705	90.79
271.174	85.54
271.642	99.74
272.111	109.44
272.579	178.24
273.048	271.14
273.516	344.54
273.985	346.59
274.453	271.09
274.922	162.59
275.39	105.34
275.858	99.94
276.327	83.04
276.795	84.44
277.263	95.49
277.731	121.04
278.2	232.84
278.668	303.74
279.136	240.59
279.604	157.34
280.072	97.79
280.54	83.29
281.008	88.29
281.477	89.09
281.945	89.89
282.413	89.39
282.881	91.89
283.348	96.29
283.816	100.59
284.284	106.44
284.752	102.34
285.22	96.94
285.688	113.69
286.156	185.64
286.623	495.19
287.091	957.79
287.559	497.69
288.026	200.79
288.494	128.34
288.962	108.09
289.429	102.39
289.897	94.04
290.364	93.94
290.832	93.39
291.3	96.94
291.767	104.04
292.234	105.39
292.702	105.09
293.169	116.09
293.637	124.44
294.104	115.94
294.571	110.94
295.039	109.09
295.506	104.64
295.973	115.94
296.44	109.04
296.908	117.84
297.375	138.39
297.842	131.39
298.309	118.29
298.776	118.19
299.243	126.24
299.71	118.64
300.177	114.69
300.644	123.69
301.111	137.74
301.578	129.59
302.045	119.64
302.512	118.14
302.979	123.74
303.446	132.74
303.913	129.39
304.379	142.54
304.846	159.84
305.313	174.44
305.78	200.39
306.246	243.79
306.713	251.19
307.18	223.79
307.646	246.89
308.113	219.24
308.579	169.74
309.046	175.64
309.512	173.49
309.979	158.99
310.445	144.09
310.912	151.99
311.378	158.44
311.845	156.04
312.311	152.54
312.777	149.94
313.244	159.84
313.71	167.94
314.176	183.89
314.642	201.54
315.109	236.49
315.575	223.64
316.041	207.69
316.507	195.39
316.973	216.89
317.439	208.34
317.905	229.64
318.371	227.49
318.837	210.24
319.303	227.09
319.769	206.44
320.235	234.49
320.701	261.09
321.167	283.39
321.633	336.24
322.099	457.29
322.564	608.64
323.03	483.29
323.496	342.54
323.962	321.69
324.427	295.64
324.893	265.14
325.359	259.09
325.824	225.34
326.29	237.09
326.755	241.44
327.221	237.24
327.686	249.89
328.152	233.49
328.617	217.14
329.083	223.19
329.548	237.34
330.014	244.79
330.479	259.89
330.944	306.09
331.41	347.39
331.875	333.99
332.34	342.89
332.805	393.74
333.271	499.29
333.736	655.79
334.201	581.69
334.666	438.94
335.131	498.14
335.596	401.39
336.061	418.59
336.526	433.99
336.991	374.59
337.456	401.34
337.921	321.84
338.386	267.04
338.851	249.84
339.316	226.19
339.781	227.59
340.246	227.29
340.711	232.09
341.175	228.24
341.64	245.39
342.105	246.69
342.569	263.04
343.034	274.04
343.499	283.79
343.963	278.64
344.428	270.79
344.893	271.64
345.357	284.39
345.822	276.84
346.286	281.89
346.751	294.84
347.215	293.04
347.679	305.39
348.144	320.19
348.608	312.34
349.073	330.94
349.537	364.24
350.001	356.54
350.465	334.24
350.93	323.09
351.394	322.29
351.858	322.39
352.322	335.99
352.786	342.19
353.25	334.99
353.715	329.29
354.179	350.44
354.643	370.44
355.107	382.34
355.571	397.89
356.035	408.64
356.498	393.59
356.962	420.94
357.426	409.44
357.89	374.24
358.354	354.69
358.818	354.44
359.281	365.19
359.745	378.09
360.209	364.19
360.673	374.04
361.136	383.34
361.6	376.89
362.064	397.84
362.527	409.24
362.991	405.44
363.454	397.59
363.918	412.44
364.381	404.59
364.845	403.49
365.308	396.89
365.772	396.69
366.235	402.44
366.698	420.29
367.162	498.69
367.625	548.34
368.088	450.29
368.552	418.79
369.015	422.69
369.478	453.44
369.941	455.34
370.404	463.74
370.867	497.19
371.331	499.19
371.794	502.54
372.257	558.34
372.72	588.79
373.183	564.29
373.646	571.09
374.109	572.89
374.572	648.89
375.035	766.59
375.497	591.99
375.96	482.59
376.423	465.59
376.886	457.04
377.349	471.74
377.811	482.24
378.274	481.89
378.737	486.99
379.199	500.84
379.662	515.64
380.125	548.54
380.587	605.24
381.05	636.34
381.512	633.09
381.975	614.04
382.437	606.89
382.9	608.29
383.362	615.24
383.825	654.09
384.287	808.54
384.75	894.49
385.212	796.54
385.674	660.69
386.136	606.09
386.599	603.39
387.061	625.59
387.523	652.79
387.985	657.94
388.447	682.79
388.91	749.29
389.372	897.99
389.834	841.84
390.296	710.89
390.758	723.74
391.22	749.04
391.682	914.84
392.144	1385.39
392.606	1292.84
393.068	780.59
393.529	713.49
393.991	701.34
394.453	680.24
394.915	709.89
395.377	867.44
395.838	1048.84
396.3	754.54
396.762	592.89
397.224	569.14
397.685	557.69
398.147	571.84
398.608	580.04
399.07	580.64
399.531	568.19
399.993	586.89
400.454	594.49
400.916	590.94
401.377	610.24
401.839	610.99
402.3	615.89
402.762	646.49
403.223	704.34
403.684	713.89
404.145	662.54
404.607	642.89
405.068	643.44
405.529	655.29
405.99	668.74
406.451	676.64
406.913	664.54
407.374	675.29
407.835	675.09
408.296	701.04
408.757	698.64
409.218	725.74
409.679	725.34
410.14	737.89
410.601	766.49
411.062	796.04
411.522	910.74
411.983	1001.59
412.444	871.44
412.905	770.44
413.366	779.24
413.826	792.94
414.287	886.24
414.748	1063.39
415.208	1076.54
415.669	904.54
416.13	826.34
416.59	808.94
417.051	836.59
417.511	871.39
417.972	940.94
418.432	1010.84
418.893	1116.34
419.353	1069.84
419.814	822.64
420.274	741.59
420.734	732.64
421.195	784.44
421.655	815.84
422.115	793.14
422.576	761.79
423.036	767.99
423.496	791.94
423.956	829.34
424.416	887.54
424.876	1004.39
425.336	999.64
425.797	987.19
426.257	986.64
426.717	923.74
427.177	868.29
427.637	888.79
428.097	943.99
428.556	979.54
429.016	1068.89
429.476	1056.39
429.936	1015.99
430.396	994.94
430.856	1017.64
431.315	1031.74
431.775	1103.89
432.235	1167.79
432.694	1184.09
433.154	1114.99
433.614	1087.59
434.073	1046.94
434.533	958.89
434.993	919.09
435.452	928.99
435.912	915.69
436.371	913.09
436.83	911.19
437.29	926.99
437.749	886.69
438.209	869.09
438.668	881.34
439.127	890.34
439.587	868.89
440.046	836.29
440.505	851.24
440.964	853.69
441.424	885.89
441.883	896.94
442.342	847.54
442.801	821.04
443.26	842.94
443.719	829.34
444.178	824.74
444.637	840.64
445.096	835.19
445.555	852.99
446.014	847.64
446.473	826.84
446.932	826.69
447.391	839.84
447.849	857.29
448.308	848.69
448.767	865.84
449.226	885.34
449.685	896.74
450.143	924.69
450.602	927.14
451.061	897.39
451.519	902.54
451.978	919.59
452.436	944.89
452.895	907.39
453.353	882.14
453.812	900.29
454.27	885.99
454.729	863.59
455.187	866.94
455.646	871.99
456.104	877.79
456.562	872.79
457.021	868.74
457.479	834.29
457.937	864.99
458.395	887.59
458.854	873.54
459.312	860.64
459.77	871.69
460.228	883.74
460.686	898.19
461.144	897.84
461.602	882.89
462.06	883.99
462.518	906.39
462.976	907.39
463.434	921.29
463.892	925.09
464.35	943.99
464.808	956.09
465.266	966.74
465.724	980.39
466.181	978.89
466.639	971.89
467.097	1011.99
467.555	1049.09
468.012	1045.39
468.47	1053.29
468.928	1086.64
469.385	1117.34
469.843	1126.04
470.3	1118.84
470.758	1153.64
471.215	1167.94
471.673	1202.04
472.13	1227.84
472.588	1250.84
473.045	1254.14
473.503	1271.94
473.96	1328.84
474.417	1353.14
474.875	1411.19
475.332	1448.54
475.789	1469.94
476.246	1511.99
476.704	1588.54
477.161	1620.59
477.618	1666.19
478.075	1753.74
478.532	1883.59
478.989	2038.24
479.446	2251.59
479.903	2365.59
480.36	2591.44
480.817	2748.14
481.274	2939.49
481.731	3205.24
482.188	3428.59
482.645	3714.89
483.102	3937.44
483.558	4216.14
484.015	4410.39
484.472	4426.39
484.929	4264.04
485.385	4102.79
485.842	3981.59
486.299	3807.09
486.755	3461.79
487.212	3098.14
487.668	2799.04
488.125	2596.09
488.582	2404.99
489.038	2307.64
489.494	2237.54
489.951	2173.59
490.407	2131.99
490.864	2098.64
491.32	2050.14
491.776	2024.79
492.233	2024.64
492.689	2000.19
493.145	1975.39
493.602	1959.89
494.058	1991.59
494.514	2021.79
494.97	2029.64
495.426	2047.54
495.882	2058.74
496.338	2054.49
496.794	2135.19
497.251	2133.94
497.707	2137.34
498.163	2150.24
498.618	2148.69
499.074	2170.09
499.53	2201.04
499.986	2240.94
500.442	2261.39
500.898	2277.59
501.354	2305.44
501.809	2325.49
502.265	2347.29
502.721	2466.64
503.177	2526.39
503.632	2413.79
504.088	2425.04
504.543	2620.59
504.999	2484.49
505.455	2198.59
505.91	2104.69
506.366	2079.79
506.821	2087.99
507.277	2063.99
507.732	2068.14
508.187	2056.14
508.643	2090.74
509.098	2079.74
509.553	2121.04
510.009	2143.09
510.464	2167.19
510.919	2186.34
511.375	2226.44
511.83	2236.74
512.285	2278.39
512.74	2339.79
513.195	2366.14
513.65	2404.69
514.105	2448.94
514.56	2456.14
515.015	2508.34
515.47	2537.54
515.925	2511.54
516.38	2507.54
516.835	2502.89
517.29	2509.29
517.745	2516.64
518.2	2465.94
518.655	2389.19
519.109	2365.49
519.564	2336.84
520.019	2327.54
520.474	2289.74
520.928	2280.49
521.383	2282.69
521.838	2258.49
522.292	2237.19
522.747	2202.94
523.201	2214.94
523.656	2176.44
524.11	2175.59
524.565	2170.39
525.019	2175.59
525.474	2185.24
525.928	2173.99
526.382	2145.74
526.837	2135.34
527.291	2152.79
527.745	2136.04
528.2	2138.14
528.654	2116.34
529.108	2121.59
529.562	2122.39
530.016	2126.34
530.47	2134.94
530.925	2121.84
531.379	2140.59
531.833	2169.39
532.287	2143.44
532.741	2138.39
533.195	2124.39
533.649	2132.24
534.103	2136.84
534.556	2135.09
535.01	2142.09
535.464	2133.14
535.918	2138.24
536.372	2159.99
536.826	2129.99
537.279	2123.59
537.733	2130.69
538.187	2138.49
538.64	2151.69
539.094	2152.54
539.548	2184.14
540.001	2181.59
540.455	2202.09
540.908	2200.59
541.362	2238.89
541.815	2249.64
542.269	2285.19
542.722	2288.74
543.175	2299.59
543.629	2321.89
544.082	2333.89
544.536	2357.14
544.989	2352.29
545.442	2370.64
545.895	2367.49
546.349	2377.99
546.802	2394.14
547.255	2374.99
547.708	2380.59
548.161	2420.44
548.614	2427.74
549.067	2433.14
549.52	2423.64
549.973	2383.99
550.426	2372.24
550.879	2352.84
551.332	2346.19
551.785	2377.64
552.238	2386.79
552.691	2386.09
553.144	2426.79
553.596	2457.94
554.049	2482.64
554.502	2547.44
554.955	2600.69
555.407	2628.69
555.86	2594.54
556.313	2565.94
556.765	2536.24
557.218	2526.84
557.67	2517.94
558.123	2476.69
558.576	2455.49
559.028	2456.94
559.48	2497.24
559.933	2476.69
560.385	2398.94
560.838	2314.79
561.29	2248.24
561.742	2247.09
562.195	2192.19
562.647	2193.54
563.099	2177.99
563.551	2168.74
564.004	2184.24
564.456	2172.49
564.908	2125.54
565.36	2079.09
565.812	2035.84
566.264	2021.29
566.716	2000.49
567.168	1965.99
567.62	1969.84
568.072	1965.69
568.524	1936.74
568.976	1933.69
569.428	1910.14
569.88	1905.84
570.332	1919.84
570.784	1918.34
571.235	1904.89
571.687	1923.44
572.139	1913.84
572.59	1943.44
573.042	1949.69
573.494	1941.79
573.945	1909.84
574.397	1888.29
574.849	1880.19
575.3	1887.14
575.752	1850.59
576.203	1832.79
576.655	1855.04
577.106	1829.49
577.557	1814.19
578.009	1799.64
578.46	1805.49
578.912	1800.24
579.363	1810.99
579.814	1799.24
580.265	1798.14
580.717	1804.39
581.168	1791.49
581.619	1806.44
582.07	1835.49
582.521	1820.14
582.972	1815.89
583.423	1847.29
583.875	1879.04
584.326	1968.09
584.777	2136.39
585.227	2314.84
585.678	2472.64
586.129	2532.94
586.58	2559.94
587.031	2600.74
587.482	2756.59
587.933	3207.84
588.384	2954.89
588.834	2457.89
589.285	2112.89
589.736	2061.44
590.186	2067.04
590.637	2042.49
591.088	1994.54
591.538	1980.69
591.989	1953.19
592.439	1945.34
592.89	1919.74
593.34	1919.24
593.791	1940.24
594.241	1948.74
594.692	1960.24
595.142	1955.64
595.593	1917.39
596.043	1922.29
596.493	1939.39
596.943	1987.04
597.394	1961.09
597.844	1939.44
598.294	1983.09
598.744	2051.89
599.195	2145.09
599.645	2262.84
600.095	2373.29
600.545	2491.34
600.995	2597.44
601.445	2685.29
601.895	2835.24
602.345	2901.39
602.795	2848.79
603.245	2728.04
603.695	2564.94
604.145	2420.69
604.594	2300.29
605.044	2192.54
605.494	2061.44
605.944	1949.99
606.393	1915.29
606.843	1891.59
607.293	1896.39
607.743	1889.39
608.192	1899.79
608.642	1900.74
609.091	1905.14
609.541	1911.79
609.99	1900.44
610.44	1853.59
610.889	1844.49
611.339	1826.69
611.788	1807.69
612.238	1826.64
612.687	1846.84
613.136	1856.99
613.586	1898.34
614.035	1886.64
614.484	1910.79
614.933	1919.89
615.383	1884.69
615.832	1812.49
616.281	1785.99
616.73	1736.49
617.179	1692.84
617.628	1641.44
618.077	1615.74
618.526	1595.69
618.975	1586.59
619.424	1565.89
619.873	1565.09
620.322	1558.29
620.771	1555.79
621.22	1521.99
621.669	1504.14
622.118	1485.44
622.567	1480.24
623.015	1446.14
623.464	1446.39
623.913	1424.04
624.361	1432.59
624.81	1420.14
625.259	1422.74
625.707	1411.44
626.156	1411.89
626.604	1419.84
627.053	1430.14
627.501	1420.94
627.95	1441.04
628.398	1456.44
628.847	1446.49
629.295	1446.84
629.744	1467.04
630.192	1490.39
630.64	1588.64
631.089	1747.19
631.537	1825.09
631.985	1826.89
632.433	1896.99
632.881	1888.59
633.33	2250.69
633.778	2459.54
634.226	1755.39
634.674	1630.24
635.122	1622.54
635.57	1645.44
636.018	1908.59
636.466	1558.64
636.914	1396.24
637.362	1392.29
637.81	1404.24
638.258	1445.94
638.705	1467.04
639.153	1506.64
639.601	1512.69
640.049	1544.94
640.497	1580.49
640.944	1618.44
641.392	1544.89
641.84	1462.34
642.287	1406.94
642.735	1380.74
643.182	1361.89
643.63	1370.59
644.078	1379.29
644.525	1389.44
644.973	1424.04
645.42	1440.99
645.867	1470.04
646.315	1495.34
646.762	1546.94
647.21	1590.04
647.657	1664.74
648.104	1724.39
648.551	1780.94
648.999	1929.19
649.446	2126.39
649.893	2383.49
650.34	2785.39
650.787	3451.44
651.234	4462.99
651.682	6211.54
652.129	8841.34
652.576	12627.69
653.023	15527.94
653.47	15539.24
653.917	15539.29
654.363	15539.19
654.81	15536.19
655.257	15536.84
655.704	15479.84
656.151	9547.99
656.598	6227.54
657.044	4432.44
657.491	3466.89
657.938	2823.09
658.385	2393.29
658.831	2114.54
659.278	1896.29
659.724	1741.39
660.171	1619.44
660.618	1512.49
661.064	1425.19
661.511	1376.29
661.957	1332.84
662.404	1309.19
662.85	1293.59
663.296	1274.04
663.743	1249.64
664.189	1236.49
664.635	1226.94
665.082	1214.69
665.528	1195.84
665.974	1162.79
666.42	1149.99
666.867	1175.49
667.313	1171.29
667.759	1218.49
668.205	1214.09
668.651	1231.69
669.097	1197.14
669.543	1290.34
669.989	1224.79
670.435	1090.09
670.881	1085.29
671.327	1124.04
671.773	1205.94
672.219	1290.34
672.665	1373.84
673.11	1420.74
673.556	1446.19
674.002	1464.14
674.448	1481.94
674.893	1259.69
675.339	1106.09
675.785	1016.59
676.23	972.74
676.676	929.89
677.122	908.64
677.567	891.64
678.013	858.59
678.458	846.29
678.904	850.39
679.349	833.74
679.794	838.59
680.24	845.04
680.685	832.04
681.131	832.64
681.576	828.84
682.021	837.09
682.466	844.24
682.912	850.29
683.357	898.79
683.802	976.39
684.247	1068.04
684.692	1138.89
685.137	1181.04
685.583	1196.29
686.028	1256.04
686.473	1193.04
686.918	1023.74
687.363	940.59
687.807	897.84
688.252	857.74
688.697	834.84
689.142	805.14
689.587	804.59
690.032	822.19
690.477	857.94
690.921	896.74
691.366	945.04
691.811	975.04
692.255	1048.79
692.7	1294.69
693.145	1883.04
693.589	2867.29
694.034	3392.34
694.478	3567.24
694.923	3257.14
695.367	4630.39
695.812	2824.39
696.256	1198.39
696.701	871.34
697.145	819.29
697.59	787.59
698.034	775.59
698.478	784.69
698.922	788.69
699.367	799.39
699.811	843.09
700.255	922.89
700.699	999.09
701.143	1080.19
701.588	1136.09
702.032	1188.64
702.476	1218.64
702.92	1290.89
703.364	1707.19
703.808	2622.24
704.252	3251.74
704.696	3408.89
705.14	3217.49
705.584	4388.79
706.027	2441.79
706.471	1235.44
706.915	916.39
707.359	817.44
707.803	767.19
708.246	745.44
708.69	739.44
709.134	726.99
709.577	734.79
710.021	745.39
710.465	735.34
710.908	727.84
711.352	758.34
711.795	837.34
712.239	900.89
712.682	931.34
713.126	923.69
713.569	1036.24
714.012	846.99
714.456	742.74
714.899	700.79
715.342	657.34
715.786	630.89
716.229	611.94
716.672	601.94
717.115	598.04
717.558	605.09
718.002	625.89
718.445	650.19
718.888	691.69
719.331	698.89
719.774	713.29
720.217	699.49
720.66	665.14
721.103	626.59
721.546	590.29
721.989	577.79
722.432	579.54
722.874	571.99
723.317	574.69
723.76	625.44
724.203	775.64
724.645	1034.74
725.088	1210.79
725.531	1173.99
725.974	1275.79
726.416	1154.19
726.859	718.64
727.301	592.99
727.744	565.54
728.187	564.19
728.629	575.89
729.071	605.64
729.514	628.59
729.956	655.79
730.399	663.24
730.841	664.54
731.283	648.19
731.726	625.54
732.168	635.19
732.61	669.34
733.053	729.34
733.495	801.89
733.937	892.64
734.379	1051.74
734.821	1349.19
735.263	2154.29
735.705	3875.49
736.148	5648.39
736.59	5578.39
737.032	6023.54
737.474	4970.34
737.916	1914.29
738.357	1009.59
738.799	777.04
739.241	724.09
739.683	724.39
740.125	733.24
740.567	734.74
741.008	771.89
741.45	806.34
741.892	827.99
742.334	836.39
742.775	817.84
743.217	781.29
743.658	680.69
744.1	689.09
744.542	773.94
744.983	794.84
745.425	826.29
745.866	823.79
746.307	732.04
746.749	799.44
747.19	1169.59
747.632	2286.29
748.073	4242.59
748.514	5802.99
748.956	7655.89
749.397	8890.19
749.838	6141.99
750.279	5822.89
750.72	3009.44
751.162	1274.89
751.603	730.49
752.044	584.84
752.485	520.14
752.926	487.94
753.367	473.89
753.808	458.69
754.249	452.84
754.69	443.99
755.131	442.79
755.572	437.84
756.013	442.79
756.453	439.64
756.894	457.19
757.335	460.44
757.776	462.79
758.216	485.29
758.657	506.74
759.098	556.74
759.538	683.19
759.979	983.84
760.42	2001.44
760.86	5141.99
761.301	10516.44
761.741	12153.24
762.182	13821.19
762.622	8971.24
763.063	3256.29
763.503	1423.59
763.943	1076.89
764.384	1135.04
764.824	1065.69
765.264	1058.49
765.705	760.54
766.145	557.34
766.585	498.99
767.025	523.74
767.465	664.64
767.906	810.09
768.346	841.14
768.786	883.29
769.226	926.34
769.666	1633.64
770.106	3542.14
770.546	4954.74
770.986	5534.39
771.426	4168.84
771.866	1752.54
772.306	799.29
772.745	505.64
773.185	434.34
773.625	433.44
774.065	503.04
774.505	812.49
774.944	1612.44
775.384	2381.84
775.824	2698.64
776.263	2206.09
776.703	1098.39
777.142	571.54
777.582	393.29
778.021	360.94
778.461	341.04
778.9	325.34
779.34	309.94
779.779	293.99
780.219	285.54
780.658	278.44
781.097	278.24
781.537	268.29
781.976	266.09
782.415	262.99
782.855	266.49
783.294	261.14
783.733	256.94
784.172	266.44
784.611	259.79
785.05	269.39
785.489	271.54
785.928	284.04
786.367	294.44
786.806	306.94
787.245	331.34
787.684	344.19
788.123	335.54
788.562	318.94
789.001	304.94
789.44	301.99
789.879	299.84
790.317	302.29
790.756	317.94
791.195	365.04
791.634	502.44
792.072	913.14
792.511	2254.94
792.95	4128.29
793.388	4893.69
793.827	3157.89
794.265	1456.24
794.704	695.19
795.142	431.19
795.581	353.09
796.019	323.94
796.458	317.34
796.896	324.04
797.334	381.29
797.773	510.44
798.211	983.24
798.649	2044.74
799.087	3436.24
799.526	4812.09
799.964	4931.19
800.402	3368.54
800.84	1529.84
801.278	755.79
801.716	453.69
802.154	376.14
802.592	352.09
803.03	349.94
803.468	361.24
803.906	357.29
804.344	347.69
804.782	343.64
805.22	345.84
805.658	355.54
806.096	383.04
806.533	425.54
806.971	547.79
807.409	798.54
807.847	1607.49
808.284	4092.74
808.722	7097.49
809.16	9942.99
809.597	13435.44
810.035	15526.39
810.472	10658.64
810.91	4566.04
811.347	2025.94
811.785	958.04
812.222	599.89
812.66	465.24
813.097	393.44
813.535	345.39
813.972	309.34
814.409	285.69
814.846	276.99
815.284	260.84
815.721	259.99
816.158	286.24
816.595	366.09
817.032	437.74
817.47	406.39
817.907	320.44
818.344	283.49
818.781	269.94
819.218	325.14
819.655	456.59
820.092	588.24
820.529	530.74
820.966	444.99
821.403	325.24
821.839	289.29
822.276	301.24
822.713	346.64
823.15	338.24
823.587	363.44
824.023	673.89
824.46	1674.24
824.897	2886.34
825.333	2211.44
825.77	1025.64
826.206	535.59
826.643	313.29
827.08	235.29
827.516	202.69
827.953	198.44
828.389	188.19
828.825	173.14
829.262	167.59
829.698	164.69
830.135	156.84
830.571	155.29
831.007	158.64
831.443	160.64
831.88	163.34
832.316	167.24
832.752	162.69
833.188	168.24
833.624	169.09
834.06	173.14
834.497	170.29
834.933	175.59
835.369	185.04
835.805	199.39
836.241	200.24
836.677	226.84
837.112	261.09
837.548	328.44
837.984	489.39
838.42	1055.99
838.856	2943.79
839.292	5777.89
839.727	4203.89
840.163	2885.19
840.599	4379.84
841.034	6638.89
841.47	3283.69
841.906	1608.24
842.341	905.24
842.777	763.79
843.212	869.34
843.648	519.69
844.083	338.54
844.519	238.74
844.954	191.54
845.39	164.84
845.825	155.84
846.261	151.24
846.696	143.44
847.131	139.54
847.566	139.29
848.002	144.29
848.437	157.09
848.872	160.04
849.307	200.24
849.742	373.29
850.177	950.89
850.613	2024.89
851.048	1435.54
851.483	665.49
851.918	375.99
852.353	214.29
852.788	175.74
853.223	142.64
853.657	130.14
854.092	120.74
854.527	117.99
854.962	120.04
855.397	132.54
855.832	114.89
856.266	105.09
856.701	100.69
857.136	106.29
857.57	126.04
858.005	144.14
858.44	126.64
858.874	120.49
859.309	130.29
859.743	128.54
860.178	125.09
860.612	134.89
861.047	166.24
861.481	214.74
861.915	152.49
862.35	121.34
862.784	102.24
863.218	100.34
863.653	105.64
864.087	127.69
864.521	169.54
864.955	281.19
865.39	476.39
865.824	340.84
866.258	395.09
866.692	557.59
867.126	410.99
867.56	229.04
867.994	149.89
868.428	133.19
868.862	157.44
869.296	145.69
869.73	180.49
870.164	153.79
870.598	134.54
871.031	105.54
871.465	94.34
871.899	78.19
872.333	70.04
872.766	77.24
873.2	76.24
873.634	73.09
874.067	79.49
874.501	78.99
874.935	84.09
875.368	78.49
875.802	74.54
876.235	69.74
876.669	67.44
877.102	60.19
877.535	57.74
877.969	62.04
878.402	65.84
878.836	64.39
879.269	59.49
879.702	59.74
880.135	63.64
880.569	69.39
881.002	65.09
881.435	63.89
881.868	59.54
882.301	55.09
882.734	51.39
883.167	51.19
883.601	57.69
884.034	51.09
884.467	48.74
884.899	53.74
885.332	47.64
885.765	48.59
886.198	47.09
886.631	50.89
887.064	48.99
887.497	43.39
887.929	46.34
888.362	47.69
888.795	49.14
889.228	49.29
889.66	45.44
890.093	47.49
890.526	45.99
890.958	44.79
891.391	48.84
891.823	45.49
892.256	46.64
892.688	45.24
893.121	43.74
893.553	49.44
893.985	41.34
894.418	42.14
894.85	47.39
895.282	43.34
895.715	43.94
896.147	37.44
896.579	39.69
897.011	47.14
897.444	46.04
897.876	39.69
898.308	40.54
898.74	42.19
899.172	41.14
899.604	49.44
900.036	45.34
900.468	39.64
900.9	45.64
901.332	53.69
901.764	56.54
902.196	55.49
902.628	55.69
903.06	76.99
903.491	78.84
903.923	68.04
904.355	71.64
904.787	75.69
905.218	60.94
905.65	62.99
906.082	55.34
906.513	53.79
906.945	51.84
907.376	52.94
907.808	58.74
908.239	63.69
908.671	69.09
909.102	71.74
909.534	104.44
909.965	188.59
910.397	474.54
910.828	1342.49
911.259	819.79
911.691	441.64
912.122	258.84
912.553	134.64
912.984	71.79
913.415	61.29
913.847	56.74
914.278	54.74
914.709	47.24
915.14	46.49
915.571	48.64
916.002	45.39
916.433	43.44
916.864	41.44
917.295	46.49
917.726	52.19
918.157	68.29
918.587	64.14
919.018	57.29
919.449	52.54
919.88	69.49
920.311	102.49
920.741	282.14
921.172	493.19
921.603	249.39
922.033	161.09
922.464	106.54
922.895	70.54
923.325	54.54
923.756	47.74
924.186	63.44
924.617	106.69
925.047	164.54
925.478	149.29
925.908	108.29
926.338	74.54
926.769	51.59
927.199	50.39
927.629	44.09
928.06	46.79
928.49	39.74
928.92	39.09
929.35	38.44
929.78	29.74
930.21	30.09
930.641	24.74
931.071	27.44
931.501	23.09
931.931	21.09
932.361	22.69
932.791	26.09
933.221	30.44
933.651	42.79
934.08	68.79
934.51	40.74
934.94	41.04
935.37	26.99
935.8	25.24
936.229	21.69
936.659	22.24
937.089	33.44
937.519	50.49
937.948	63.24
938.378	39.69
938.807	27.14
939.237	21.59
939.666	22.64
940.096	13.29
940.525	14.29
940.955	18.04
941.384	12.64
941.814	9.54
942.243	15.04
942.672	13.59
943.102	11.99
943.531	7.94
943.96	11.99
944.39	12.94
944.819	15.54
945.248	10.24
945.677	10.39
946.106	11.89
946.535	15.64
946.964	13.09
947.393	7.44
947.822	10.09
948.251	12.64
948.68	17.64
949.109	15.64
949.538	11.44
949.967	12.49
950.396	8.29
950.825	13.44
951.254	11.34
951.682	11.09
952.111	9.24
952.54	10.04
952.969	10.59
953.397	4.69
953.826	9.04
954.254	15.74
954.683	11.69
955.112	13.04
955.54	8.54
955.969	8.24
956.397	12.64
956.826	7.14
957.254	6.19
957.682	10.99
958.111	13.04
958.539	15.64
958.967	6.54
959.396	12.24
959.824	8.49
960.252	8.59
960.68	12.19
961.109	9.64
961.537	11.79
961.965	5.19
962.393	10.79
962.821	10.99
963.249	12.54
963.677	17.49
964.105	89.94
964.533	143.64
964.961	70.19
965.389	41.19
965.817	25.19
966.245	15.19
966.672	10.64
967.1	6.94
967.528	3.79
967.956	6.94
968.383	11.04
968.811	5.14
969.239	9.64
969.666	8.24
970.094	7.24
970.522	0.29
970.949	9.94
971.377	-1.56
971.804	3.79
972.232	5.14
972.659	9.39
973.087	14.04
973.514	4.39
973.941	6.19
974.369	3.44
974.796	8.19
975.223	8.04
975.651	4.09
976.078	7.24
976.505	16.44
976.932	32.34
977.359	41.74
977.786	25.39
978.214	21.64
978.641	9.04
979.068	8.74
979.495	3.69
979.922	11.74
980.349	12.59
980.776	8.54
981.202	6.14
981.629	8.09
982.056	4.69
982.483	-1.36
982.91	7.89
983.337	1.44
983.763	5.84
984.19	9.79
984.617	4.24
985.043	7.19
985.47	9.44
985.897	5.44
986.323	9.29
986.75	2.04
987.176	3.09
987.603	6.14
988.029	5.29
988.456	9.49
988.882	3.44
989.308	0.29
989.735	0.79
990.161	2.24
990.587	4.59
991.014	2.44
991.44	5.34
991.866	3.99
992.292	2.44
992.719	-0.31
993.145	5.69
993.571	4.49
993.997	10.39
994.423	8.49
994.849	1.89
995.275	9.74
995.701	10.29
996.127	0.54
996.553	4.24
996.979	-1.41
997.405	13.54
997.83	2.84
998.256	9.59
998.682	-0.16
999.108	3.64
999.534	-3.01
999.959	3.09
1000.385	10.14
1000.811	0.74
1001.236	-2.06
1001.662	0.14
1002.087	6.54
1002.513	3.39
1002.938	-1.96
1003.364	5.39
1003.789	5.54
1004.215	1.24
1004.64	2.04
1005.066	7.09
1005.491	3.94
1005.916	5.89
1006.342	5.34
1006.767	4.89
1007.192	4.94
1007.617	4.19
1008.042	-0.06
1008.468	2.64
1008.893	7.49
1009.318	8.54
1009.743	13.54
1010.168	22.44
1010.593	19.14
1011.018	10.69
1011.443	7.29
1011.868	7.14
1012.293	6.14
1012.718	3.19
1013.143	3.94
1013.567	6.74
1013.992	4.34
1014.417	3.84
1014.842	5.14
1015.267	-0.11
1015.691	4.59
1016.116	0.89
1016.541	6.44
1016.965	3.79
1017.39	2.99
1017.814	-0.11
1018.239	-1.91
1018.663	-6.76
1019.088	-2.31
1019.512	2.94
1019.937	-3.66
1020.361	-1.61
1020.785	-2.91
1021.21	-0.51
1021.634	-0.36
1022.058	1.74
1022.483	-0.86
1022.907	-2.16
1023.331	-1.46
1023.755	0.84
1024.179	5.19
1024.604	1.39
1025.028	4.84
1025.452	2.49
1025.876	5.64
1026.3	-1.01
1026.724	-3.66
1027.148	-0.01
1027.572	1.64
1027.996	3.24
1028.42	0.09
1028.843	-0.06
1029.267	-2.16
1029.691	5.19
1030.115	0.29
1030.539	1.19
1030.962	-0.56
1031.386	-0.46
1031.81	1.34
1032.233	-6.11
1032.657	-5.66
1033.08	-0.16
1033.504	2.24
1033.927	-1.06
1034.351	-3.71
1034.774	-3.01
1035.198	-4.16
1035.621	2.59
1036.045	-2.16
1036.468	4.34
1036.891	1.39
1037.315	2.94
1037.738	-2.66
1038.161	-2.31
1038.584	-0.61
1039.008	-0.41
1039.431	-1.01
1039.854	-2.41
1040.277	1.44
1040.7	-1.76
1041.123	-2.46
1041.546	-2.21
1041.969	1.74
1042.392	3.84
1042.815	-7.76
1043.238	-2.06
1043.661	-1.76
1044.084	-2.66
1044.507	-2.76
1044.93	-0.36
1045.352	-3.36
1045.775	0.54
1046.198	5.69
1046.621	2.14
1047.043	-0.01
1047.466	0.84
1047.889	0.79
1048.311	1.49
1048.734	2.04
1049.156	0.74
1049.579	1.04
1050.001	-0.31
1050.424	-0.31
1050.846	-2.81
1051.269	-5.01
1051.691	-0.61
1052.113	-0.76
1052.536	-3.96
1052.958	-3.46
1053.38	0.99
1053.802	1.49
1054.225	3.89
1054.647	0.89
1055.069	0.04
1055.491	2.99
1055.913	0.24
1056.335	-4.61
1056.757	-3.51
1057.179	-2.01
1057.601	-2.61
1058.023	0.14
1058.445	-5.01
1058.867	1.74
1059.289	-0.36
1059.711	-2.41
1060.133	1.14
1060.555	-0.86
1060.976	2.24
1061.398	-3.96
1061.82	-4.46
1062.241	-2.81
1062.663	0.19
1063.085	-4.41
1063.506	-2.71
1063.928	-4.26
1064.35	3.49
1064.771	0.64
1065.193	-2.11
1065.614	-4.31
1066.035	5.94
1066.457	7.84
1066.878	-0.11
1067.3	-1.11
1067.721	2.09
1068.142	-0.51
1068.564	5.29
1068.985	2.49
1069.406	-3.41
1069.827	0.89
1070.248	-3.61
1070.67	-3.71
1071.091	-4.21
1071.512	-2.11
1071.933	-0.06
1072.354	-4.96
1072.775	0.19
1073.196	0.34
1073.617	-5.36
1074.038	-4.46
1074.459	-1.36
1074.88	-0.61
1075.3	-0.96
1075.721	-0.11
1076.142	-0.16
1076.563	-5.06
1076.983	0.84
1077.404	-4.36
1077.825	-2.31
1078.246	-6.66
1078.666	-0.86
1079.087	-5.51
1079.507	-1.31
1079.928	-4.36
1080.348	-0.81
1080.769	1.89
1081.189	3.14
1081.61	-5.41
1082.03	-0.76
1082.451	-0.16
1082.871	-5.91
1083.291	-5.56
1083.711	-0.71
1084.132	0.04
1084.552	-2.46
1084.972	-6.56
1085.392	-4.81
1085.813	-0.61
1086.233	-2.46
1086.653	-1.81
1087.073	-3.11
1087.493	-2.51
1087.913	-5.11
1088.333	1.39
1088.753	0.44
1089.173	2.24
1089.593	-0.51
1090.013	-1.91
1090.433	-1.71
1090.852	3.49
1091.272	-6.16
1091.692	1.24
1092.112	-3.71
1092.531	-2.46
1092.951	-0.96
1093.371	-4.41
1093.79	-2.56
1094.21	-1.91
1094.63	1.19
1095.049	-3.01
1095.469	-8.16
1095.888	-3.66
1096.308	-5.26
1096.727	-5.76
1097.146	-4.26
1097.566	-1.16
1097.985	-3.46
1098.405	2.69
1098.824	-2.81
1099.243	-2.81
1099.662	-3.46
1100.082	-5.96
1100.501	-2.91
1100.92	-2.21
1101.339	0.29
1101.758	3.54
