Data from MSPlasma+Separation6_Subt14_10-15-45-336.txt Node
Date: Fri Jul 21 10:15:45 EDT 2017
User: Ender
Spectrometer: HR+D1039
Trigger mode: 0
Integration Time (sec): 2.510000E-3
Scans to average: 20
Electric dark correction enabled: true
Nonlinearity correction enabled: false
Boxcar width: 0
XAxis mode: Wavelengths
Number of Pixels in Spectrum: 2048
>>>>>Begin Spectral Data<<<<<
187.836	-0.81
188.309	-0.81
188.782	-0.81
189.255	-0.16
189.728	0.24
190.201	0.14
190.674	-1.46
191.147	3.44
191.619	0.94
192.092	2.19
192.565	-0.86
193.038	3.24
193.511	2.69
193.984	-2.06
194.456	-4.56
194.929	-1.96
195.402	-1.56
195.874	0.59
196.347	0.14
196.82	-0.91
197.292	-3.61
197.765	-1.61
198.237	-3.66
198.71	-5.01
199.182	3.54
199.655	2.34
200.127	2.54
200.6	1.34
201.072	1.74
201.544	-1.31
202.017	4.09
202.489	0.14
202.961	-2.76
203.433	-5.66
203.906	0.04
204.378	3.44
204.85	1.04
205.322	-0.21
205.794	0.79
206.266	-2.76
206.739	6.44
207.211	-2.41
207.683	-5.56
208.155	-1.81
208.627	-0.56
209.099	4.39
209.57	1.19
210.042	2.09
210.514	3.14
210.986	-0.21
211.458	8.29
211.93	3.29
212.402	2.84
212.873	-3.26
213.345	-6.21
213.817	4.09
214.288	-1.61
214.76	1.14
215.232	-1.41
215.703	-2.61
216.175	0.39
216.646	1.54
217.118	-2.71
217.589	-3.21
218.061	-2.96
218.532	-5.96
219.004	3.14
219.475	0.09
219.946	8.79
220.418	12.04
220.889	2.19
221.36	4.94
221.832	2.44
222.303	0.54
222.774	2.84
223.245	-2.11
223.717	-2.71
224.188	1.89
224.659	2.49
225.13	-2.11
225.601	-3.91
226.072	1.09
226.543	3.64
227.014	-2.21
227.485	1.04
227.956	4.54
228.427	10.44
228.898	0.04
229.369	5.49
229.839	4.04
230.31	3.34
230.781	3.39
231.252	4.44
231.722	9.74
232.193	11.64
232.664	12.24
233.135	16.14
233.605	19.29
234.076	18.04
234.546	12.39
235.017	17.54
235.487	13.84
235.958	12.54
236.428	23.74
236.899	38.39
237.369	41.29
237.84	32.94
238.31	36.24
238.78	36.69
239.251	40.64
239.721	32.29
240.191	28.64
240.662	11.59
241.132	5.99
241.602	17.79
242.072	24.39
242.542	28.09
243.013	18.49
243.483	19.59
243.953	9.84
244.423	13.14
244.893	14.24
245.363	22.64
245.833	16.79
246.303	19.29
246.773	27.79
247.243	28.89
247.712	34.74
248.182	38.44
248.652	39.59
249.122	60.59
249.592	114.64
250.061	178.44
250.531	279.79
251.001	217.89
251.471	183.29
251.94	135.59
252.41	70.69
252.879	45.69
253.349	40.39
253.818	27.59
254.288	30.99
254.757	20.44
255.227	37.04
255.696	27.69
256.166	28.24
256.635	30.19
257.105	34.99
257.574	47.44
258.043	49.34
258.513	87.99
258.982	112.84
259.451	81.44
259.92	75.24
260.389	74.24
260.859	49.29
261.328	66.39
261.797	90.89
262.266	81.14
262.735	38.09
263.204	26.14
263.673	22.44
264.142	13.89
264.611	19.44
265.08	23.84
265.549	22.54
266.018	19.14
266.487	20.79
266.955	17.04
267.424	22.84
267.893	23.19
268.362	23.19
268.83	21.64
269.299	20.94
269.768	27.59
270.236	29.29
270.705	35.39
271.174	34.04
271.642	37.59
272.111	45.94
272.579	72.19
273.048	116.84
273.516	146.99
273.985	150.19
274.453	113.84
274.922	66.39
275.39	42.64
275.858	39.09
276.327	32.74
276.795	36.29
277.263	39.14
277.731	48.84
278.2	101.99
278.668	134.19
279.136	101.44
279.604	67.74
280.072	37.54
280.54	31.09
281.008	38.49
281.477	31.79
281.945	35.14
282.413	34.54
282.881	37.29
283.348	36.19
283.816	39.19
284.284	41.14
284.752	42.89
285.22	40.84
285.688	45.99
286.156	77.74
286.623	217.54
287.091	431.44
287.559	226.09
288.026	88.49
288.494	52.89
288.962	44.94
289.429	39.19
289.897	38.49
290.364	31.49
290.832	35.69
291.3	37.79
291.767	37.79
292.234	44.04
292.702	42.99
293.169	48.99
293.637	50.14
294.104	47.69
294.571	44.09
295.039	41.79
295.506	38.94
295.973	49.84
296.44	46.59
296.908	53.14
297.375	58.24
297.842	59.39
298.309	48.29
298.776	45.29
299.243	54.44
299.71	46.14
300.177	45.44
300.644	54.14
301.111	59.09
301.578	55.34
302.045	45.99
302.512	45.34
302.979	53.44
303.446	57.69
303.913	54.64
304.379	63.29
304.846	66.14
305.313	72.19
305.78	81.59
306.246	110.44
306.713	114.64
307.18	98.89
307.646	111.34
308.113	95.59
308.579	75.44
309.046	76.04
309.512	73.84
309.979	68.64
310.445	63.74
310.912	66.29
311.378	67.94
311.845	66.44
312.311	60.19
312.777	58.94
313.244	69.44
313.71	68.99
314.176	79.44
314.642	90.29
315.109	107.49
315.575	94.14
316.041	83.94
316.507	81.74
316.973	93.54
317.439	92.69
317.905	100.14
318.371	96.24
318.837	91.64
319.303	97.54
319.769	86.29
320.235	105.74
320.701	120.89
321.167	123.34
321.633	152.94
322.099	208.14
322.564	283.94
323.03	218.44
323.496	153.04
323.962	141.64
324.427	135.84
324.893	115.14
325.359	114.54
325.824	101.59
326.29	103.49
326.755	103.14
327.221	100.64
327.686	110.54
328.152	97.94
328.617	95.54
329.083	97.74
329.548	98.49
330.014	104.29
330.479	115.84
330.944	137.94
331.41	156.69
331.875	141.44
332.34	155.74
332.805	177.64
333.271	228.49
333.736	301.44
334.201	268.89
334.666	204.74
335.131	226.09
335.596	181.59
336.061	193.79
336.526	193.19
336.991	168.19
337.456	184.09
337.921	140.84
338.386	114.44
338.851	104.14
339.316	98.94
339.781	97.69
340.246	97.24
340.711	95.09
341.175	100.09
341.64	99.49
342.105	100.39
342.569	117.04
343.034	112.54
343.499	118.74
343.963	121.59
344.428	117.34
344.893	123.49
345.357	124.24
345.822	122.99
346.286	116.59
346.751	123.04
347.215	119.84
347.679	128.84
348.144	135.84
348.608	134.04
349.073	141.19
349.537	160.04
350.001	154.99
350.465	144.64
350.93	134.24
351.394	140.29
351.858	138.29
352.322	144.64
352.786	144.79
353.25	142.49
353.715	137.74
354.179	151.79
354.643	155.89
355.107	156.34
355.571	165.89
356.035	167.79
356.498	168.99
356.962	182.69
357.426	173.79
357.89	157.79
358.354	144.44
358.818	153.34
359.281	154.39
359.745	164.29
360.209	153.59
360.673	162.69
361.136	162.84
361.6	162.19
362.064	170.44
362.527	177.59
362.991	175.94
363.454	175.99
363.918	177.79
364.381	177.34
364.845	170.99
365.308	162.84
365.772	167.99
366.235	171.94
366.698	179.89
367.162	217.59
367.625	240.89
368.088	194.94
368.552	179.69
369.015	183.44
369.478	198.14
369.941	199.74
370.404	202.89
370.867	212.14
371.331	219.69
371.794	220.94
372.257	243.79
372.72	256.49
373.183	246.09
373.646	245.19
374.109	247.59
374.572	287.94
375.035	341.84
375.497	256.44
375.96	206.74
376.423	193.99
376.886	197.79
377.349	197.94
377.811	199.79
378.274	205.69
378.737	206.39
379.199	213.49
379.662	220.74
380.125	234.59
380.587	259.24
381.05	275.94
381.512	268.19
381.975	265.19
382.437	266.39
382.9	262.89
383.362	265.44
383.825	282.14
384.287	356.29
384.75	395.84
385.212	350.24
385.674	293.09
386.136	269.19
386.599	260.54
387.061	270.84
387.523	281.74
387.985	286.09
388.447	292.99
388.91	328.99
389.372	401.74
389.834	381.99
390.296	316.59
390.758	317.24
391.22	324.89
391.682	401.54
392.144	609.94
392.606	570.94
393.068	345.39
393.529	306.49
393.991	299.44
394.453	296.14
394.915	311.89
395.377	374.14
395.838	462.44
396.3	330.84
396.762	256.69
397.224	247.69
397.685	240.19
398.147	241.29
398.608	241.89
399.07	249.84
399.531	245.79
399.993	246.04
400.454	256.79
400.916	248.44
401.377	257.79
401.839	258.44
402.3	258.99
402.762	276.24
403.223	300.19
403.684	303.44
404.145	278.94
404.607	277.29
405.068	276.84
405.529	283.34
405.99	282.49
406.451	289.69
406.913	285.19
407.374	285.94
407.835	290.24
408.296	300.74
408.757	302.99
409.218	309.74
409.679	312.64
410.14	314.44
410.601	332.49
411.062	339.24
411.522	401.59
411.983	442.24
412.444	367.04
412.905	324.29
413.366	327.44
413.826	333.14
414.287	369.24
414.748	439.39
415.208	451.04
415.669	378.79
416.13	345.79
416.59	344.54
417.051	346.29
417.511	364.34
417.972	393.59
418.432	421.94
418.893	460.19
419.353	446.44
419.814	343.89
420.274	314.29
420.734	311.44
421.195	330.74
421.655	342.34
422.115	334.99
422.576	324.39
423.036	329.64
423.496	334.24
423.956	359.14
424.416	385.34
424.876	417.19
425.336	424.24
425.797	417.49
426.257	425.29
426.717	399.04
427.177	379.24
427.637	387.69
428.097	406.74
428.556	427.19
429.016	465.94
429.476	465.79
429.936	451.24
430.396	438.64
430.856	444.09
431.315	454.24
431.775	490.79
432.235	514.74
432.694	529.69
433.154	499.29
433.614	472.39
434.073	468.09
434.533	420.54
434.993	406.64
435.452	406.04
435.912	393.54
436.371	396.89
436.83	401.59
437.29	396.34
437.749	376.94
438.209	376.79
438.668	375.54
439.127	374.24
439.587	376.14
440.046	354.64
440.505	359.64
440.964	361.24
441.424	364.84
441.883	376.39
442.342	356.99
442.801	341.34
443.26	356.09
443.719	348.94
444.178	349.84
444.637	355.04
445.096	350.34
445.555	357.59
446.014	356.79
446.473	347.14
446.932	347.89
447.391	356.09
447.849	361.54
448.308	362.14
448.767	360.54
449.226	373.34
449.685	377.64
450.143	387.19
450.602	390.89
451.061	377.19
451.519	381.44
451.978	394.64
452.436	403.19
452.895	387.79
453.353	376.19
453.812	372.29
454.27	370.49
454.729	360.69
455.187	363.14
455.646	367.09
456.104	368.59
456.562	369.34
457.021	362.64
457.479	348.19
457.937	357.29
458.395	369.54
458.854	361.74
459.312	357.39
459.77	360.59
460.228	369.24
460.686	368.64
461.144	369.69
461.602	365.14
462.06	369.69
462.518	377.74
462.976	377.19
463.434	379.99
463.892	387.54
464.35	387.14
464.808	396.24
465.266	400.34
465.724	411.59
466.181	406.59
466.639	406.84
467.097	425.14
467.555	433.84
468.012	432.09
468.47	432.29
468.928	449.99
469.385	462.99
469.843	467.09
470.3	464.54
470.758	483.94
471.215	488.44
471.673	495.29
472.13	519.59
472.588	518.54
473.045	526.64
473.503	530.24
473.96	560.04
474.417	567.09
474.875	597.54
475.332	616.64
475.789	626.94
476.246	643.44
476.704	673.64
477.161	695.74
477.618	714.19
478.075	759.79
478.532	817.19
478.989	889.64
479.446	998.69
479.903	1057.49
480.36	1167.29
480.817	1240.29
481.274	1339.64
481.731	1478.09
482.188	1597.04
482.645	1720.99
483.102	1832.19
483.558	1959.04
484.015	2052.79
484.472	2065.69
484.929	1984.69
485.385	1908.34
485.842	1832.34
486.299	1745.64
486.755	1573.34
487.212	1399.74
487.668	1250.69
488.125	1145.89
488.582	1058.29
489.038	1009.24
489.494	970.39
489.951	938.04
490.407	899.89
490.864	897.64
491.32	871.39
491.776	850.34
492.233	845.69
492.689	843.14
493.145	822.54
493.602	823.24
494.058	830.19
494.514	850.74
494.97	851.09
495.426	866.29
495.882	862.64
496.338	861.29
496.794	897.19
497.251	904.69
497.707	900.89
498.163	897.34
498.618	900.14
499.074	909.14
499.53	923.59
499.986	944.94
500.442	948.34
500.898	954.09
501.354	969.49
501.809	969.74
502.265	986.39
502.721	1026.59
503.177	1046.54
503.632	1003.84
504.088	1010.14
504.543	1104.79
504.999	1027.19
505.455	915.94
505.91	866.49
506.366	856.19
506.821	854.09
507.277	851.99
507.732	849.34
508.187	857.94
508.643	860.24
509.098	857.69
509.553	864.99
510.009	874.34
510.464	903.84
510.919	904.64
511.375	912.69
511.83	925.69
512.285	944.99
512.74	961.39
513.195	971.34
513.65	993.54
514.105	1010.29
514.56	1000.49
515.015	1026.64
515.47	1034.69
515.925	1031.19
516.38	1021.74
516.835	1024.64
517.29	1032.69
517.745	1035.79
518.2	1016.04
518.655	986.94
519.109	968.24
519.564	960.94
520.019	957.49
520.474	938.54
520.928	937.24
521.383	944.29
521.838	931.19
522.292	921.19
522.747	912.49
523.201	906.79
523.656	891.64
524.11	897.14
524.565	893.79
525.019	892.49
525.474	905.79
525.928	898.34
526.382	895.44
526.837	880.99
527.291	879.84
527.745	883.69
528.2	874.99
528.654	867.54
529.108	875.04
529.562	866.94
530.016	875.19
530.47	891.79
530.925	882.69
531.379	882.94
531.833	886.89
532.287	883.79
532.741	883.39
533.195	878.59
533.649	882.74
534.103	877.04
534.556	874.04
535.01	887.44
535.464	875.14
535.918	880.24
536.372	888.34
536.826	883.39
537.279	871.29
537.733	876.04
538.187	875.39
538.64	880.39
539.094	894.19
539.548	896.89
540.001	895.14
540.455	897.44
540.908	902.59
541.362	916.54
541.815	920.34
542.269	952.49
542.722	936.79
543.175	947.39
543.629	956.19
544.082	961.29
544.536	968.49
544.989	964.59
545.442	976.54
545.895	977.29
546.349	980.94
546.802	977.74
547.255	980.94
547.708	992.44
548.161	995.19
548.614	982.94
549.067	1000.19
549.52	989.44
549.973	977.14
550.426	979.84
550.879	964.94
551.332	963.69
551.785	968.54
552.238	988.19
552.691	981.94
553.144	992.59
553.596	1012.14
554.049	1021.59
554.502	1038.04
554.955	1062.54
555.407	1075.29
555.86	1062.04
556.313	1051.64
556.765	1051.24
557.218	1025.24
557.67	1031.34
558.123	1009.59
558.576	1010.34
559.028	1004.24
559.48	1025.04
559.933	1015.29
560.385	984.04
560.838	959.34
561.29	918.59
561.742	924.79
562.195	907.49
562.647	903.24
563.099	894.44
563.551	893.34
564.004	896.99
564.456	886.69
564.908	880.39
565.36	859.14
565.812	848.24
566.264	832.99
566.716	829.79
567.168	819.29
567.62	816.74
568.072	803.54
568.524	801.04
568.976	795.34
569.428	794.14
569.88	789.89
570.332	788.24
570.784	794.99
571.235	781.09
571.687	791.44
572.139	793.99
572.59	799.89
573.042	796.89
573.494	797.69
573.945	796.19
574.397	779.44
574.849	780.64
575.3	780.09
575.752	763.79
576.203	762.54
576.655	769.84
577.106	748.74
577.557	744.39
578.009	754.14
578.46	747.19
578.912	739.04
579.363	746.94
579.814	751.14
580.265	751.24
580.717	748.04
581.168	739.84
581.619	748.74
582.07	754.74
582.521	754.19
582.972	747.24
583.423	756.09
583.875	771.39
584.326	816.24
584.777	891.94
585.227	971.44
585.678	1030.84
586.129	1048.89
586.58	1081.04
587.031	1078.39
587.482	1151.69
587.933	1331.84
588.384	1232.34
588.834	1017.49
589.285	871.64
589.736	853.89
590.186	849.39
590.637	846.79
591.088	817.19
591.538	815.74
591.989	806.44
592.439	798.14
592.89	801.69
593.34	802.69
593.791	806.59
594.241	806.24
594.692	817.64
595.142	804.39
595.593	797.64
596.043	803.49
596.493	810.09
596.943	826.49
597.394	821.59
597.844	801.04
598.294	820.29
598.744	846.24
599.195	881.19
599.645	939.04
600.095	979.49
600.545	1021.14
600.995	1065.69
601.445	1103.69
601.895	1152.84
602.345	1188.44
602.795	1163.44
603.245	1112.89
603.695	1046.49
604.145	990.89
604.594	953.19
605.044	906.89
605.494	852.24
605.944	809.59
606.393	795.29
606.843	780.64
607.293	782.04
607.743	777.24
608.192	786.24
608.642	790.34
609.091	794.64
609.541	788.49
609.99	789.29
610.44	775.19
610.889	764.99
611.339	756.24
611.788	746.59
612.238	753.74
612.687	768.24
613.136	778.69
613.586	792.19
614.035	787.84
614.484	800.39
614.933	806.04
615.383	788.74
615.832	769.09
616.281	746.14
616.73	725.49
617.179	704.94
617.628	691.44
618.077	678.69
618.526	666.64
618.975	663.14
619.424	651.89
619.873	663.74
620.322	648.29
620.771	649.59
621.22	645.09
621.669	633.74
622.118	624.14
622.567	617.54
623.015	609.14
623.464	609.54
623.913	596.34
624.361	598.19
624.81	597.54
625.259	599.39
625.707	584.34
626.156	593.79
626.604	602.49
627.053	594.39
627.501	592.44
627.95	599.54
628.398	613.39
628.847	604.24
629.295	602.94
629.744	611.14
630.192	627.49
630.64	679.34
631.089	749.59
631.537	786.64
631.985	780.74
632.433	820.59
632.881	814.34
633.33	978.44
633.778	1070.89
634.226	755.94
634.674	698.94
635.122	692.94
635.57	701.19
636.018	809.39
636.466	660.14
636.914	587.44
637.362	586.89
637.81	595.89
638.258	607.64
638.705	616.44
639.153	632.04
639.601	635.84
640.049	645.94
640.497	665.19
640.944	685.59
641.392	654.49
641.84	621.09
642.287	598.39
642.735	589.49
643.182	585.34
643.63	581.94
644.078	589.79
644.525	593.84
644.973	615.74
645.42	625.84
645.867	637.74
646.315	654.99
646.762	684.39
647.21	695.69
647.657	733.54
648.104	780.24
648.551	804.39
648.999	883.64
649.446	980.54
649.893	1113.74
650.34	1319.79
650.787	1639.99
651.234	2144.14
651.682	3018.94
652.129	4392.69
652.576	6369.54
653.023	8487.84
653.47	9911.09
653.917	10705.24
654.363	11097.29
654.81	11729.44
655.257	11783.09
655.704	8028.59
656.151	4689.49
656.598	3002.99
657.044	2131.79
657.491	1648.49
657.938	1334.89
658.385	1108.84
658.831	978.09
659.278	870.19
659.724	784.54
660.171	733.24
660.618	675.49
661.064	633.04
661.511	612.49
661.957	587.24
662.404	577.39
662.85	560.99
663.296	548.79
663.743	541.54
664.189	538.04
664.635	537.04
665.082	514.19
665.528	512.84
665.974	496.19
666.42	497.24
666.867	502.09
667.313	498.64
667.759	523.89
668.205	533.39
668.651	534.49
669.097	514.44
669.543	559.24
669.989	536.14
670.435	465.49
670.881	458.09
671.327	479.94
671.773	510.99
672.219	549.94
672.665	582.99
673.11	595.14
673.556	598.44
674.002	617.24
674.448	611.99
674.893	522.94
675.339	463.24
675.785	428.84
676.23	419.74
676.676	397.09
677.122	388.79
677.567	378.84
678.013	357.99
678.458	362.64
678.904	359.49
679.349	359.34
679.794	353.94
680.24	355.64
680.685	349.94
681.131	351.99
681.576	353.39
682.021	352.64
682.466	357.39
682.912	359.44
683.357	377.54
683.802	408.04
684.247	449.44
684.692	472.79
685.137	493.74
685.583	496.04
686.028	517.89
686.473	498.59
686.918	434.49
687.363	401.34
687.807	380.34
688.252	357.79
688.697	350.79
689.142	338.99
689.587	340.19
690.032	351.44
690.477	359.34
690.921	377.49
691.366	395.04
691.811	410.19
692.255	442.59
692.7	540.34
693.145	782.54
693.589	1172.54
694.034	1375.74
694.478	1442.84
694.923	1308.14
695.367	1802.34
695.812	1145.24
696.256	503.14
696.701	371.14
697.145	342.64
697.59	330.24
698.034	328.44
698.478	329.29
698.922	331.44
699.367	335.69
699.811	358.34
700.255	384.09
700.699	416.64
701.143	454.59
701.588	470.89
702.032	487.24
702.476	506.94
702.92	537.34
703.364	712.74
703.808	1065.94
704.252	1320.44
704.696	1377.99
705.14	1281.84
705.584	1716.54
706.027	1002.29
706.471	514.69
706.915	386.94
707.359	343.79
707.803	320.99
708.246	308.69
708.69	312.29
709.134	308.64
709.577	310.94
710.021	310.19
710.465	312.49
710.908	305.29
711.352	323.19
711.795	351.94
712.239	376.69
712.682	387.84
713.126	384.74
713.569	429.74
714.012	356.49
714.456	318.69
714.899	296.04
715.342	278.19
715.786	265.04
716.229	259.49
716.672	251.84
717.115	252.74
717.558	252.89
718.002	259.44
718.445	273.59
718.888	283.29
719.331	294.64
719.774	292.49
720.217	288.84
720.66	276.89
721.103	261.69
721.546	243.79
721.989	239.34
722.432	237.89
722.874	236.44
723.317	242.54
723.76	269.19
724.203	332.69
724.645	434.24
725.088	497.54
725.531	479.64
725.974	520.54
726.416	470.89
726.859	296.39
727.301	250.89
727.744	242.84
728.187	240.94
728.629	235.34
729.071	252.79
729.514	263.09
729.956	267.19
730.399	275.59
730.841	274.54
731.283	273.19
731.726	264.29
732.168	269.44
732.61	281.94
733.053	299.24
733.495	335.94
733.937	364.69
734.379	431.89
734.821	561.89
735.263	899.19
735.705	1554.69
736.148	2220.34
736.59	2182.14
737.032	2318.99
737.474	1946.04
737.916	798.24
738.357	419.94
738.799	316.44
739.241	295.69
739.683	299.04
740.125	301.49
740.567	299.64
741.008	324.44
741.45	328.99
741.892	350.14
742.334	347.09
742.775	337.79
743.217	321.59
743.658	278.04
744.1	281.59
744.542	315.99
744.983	329.04
745.425	343.34
745.866	339.44
746.307	302.29
746.749	334.39
747.19	482.94
747.632	943.49
748.073	1696.44
748.514	2277.29
748.956	3010.44
749.397	3479.39
749.838	2425.99
750.279	2255.04
750.72	1219.84
751.162	528.59
751.603	307.09
752.044	247.09
752.485	218.24
752.926	208.09
753.367	194.64
753.808	190.14
754.249	193.69
754.69	188.59
755.131	184.04
755.572	183.04
756.013	184.19
756.453	183.59
756.894	189.74
757.335	181.19
757.776	188.59
758.216	199.04
758.657	211.34
759.098	232.99
759.538	282.84
759.979	407.34
760.42	828.24
760.86	2053.39
761.301	4149.59
761.741	4763.39
762.182	5400.29
762.622	3499.49
763.063	1353.39
763.503	601.94
763.943	456.64
764.384	494.69
764.824	456.89
765.264	455.64
765.705	322.64
766.145	233.74
766.585	214.89
767.025	224.59
767.465	289.14
767.906	352.24
768.346	364.04
768.786	380.94
769.226	397.39
769.666	682.74
770.106	1430.99
770.546	1936.34
770.986	2139.19
771.426	1660.24
771.866	717.34
772.306	336.59
772.745	213.74
773.185	181.19
773.625	189.04
774.065	218.29
774.505	363.99
774.944	724.04
775.384	1056.94
775.824	1178.39
776.263	965.54
776.703	487.04
777.142	253.74
777.582	168.79
778.021	159.34
778.461	142.34
778.9	145.79
779.34	127.14
779.779	120.14
780.219	118.49
780.658	117.24
781.097	118.24
781.537	114.34
781.976	111.74
782.415	112.64
782.855	113.84
783.294	107.84
783.733	111.79
784.172	111.14
784.611	107.09
785.05	112.64
785.489	114.04
785.928	118.84
786.367	121.69
786.806	126.99
787.245	132.89
787.684	136.34
788.123	138.19
788.562	139.54
789.001	131.74
789.44	127.84
789.879	124.74
790.317	127.64
790.756	135.99
791.195	156.19
791.634	212.89
792.072	382.54
792.511	928.89
792.95	1612.59
793.388	1898.69
793.827	1263.34
794.265	605.69
794.704	290.69
795.142	183.69
795.581	149.49
796.019	133.74
796.458	138.29
796.896	132.29
797.334	157.24
797.773	210.99
798.211	414.54
798.649	834.64
799.087	1366.24
799.526	1881.44
799.964	1917.99
800.402	1331.79
800.84	626.39
801.278	310.79
801.716	191.44
802.154	151.19
802.592	144.19
803.03	146.14
803.468	149.89
803.906	148.74
804.344	146.39
804.782	134.59
805.22	142.19
805.658	148.54
806.096	158.99
806.533	173.24
806.971	226.64
807.409	328.54
807.847	671.04
808.284	1622.74
808.722	2754.79
809.16	3879.29
809.597	5321.69
810.035	6432.44
810.472	4114.19
810.91	1843.64
811.347	847.09
811.785	394.14
812.222	246.69
812.66	190.69
813.097	163.79
813.535	145.14
813.972	128.34
814.409	119.99
814.846	112.94
815.284	109.69
815.721	111.14
816.158	119.39
816.595	151.19
817.032	177.44
817.47	163.54
817.907	137.89
818.344	118.39
818.781	113.49
819.218	129.89
819.655	181.44
820.092	233.34
820.529	219.89
820.966	178.79
821.403	132.59
821.839	119.69
822.276	122.89
822.713	139.79
823.15	138.49
823.587	153.39
824.023	277.99
824.46	680.74
824.897	1133.54
825.333	890.59
825.77	419.44
826.206	224.24
826.643	131.24
827.08	99.04
827.516	85.14
827.953	85.99
828.389	78.19
828.825	72.89
829.262	64.84
829.698	64.09
830.135	63.09
830.571	63.29
831.007	66.19
831.443	67.19
831.88	70.09
832.316	72.19
832.752	70.74
833.188	69.24
833.624	70.29
834.06	70.59
834.497	67.24
834.933	72.44
835.369	82.49
835.805	86.59
836.241	87.99
836.677	97.34
837.112	110.64
837.548	130.94
837.984	203.54
838.42	436.74
838.856	1178.79
839.292	2195.69
839.727	1644.09
840.163	1168.14
840.599	1724.14
841.034	2543.29
841.47	1318.04
841.906	659.54
842.341	374.79
842.777	329.79
843.212	380.89
843.648	222.04
844.083	145.59
844.519	94.59
844.954	74.94
845.39	67.04
845.825	61.94
846.261	60.69
846.696	57.44
847.131	54.39
847.566	53.34
848.002	61.69
848.437	61.99
848.872	66.99
849.307	84.29
849.742	150.39
850.177	392.59
850.613	808.04
851.048	573.89
851.483	273.84
851.918	153.69
852.353	86.29
852.788	68.04
853.223	64.19
853.657	51.24
854.092	51.09
854.527	49.24
854.962	52.54
855.397	53.49
855.832	45.69
856.266	41.69
856.701	38.59
857.136	43.04
857.57	54.39
858.005	51.49
858.44	49.49
858.874	48.29
859.309	52.09
859.743	48.79
860.178	46.34
860.612	53.44
861.047	68.69
861.481	85.64
861.915	56.69
862.35	48.24
862.784	38.39
863.218	38.34
863.653	40.04
864.087	48.29
864.521	67.29
864.955	117.44
865.39	188.79
865.824	134.09
866.258	160.74
866.692	221.84
867.126	163.69
867.56	90.14
867.994	57.54
868.428	52.44
868.862	57.89
869.296	60.09
869.73	67.09
870.164	60.89
870.598	50.74
871.031	44.94
871.465	39.04
871.899	31.94
872.333	27.74
872.766	34.49
873.2	28.94
873.634	26.74
874.067	35.59
874.501	30.79
874.935	31.54
875.368	30.84
875.802	26.64
876.235	26.64
876.669	25.84
877.102	20.14
877.535	22.44
877.969	20.39
878.402	22.49
878.836	26.19
879.269	23.49
879.702	24.74
880.135	23.74
880.569	25.49
881.002	25.14
881.435	24.09
881.868	25.59
882.301	22.54
882.734	23.79
883.167	22.64
883.601	22.09
884.034	20.69
884.467	16.69
884.899	20.69
885.332	14.74
885.765	21.09
886.198	18.49
886.631	20.34
887.064	18.54
887.497	17.24
887.929	19.24
888.362	21.54
888.795	19.54
889.228	22.94
889.66	22.99
890.093	20.49
890.526	22.84
890.958	16.64
891.391	22.19
891.823	19.84
892.256	18.89
892.688	20.79
893.121	17.44
893.553	20.19
893.985	16.29
894.418	20.24
894.85	19.24
895.282	18.54
895.715	12.34
896.147	10.49
896.579	14.09
897.011	16.44
897.444	15.49
897.876	13.39
898.308	15.34
898.74	16.49
899.172	18.44
899.604	18.24
900.036	15.44
900.468	15.54
900.9	16.04
901.332	22.14
901.764	20.34
902.196	22.29
902.628	20.09
903.06	28.04
903.491	30.79
903.923	23.19
904.355	27.34
904.787	30.14
905.218	20.19
905.65	25.14
906.082	20.99
906.513	17.74
906.945	18.79
907.376	19.64
907.808	22.94
908.239	22.04
908.671	25.14
909.102	26.44
909.534	35.09
909.965	75.49
910.397	190.44
910.828	536.64
911.259	325.59
911.691	176.54
912.122	102.49
912.553	56.14
912.984	29.19
913.415	24.34
913.847	19.59
914.278	21.09
914.709	14.14
915.14	16.64
915.571	13.49
916.002	15.89
916.433	18.04
916.864	14.14
917.295	18.54
917.726	19.54
918.157	26.89
918.587	25.14
919.018	24.99
919.449	15.64
919.88	24.74
920.311	36.94
920.741	115.89
921.172	198.09
921.603	101.54
922.033	61.84
922.464	40.09
922.895	27.59
923.325	15.79
923.756	15.89
924.186	27.49
924.617	38.24
925.047	71.34
925.478	62.89
925.908	42.84
926.338	28.69
926.769	22.09
927.199	21.29
927.629	20.09
928.06	19.74
928.49	15.59
928.92	12.49
929.35	7.94
929.78	11.04
930.21	9.74
930.641	3.19
931.071	10.99
931.501	7.89
931.931	4.89
932.361	9.24
932.791	10.99
933.221	10.59
933.651	14.79
934.08	25.49
934.51	13.19
934.94	12.84
935.37	11.19
935.8	7.94
936.229	4.89
936.659	6.89
937.089	10.09
937.519	19.39
937.948	26.39
938.378	13.79
938.807	5.84
939.237	6.54
939.666	6.54
940.096	1.54
940.525	-0.61
940.955	0.69
941.384	1.24
941.814	1.44
942.243	4.49
942.672	4.49
943.102	-1.41
943.531	1.69
943.96	0.74
944.39	0.34
944.819	2.34
945.248	8.09
945.677	6.69
946.106	4.44
946.535	6.29
946.964	5.19
947.393	1.99
947.822	-2.66
948.251	6.69
948.68	2.74
949.109	1.09
949.538	3.29
949.967	4.09
950.396	-1.51
950.825	5.34
951.254	2.19
951.682	-4.36
952.111	-0.06
952.54	0.14
952.969	3.74
953.397	-5.91
953.826	-2.71
954.254	6.54
954.683	5.14
955.112	7.94
955.54	2.79
955.969	1.29
956.397	1.34
956.826	1.94
957.254	2.29
957.682	4.34
958.111	1.14
958.539	3.84
958.967	-2.06
959.396	6.39
959.824	2.04
960.252	3.94
960.68	-0.96
961.109	3.74
961.537	5.74
961.965	0.04
962.393	-0.36
962.821	0.19
963.249	4.94
963.677	1.64
964.105	36.44
964.533	55.54
964.961	25.54
965.389	9.14
965.817	4.89
966.245	2.39
966.672	2.29
967.1	4.99
967.528	0.49
967.956	-3.51
968.383	2.39
968.811	4.09
969.239	-0.51
969.666	1.19
970.094	1.94
970.522	-2.06
970.949	1.79
971.377	-0.31
971.804	2.49
972.232	-0.51
972.659	-2.21
973.087	0.64
973.514	-3.21
973.941	0.69
974.369	-1.56
974.796	-2.86
975.223	-0.81
975.651	1.39
976.078	-0.21
976.505	5.49
976.932	10.99
977.359	15.84
977.786	7.89
978.214	8.09
978.641	-3.26
979.068	1.79
979.495	-1.26
979.922	1.04
980.349	3.84
980.776	4.24
981.202	-0.81
981.629	2.19
982.056	-0.06
982.483	-3.71
982.91	5.39
983.337	-5.86
983.763	1.39
984.19	-0.36
984.617	-1.11
985.043	0.59
985.47	0.19
985.897	-1.01
986.323	3.39
986.75	-2.36
987.176	-1.06
987.603	2.79
988.029	3.99
988.456	4.59
988.882	0.79
989.308	-6.41
989.735	-3.01
990.161	0.59
990.587	2.79
991.014	2.99
991.44	2.79
991.866	-1.76
992.292	-5.01
992.719	-4.36
993.145	4.84
993.571	2.44
993.997	2.04
994.423	4.94
994.849	-4.21
995.275	3.14
995.701	1.24
996.127	-10.01
996.553	0.94
996.979	-1.91
997.405	2.69
997.83	-0.26
998.256	1.29
998.682	-1.86
999.108	2.54
999.534	-5.81
999.959	-3.56
1000.385	0.79
1000.811	-7.21
1001.236	-4.26
1001.662	-4.61
1002.087	6.24
1002.513	-0.76
1002.938	-3.51
1003.364	0.49
1003.789	1.19
1004.215	1.59
1004.64	-2.66
1005.066	1.39
1005.491	5.59
1005.916	-1.76
1006.342	2.14
1006.767	-0.56
1007.192	0.49
1007.617	-2.11
1008.042	-2.26
1008.468	-3.36
1008.893	-0.41
1009.318	-0.76
1009.743	-0.36
1010.168	9.44
1010.593	9.99
1011.018	0.04
1011.443	-0.81
1011.868	3.29
1012.293	2.69
1012.718	-3.11
1013.143	-3.26
1013.567	0.34
1013.992	1.54
1014.417	1.49
1014.842	-4.11
1015.267	-2.51
1015.691	-0.16
1016.116	-1.11
1016.541	1.84
1016.965	5.34
1017.39	2.19
1017.814	-4.36
1018.239	-4.66
1018.663	-4.91
1019.088	-0.76
1019.512	6.09
1019.937	-4.06
1020.361	-0.21
1020.785	-1.96
1021.21	-5.36
1021.634	-1.51
1022.058	-0.41
1022.483	-3.21
1022.907	-3.61
1023.331	0.64
1023.755	-3.66
1024.179	-3.31
1024.604	-4.16
1025.028	0.19
1025.452	2.49
1025.876	-0.26
1026.3	-0.36
1026.724	-2.11
1027.148	2.54
1027.572	-0.51
1027.996	3.44
1028.42	1.29
1028.843	-0.06
1029.267	-3.91
1029.691	0.14
1030.115	-3.76
1030.539	0.49
1030.962	-1.11
1031.386	2.69
1031.81	-1.81
1032.233	-5.41
1032.657	-11.96
1033.08	-1.11
1033.504	-6.86
1033.927	-3.41
1034.351	-2.91
1034.774	-1.96
1035.198	-3.71
1035.621	-1.26
1036.045	-2.96
1036.468	4.99
1036.891	0.74
1037.315	-0.61
1037.738	0.64
1038.161	1.49
1038.584	-0.96
1039.008	-1.06
1039.431	-2.86
1039.854	-5.01
1040.277	-1.81
1040.7	-1.16
1041.123	0.54
1041.546	-2.66
1041.969	-1.51
1042.392	-0.61
1042.815	-8.56
1043.238	-4.91
1043.661	0.59
1044.084	-0.66
1044.507	-5.31
1044.93	-5.06
1045.352	-3.56
1045.775	-1.81
1046.198	-1.51
1046.621	0.49
1047.043	-3.31
1047.466	1.39
1047.889	-3.41
1048.311	-1.41
1048.734	-1.46
1049.156	-5.86
1049.579	-2.16
1050.001	-2.06
1050.424	-2.56
1050.846	-5.36
1051.269	-1.96
1051.691	-2.56
1052.113	0.39
1052.536	-1.41
1052.958	-7.51
1053.38	-1.16
1053.802	-0.71
1054.225	0.09
1054.647	-0.11
1055.069	-4.61
1055.491	1.74
1055.913	-0.81
1056.335	-8.81
1056.757	-4.71
1057.179	-3.71
1057.601	-1.16
1058.023	-0.61
1058.445	-7.16
1058.867	-2.26
1059.289	-4.71
1059.711	-5.61
1060.133	-3.06
1060.555	-1.86
1060.976	3.34
1061.398	-2.11
1061.82	-0.91
1062.241	-3.51
1062.663	-3.66
1063.085	-3.26
1063.506	-8.31
1063.928	-5.81
1064.35	-1.71
1064.771	0.99
1065.193	-3.21
1065.614	-2.61
1066.035	0.14
1066.457	0.64
1066.878	-2.11
1067.3	-1.51
1067.721	3.04
1068.142	4.04
1068.564	4.19
1068.985	-1.11
1069.406	-8.26
1069.827	-1.31
1070.248	-3.46
1070.67	-1.51
1071.091	-3.01
1071.512	-4.61
1071.933	-2.21
1072.354	-7.26
1072.775	-4.16
1073.196	-3.11
1073.617	-4.16
1074.038	-4.61
1074.459	-5.46
1074.88	-8.51
1075.3	-1.56
1075.721	1.24
1076.142	-0.56
1076.563	-5.01
1076.983	0.59
1077.404	-7.11
1077.825	1.29
1078.246	-4.56
1078.666	-1.71
1079.087	-5.96
1079.507	-5.86
1079.928	-5.91
1080.348	-4.51
1080.769	-1.41
1081.189	-4.96
1081.61	-6.26
1082.03	-0.71
1082.451	-1.01
1082.871	-6.51
1083.291	-5.26
1083.711	-0.21
1084.132	-5.91
1084.552	-6.06
1084.972	-5.31
1085.392	-5.01
1085.813	0.39
1086.233	-3.36
1086.653	4.64
1087.073	-5.51
1087.493	-2.56
1087.913	-3.46
1088.333	-0.86
1088.753	-0.26
1089.173	0.09
1089.593	-0.11
1090.013	-2.46
1090.433	-7.41
1090.852	-2.21
1091.272	-5.51
1091.692	1.89
1092.112	-0.91
1092.531	-5.21
1092.951	-1.86
1093.371	-3.56
1093.79	-3.26
1094.21	-3.26
1094.63	-6.51
1095.049	0.89
1095.469	-8.36
1095.888	-2.66
1096.308	1.64
1096.727	-2.71
1097.146	-2.11
1097.566	-0.51
1097.985	-6.01
1098.405	0.74
1098.824	3.04
1099.243	-2.41
1099.662	-1.31
1100.082	0.89
1100.501	-2.61
1100.92	1.99
1101.339	-2.56
1101.758	2.54
