Data from MSPlasma+Separation6_Subt14_10-15-29-120.txt Node
Date: Fri Jul 21 10:15:29 EDT 2017
User: Ender
Spectrometer: HR+D1039
Trigger mode: 0
Integration Time (sec): 2.510000E-3
Scans to average: 20
Electric dark correction enabled: true
Nonlinearity correction enabled: false
Boxcar width: 0
XAxis mode: Wavelengths
Number of Pixels in Spectrum: 2048
>>>>>Begin Spectral Data<<<<<
187.836	-2.51
188.309	-2.51
188.782	-2.51
189.255	4.09
189.728	1.99
190.201	-3.76
190.674	0.84
191.147	0.54
191.619	-0.76
192.092	1.44
192.565	0.74
193.038	1.14
193.511	0.89
193.984	-1.46
194.456	-1.41
194.929	-0.31
195.402	-1.06
195.874	-0.36
196.347	4.54
196.82	-0.26
197.292	-4.46
197.765	0.89
198.237	-1.21
198.71	-6.21
199.182	1.59
199.655	2.24
200.127	0.84
200.6	-3.71
201.072	-0.56
201.544	-2.41
202.017	2.89
202.489	1.44
202.961	-5.61
203.433	-4.41
203.906	-3.66
204.378	-3.16
204.85	-1.01
205.322	-3.91
205.794	5.29
206.266	-1.81
206.739	-0.91
207.211	-1.51
207.683	-1.51
208.155	1.09
208.627	-0.26
209.099	3.94
209.57	1.54
210.042	4.69
210.514	0.74
210.986	2.69
211.458	5.49
211.93	1.29
212.402	-0.26
212.873	-0.01
213.345	-5.16
213.817	0.39
214.288	-1.21
214.76	-1.01
215.232	1.84
215.703	-0.56
216.175	-1.56
216.646	-1.36
217.118	-3.16
217.589	-6.31
218.061	3.09
218.532	-6.01
219.004	1.19
219.475	5.94
219.946	8.79
220.418	17.04
220.889	9.64
221.36	5.39
221.832	4.14
222.303	0.49
222.774	1.99
223.245	1.54
223.717	2.54
224.188	-0.96
224.659	3.74
225.13	-1.31
225.601	-0.21
226.072	0.04
226.543	0.44
227.014	-2.16
227.485	2.49
227.956	-0.86
228.427	6.34
228.898	2.09
229.369	2.54
229.839	0.79
230.31	5.09
230.781	4.34
231.252	8.44
231.722	8.49
232.193	11.29
232.664	14.99
233.135	17.04
233.605	20.94
234.076	14.99
234.546	16.89
235.017	19.84
235.487	18.39
235.958	17.09
236.428	26.39
236.899	40.94
237.369	42.89
237.84	32.54
238.31	40.84
238.78	39.19
239.251	42.14
239.721	40.39
240.191	29.19
240.662	18.49
241.132	10.49
241.602	19.24
242.072	24.94
242.542	27.19
243.013	20.39
243.483	22.04
243.953	9.29
244.423	12.29
244.893	15.54
245.363	21.54
245.833	18.89
246.303	19.54
246.773	31.24
247.243	25.99
247.712	34.54
248.182	40.49
248.652	41.64
249.122	67.89
249.592	127.14
250.061	201.49
250.531	318.49
251.001	243.19
251.471	202.69
251.94	150.89
252.41	79.59
252.879	53.74
253.349	47.89
253.818	32.89
254.288	29.59
254.757	28.44
255.227	36.59
255.696	28.59
256.166	27.89
256.635	33.64
257.105	32.24
257.574	50.19
258.043	49.89
258.513	101.14
258.982	125.89
259.451	86.99
259.92	79.44
260.389	82.99
260.859	56.24
261.328	68.29
261.797	101.09
262.266	87.59
262.735	41.44
263.204	20.04
263.673	21.79
264.142	17.24
264.611	19.64
265.08	24.39
265.549	18.79
266.018	21.09
266.487	22.39
266.955	21.34
267.424	24.64
267.893	23.59
268.362	24.34
268.83	22.19
269.299	23.09
269.768	25.89
270.236	29.99
270.705	38.49
271.174	35.94
271.642	38.49
272.111	43.64
272.579	78.54
273.048	125.04
273.516	163.14
273.985	158.39
274.453	123.89
274.922	76.09
275.39	43.29
275.858	40.89
276.327	31.04
276.795	31.34
277.263	38.84
277.731	53.49
278.2	111.14
278.668	140.24
279.136	108.99
279.604	68.49
280.072	39.74
280.54	31.24
281.008	37.59
281.477	32.14
281.945	38.44
282.413	37.34
282.881	40.94
283.348	36.49
283.816	41.54
284.284	42.49
284.752	42.04
285.22	42.29
285.688	44.09
286.156	84.94
286.623	234.39
287.091	458.64
287.559	246.24
288.026	95.14
288.494	57.19
288.962	43.74
289.429	40.99
289.897	40.24
290.364	40.39
290.832	41.29
291.3	36.04
291.767	39.99
292.234	41.44
292.702	46.29
293.169	46.49
293.637	47.34
294.104	48.09
294.571	44.24
295.039	46.39
295.506	44.49
295.973	42.39
296.44	42.59
296.908	51.34
297.375	58.99
297.842	60.49
298.309	49.09
298.776	48.09
299.243	49.24
299.71	46.09
300.177	52.24
300.644	53.54
301.111	54.49
301.578	49.84
302.045	50.04
302.512	45.24
302.979	47.69
303.446	56.34
303.913	54.64
304.379	62.44
304.846	71.54
305.313	78.29
305.78	89.54
306.246	110.79
306.713	113.94
307.18	102.39
307.646	113.04
308.113	93.89
308.579	75.99
309.046	77.99
309.512	74.59
309.979	70.44
310.445	63.24
310.912	63.04
311.378	68.84
311.845	67.79
312.311	59.29
312.777	60.14
313.244	68.59
313.71	66.64
314.176	76.34
314.642	91.39
315.109	106.19
315.575	97.64
316.041	90.29
316.507	82.34
316.973	94.94
317.439	91.54
317.905	101.14
318.371	98.49
318.837	95.19
319.303	99.14
319.769	92.39
320.235	106.54
320.701	122.59
321.167	128.34
321.633	156.64
322.099	216.34
322.564	290.79
323.03	226.69
323.496	153.49
323.962	144.79
324.427	139.69
324.893	122.64
325.359	116.79
325.824	101.29
326.29	105.09
326.755	105.39
327.221	99.94
327.686	113.09
328.152	101.69
328.617	97.69
329.083	98.59
329.548	102.19
330.014	104.39
330.479	114.59
330.944	133.14
331.41	160.59
331.875	149.94
332.34	154.84
332.805	180.74
333.271	231.59
333.736	309.94
334.201	271.89
334.666	208.99
335.131	229.69
335.596	183.54
336.061	194.24
336.526	193.34
336.991	170.89
337.456	185.59
337.921	145.39
338.386	112.99
338.851	104.99
339.316	101.69
339.781	97.24
340.246	97.09
340.711	98.99
341.175	100.29
341.64	95.84
342.105	101.24
342.569	112.79
343.034	113.19
343.499	118.79
343.963	117.74
344.428	116.39
344.893	119.84
345.357	124.04
345.822	118.09
346.286	119.74
346.751	126.74
347.215	126.54
347.679	131.49
348.144	140.94
348.608	138.89
349.073	144.59
349.537	158.44
350.001	152.94
350.465	144.39
350.93	139.09
351.394	135.49
351.858	133.89
352.322	142.79
352.786	138.04
353.25	137.29
353.715	136.49
354.179	150.34
354.643	156.14
355.107	157.74
355.571	168.69
356.035	172.89
356.498	170.29
356.962	185.09
357.426	180.54
357.89	161.59
358.354	148.14
358.818	145.54
359.281	153.64
359.745	161.39
360.209	159.29
360.673	157.09
361.136	166.74
361.6	165.64
362.064	170.69
362.527	178.74
362.991	177.94
363.454	177.34
363.918	180.64
364.381	180.29
364.845	168.24
365.308	164.54
365.772	169.84
366.235	173.54
366.698	181.64
367.162	216.04
367.625	247.19
368.088	204.79
368.552	180.19
369.015	183.34
369.478	192.24
369.941	196.64
370.404	205.49
370.867	213.29
371.331	215.99
371.794	222.69
372.257	247.44
372.72	259.54
373.183	249.39
373.646	252.19
374.109	250.64
374.572	293.09
375.035	347.19
375.497	256.79
375.96	209.59
376.423	200.04
376.886	197.84
377.349	203.39
377.811	201.69
378.274	210.94
378.737	211.74
379.199	213.09
379.662	222.29
380.125	235.94
380.587	263.19
381.05	275.34
381.512	279.34
381.975	270.04
382.437	262.94
382.9	264.89
383.362	262.29
383.825	286.09
384.287	364.24
384.75	403.29
385.212	360.94
385.674	294.04
386.136	271.84
386.599	266.89
387.061	274.59
387.523	286.74
387.985	283.09
388.447	290.09
388.91	338.69
389.372	409.04
389.834	383.29
390.296	304.09
390.758	316.34
391.22	324.34
391.682	400.29
392.144	611.79
392.606	574.29
393.068	346.79
393.529	310.09
393.991	301.84
394.453	293.69
394.915	317.44
395.377	381.34
395.838	460.34
396.3	332.34
396.762	259.34
397.224	242.44
397.685	233.74
398.147	240.09
398.608	245.99
399.07	247.09
399.531	237.69
399.993	248.19
400.454	249.54
400.916	252.64
401.377	255.19
401.839	253.49
402.3	259.89
402.762	271.24
403.223	304.14
403.684	303.99
404.145	277.99
404.607	282.14
405.068	274.29
405.529	283.99
405.99	286.49
406.451	292.99
406.913	282.39
407.374	285.94
407.835	288.74
408.296	302.79
408.757	302.94
409.218	312.24
409.679	310.14
410.14	314.44
410.601	329.79
411.062	347.79
411.522	403.09
411.983	441.04
412.444	375.24
412.905	329.14
413.366	325.89
413.826	334.79
414.287	371.79
414.748	441.89
415.208	454.94
415.669	379.09
416.13	347.79
416.59	336.94
417.051	347.84
417.511	367.29
417.972	394.29
418.432	417.49
418.893	466.89
419.353	438.29
419.814	348.04
420.274	308.74
420.734	311.14
421.195	328.59
421.655	342.39
422.115	337.94
422.576	324.39
423.036	319.99
423.496	330.94
423.956	353.94
424.416	380.79
424.876	424.29
425.336	425.04
425.797	421.89
426.257	418.29
426.717	399.94
427.177	375.59
427.637	389.69
428.097	414.84
428.556	433.64
429.016	473.14
429.476	472.14
429.936	448.04
430.396	439.59
430.856	447.99
431.315	461.79
431.775	496.74
432.235	519.09
432.694	528.74
433.154	500.94
433.614	486.19
434.073	466.99
434.533	430.44
434.993	408.29
435.452	404.74
435.912	395.74
436.371	391.89
436.83	395.04
437.29	398.89
437.749	375.99
438.209	376.54
438.668	378.64
439.127	379.14
439.587	369.89
440.046	349.44
440.505	362.59
440.964	363.39
441.424	369.84
441.883	374.54
442.342	358.74
442.801	344.04
443.26	356.54
443.719	349.64
444.178	342.14
444.637	347.19
445.096	351.94
445.555	357.59
446.014	357.29
446.473	346.04
446.932	342.99
447.391	351.54
447.849	362.99
448.308	352.69
448.767	360.44
449.226	366.89
449.685	370.49
450.143	390.99
450.602	389.44
451.061	369.49
451.519	380.09
451.978	385.34
452.436	404.94
452.895	387.94
453.353	363.44
453.812	376.04
454.27	366.94
454.729	361.34
455.187	360.94
455.646	368.44
456.104	368.69
456.562	368.04
457.021	363.49
457.479	347.24
457.937	354.64
458.395	365.94
458.854	363.79
459.312	354.09
459.77	362.74
460.228	368.09
460.686	371.84
461.144	374.84
461.602	367.39
462.06	364.64
462.518	381.14
462.976	378.99
463.434	380.99
463.892	383.59
464.35	392.94
464.808	397.44
465.266	401.09
465.724	410.14
466.181	402.04
466.639	405.49
467.097	423.89
467.555	445.39
468.012	435.44
468.47	436.29
468.928	450.89
469.385	463.74
469.843	469.59
470.3	463.24
470.758	485.74
471.215	492.24
471.673	498.74
472.13	516.34
472.588	526.99
473.045	523.29
473.503	534.94
473.96	559.34
474.417	568.79
474.875	600.59
475.332	619.19
475.789	633.44
476.246	642.29
476.704	679.64
477.161	702.59
477.618	724.29
478.075	766.84
478.532	831.04
478.989	908.39
479.446	1013.44
479.903	1078.84
480.36	1187.99
480.817	1276.49
481.274	1376.34
481.731	1519.94
482.188	1646.79
482.645	1776.54
483.102	1895.64
483.558	2037.69
484.015	2139.74
484.472	2136.99
484.929	2085.14
485.385	1982.54
485.842	1923.24
486.299	1811.64
486.755	1632.24
487.212	1444.84
487.668	1285.09
488.125	1181.09
488.582	1076.44
489.038	1024.29
489.494	987.54
489.951	940.64
490.407	917.64
490.864	904.39
491.32	880.39
491.776	859.04
492.233	864.29
492.689	849.74
493.145	834.74
493.602	825.54
494.058	840.34
494.514	850.54
494.97	858.59
495.426	861.84
495.882	861.74
496.338	872.49
496.794	905.19
497.251	902.99
497.707	909.44
498.163	905.79
498.618	909.64
499.074	916.84
499.53	930.09
499.986	953.24
500.442	963.14
500.898	963.24
501.354	969.49
501.809	978.39
502.265	990.64
502.721	1045.89
503.177	1064.59
503.632	1019.09
504.088	1018.54
504.543	1120.84
504.999	1035.69
505.455	917.99
505.91	874.39
506.366	859.24
506.821	856.39
507.277	857.94
507.732	858.79
508.187	856.94
508.643	866.64
509.098	865.84
509.553	875.64
510.009	884.24
510.464	900.19
510.919	910.19
511.375	920.09
511.83	937.49
512.285	942.79
512.74	965.79
513.195	973.89
513.65	996.74
514.105	1014.34
514.56	1006.44
515.015	1036.54
515.47	1045.39
515.925	1036.19
516.38	1040.79
516.835	1040.79
517.29	1030.04
517.745	1034.69
518.2	1021.29
518.655	989.84
519.109	977.94
519.564	971.94
520.019	965.74
520.474	951.99
520.928	940.54
521.383	942.29
521.838	939.64
522.292	926.29
522.747	913.39
523.201	910.24
523.656	900.19
524.11	896.79
524.565	900.59
525.019	899.94
525.474	910.54
525.928	905.64
526.382	893.24
526.837	887.94
527.291	890.14
527.745	881.49
528.2	884.74
528.654	869.34
529.108	878.44
529.562	884.09
530.016	881.94
530.47	894.04
530.925	881.59
531.379	881.19
531.833	900.49
532.287	880.69
532.741	876.64
533.195	890.54
533.649	883.44
534.103	888.69
534.556	871.69
535.01	890.19
535.464	886.94
535.918	885.54
536.372	895.24
536.826	891.74
537.279	887.84
537.733	880.94
538.187	883.24
538.64	881.99
539.094	896.84
539.548	912.74
540.001	896.39
540.455	901.54
540.908	914.79
541.362	927.44
541.815	923.59
542.269	954.84
542.722	946.44
543.175	955.34
543.629	965.29
544.082	971.84
544.536	974.44
544.989	975.89
545.442	983.19
545.895	976.84
546.349	981.99
546.802	987.84
547.255	984.84
547.708	996.89
548.161	1000.24
548.614	1005.04
549.067	1002.09
549.52	1003.49
549.973	985.74
550.426	983.34
550.879	972.44
551.332	963.44
551.785	972.04
552.238	987.74
552.691	986.19
553.144	998.74
553.596	1019.49
554.049	1032.24
554.502	1049.64
554.955	1065.29
555.407	1079.69
555.86	1057.14
556.313	1059.79
556.765	1041.74
557.218	1037.64
557.67	1047.74
558.123	1025.19
558.576	1015.44
559.028	1014.69
559.48	1031.44
559.933	1025.34
560.385	989.99
560.838	959.09
561.29	926.09
561.742	935.39
562.195	915.79
562.647	909.94
563.099	901.59
563.551	909.94
564.004	906.09
564.456	901.89
564.908	886.64
565.36	863.19
565.812	854.24
566.264	851.09
566.716	834.04
567.168	815.89
567.62	823.69
568.072	816.39
568.524	802.64
568.976	803.74
569.428	800.99
569.88	793.39
570.332	799.14
570.784	800.14
571.235	796.94
571.687	800.04
572.139	804.24
572.59	810.19
573.042	805.89
573.494	812.84
573.945	794.99
574.397	782.14
574.849	782.84
575.3	793.04
575.752	767.54
576.203	768.09
576.655	772.54
577.106	757.94
577.557	756.59
578.009	743.89
578.46	753.69
578.912	750.09
579.363	754.39
579.814	752.14
580.265	751.14
580.717	757.19
581.168	752.24
581.619	753.64
582.07	760.34
582.521	762.24
582.972	757.09
583.423	770.84
583.875	781.89
584.326	826.24
584.777	898.49
585.227	980.54
585.678	1045.79
586.129	1067.19
586.58	1089.29
587.031	1101.64
587.482	1155.94
587.933	1362.54
588.384	1250.29
588.834	1035.19
589.285	877.54
589.736	855.99
590.186	860.64
590.637	853.19
591.088	830.34
591.538	814.09
591.989	813.29
592.439	802.99
592.89	807.19
593.34	802.54
593.791	818.64
594.241	815.94
594.692	822.29
595.142	824.69
595.593	807.84
596.043	807.79
596.493	820.54
596.943	840.94
597.394	824.94
597.844	808.74
598.294	815.44
598.744	850.64
599.195	896.44
599.645	944.74
600.095	994.29
600.545	1030.14
600.995	1073.24
601.445	1117.94
601.895	1156.14
602.345	1201.04
602.795	1171.94
603.245	1127.74
603.695	1061.59
604.145	1003.39
604.594	959.44
605.044	906.84
605.494	856.54
605.944	820.24
606.393	798.09
606.843	793.79
607.293	787.09
607.743	786.59
608.192	800.84
608.642	798.19
609.091	796.74
609.541	793.84
609.99	795.19
610.44	776.74
610.889	773.34
611.339	765.59
611.788	760.14
612.238	764.54
612.687	770.99
613.136	786.14
613.586	803.09
614.035	800.29
614.484	813.39
614.933	811.19
615.383	795.19
615.832	773.34
616.281	753.34
616.73	737.64
617.179	714.34
617.628	700.64
618.077	686.94
618.526	669.89
618.975	669.94
619.424	653.29
619.873	661.34
620.322	656.64
620.771	657.34
621.22	648.84
621.669	637.79
622.118	627.49
622.567	624.84
623.015	616.39
623.464	615.29
623.913	607.14
624.361	608.64
624.81	602.59
625.259	606.24
625.707	591.29
626.156	601.74
626.604	607.04
627.053	596.89
627.501	597.14
627.95	609.49
628.398	610.79
628.847	606.54
629.295	611.44
629.744	624.34
630.192	636.29
630.64	685.44
631.089	757.79
631.537	794.49
631.985	805.14
632.433	832.69
632.881	831.29
633.33	999.79
633.778	1090.94
634.226	776.99
634.674	703.99
635.122	700.59
635.57	716.69
636.018	832.39
636.466	677.59
636.914	589.79
637.362	591.39
637.81	597.84
638.258	614.29
638.705	615.39
639.153	641.84
639.601	643.14
640.049	652.69
640.497	674.99
640.944	693.59
641.392	658.44
641.84	635.09
642.287	602.94
642.735	597.54
643.182	592.64
643.63	599.14
644.078	594.69
644.525	615.64
644.973	625.29
645.42	639.64
645.867	644.04
646.315	664.14
646.762	693.29
647.21	713.99
647.657	752.24
648.104	799.49
648.551	822.24
648.999	911.79
649.446	1008.14
649.893	1148.19
650.34	1369.04
650.787	1706.59
651.234	2239.29
651.682	3156.74
652.129	4603.94
652.576	6710.99
653.023	8991.99
653.47	10508.24
653.917	11389.04
654.363	11810.39
654.81	12564.94
655.257	12656.19
655.704	8618.19
656.151	5008.64
656.598	3184.54
657.044	2246.74
657.491	1734.64
657.938	1387.39
658.385	1166.39
658.831	1012.84
659.278	901.04
659.724	813.74
660.171	755.09
660.618	695.69
661.064	642.89
661.511	624.14
661.957	600.99
662.404	583.79
662.85	575.24
663.296	564.94
663.743	549.69
664.189	546.69
664.635	537.44
665.082	522.69
665.528	513.39
665.974	499.49
666.42	503.89
666.867	508.14
667.313	505.69
667.759	536.59
668.205	536.89
668.651	540.09
669.097	520.89
669.543	569.29
669.989	532.34
670.435	470.19
670.881	464.74
671.327	485.84
671.773	512.29
672.219	549.09
672.665	584.09
673.11	599.54
673.556	604.09
674.002	618.84
674.448	623.29
674.893	542.34
675.339	470.99
675.785	435.59
676.23	410.14
676.676	396.94
677.122	387.59
677.567	379.54
678.013	363.49
678.458	360.89
678.904	357.29
679.349	354.49
679.794	358.89
680.24	354.39
680.685	346.04
681.131	356.54
681.576	354.24
682.021	354.84
682.466	360.44
682.912	361.74
683.357	379.29
683.802	416.49
684.247	448.54
684.692	483.09
685.137	491.49
685.583	501.74
686.028	524.34
686.473	502.49
686.918	438.34
687.363	403.94
687.807	383.79
688.252	358.84
688.697	355.89
689.142	339.84
689.587	338.54
690.032	349.94
690.477	360.49
690.921	378.44
691.366	398.29
691.811	413.04
692.255	450.89
692.7	544.89
693.145	775.59
693.589	1166.84
694.034	1381.24
694.478	1456.29
694.923	1331.34
695.367	1847.54
695.812	1164.54
696.256	506.99
696.701	371.14
697.145	353.74
697.59	335.84
698.034	331.74
698.478	326.34
698.922	334.24
699.367	339.94
699.811	356.34
700.255	386.64
700.699	421.54
701.143	449.19
701.588	486.39
702.032	496.34
702.476	504.44
702.92	540.04
703.364	712.04
703.808	1081.19
704.252	1321.94
704.696	1394.29
705.14	1314.99
705.584	1754.84
706.027	1013.94
706.471	515.49
706.915	385.24
707.359	345.44
707.803	326.64
708.246	307.39
708.69	317.49
709.134	311.94
709.577	306.44
710.021	309.89
710.465	316.54
710.908	309.19
711.352	324.34
711.795	361.14
712.239	380.84
712.682	395.69
713.126	380.94
713.569	427.09
714.012	363.94
714.456	315.49
714.899	295.49
715.342	275.79
715.786	268.14
716.229	260.49
716.672	250.79
717.115	246.44
717.558	256.14
718.002	256.34
718.445	269.99
718.888	290.34
719.331	299.09
719.774	297.89
720.217	290.89
720.66	274.54
721.103	264.44
721.546	247.89
721.989	241.94
722.432	234.49
722.874	236.54
723.317	244.19
723.76	266.49
724.203	330.59
724.645	431.44
725.088	502.49
725.531	488.39
725.974	533.84
726.416	483.44
726.859	302.74
727.301	245.44
727.744	233.29
728.187	234.89
728.629	243.94
729.071	252.24
729.514	271.74
729.956	279.14
730.399	280.29
730.841	279.14
731.283	269.69
731.726	257.74
732.168	268.09
732.61	282.09
733.053	302.14
733.495	337.34
733.937	374.39
734.379	442.44
734.821	557.04
735.263	895.19
735.705	1555.99
736.148	2244.19
736.59	2215.99
737.032	2397.49
737.474	1995.19
737.916	799.89
738.357	427.09
738.799	323.54
739.241	297.94
739.683	304.04
740.125	310.29
740.567	301.54
741.008	322.74
741.45	333.14
741.892	341.29
742.334	338.39
742.775	333.39
743.217	321.89
743.658	281.04
744.1	279.04
744.542	314.24
744.983	325.04
745.425	337.09
745.866	337.69
746.307	311.84
746.749	336.29
747.19	491.49
747.632	943.39
748.073	1707.39
748.514	2295.14
748.956	3045.64
749.397	3531.54
749.838	2458.14
750.279	2324.14
750.72	1246.29
751.162	542.29
751.603	305.34
752.044	250.59
752.485	221.54
752.926	211.14
753.367	200.29
753.808	193.04
754.249	187.19
754.69	189.49
755.131	183.09
755.572	181.09
756.013	183.14
756.453	189.49
756.894	190.09
757.335	185.89
757.776	191.84
758.216	199.44
758.657	212.79
759.098	237.79
759.538	279.24
759.979	405.14
760.42	832.14
760.86	2041.74
761.301	4187.99
761.741	4848.99
762.182	5547.99
762.622	3577.89
763.063	1372.64
763.503	604.64
763.943	462.59
764.384	498.64
764.824	473.19
765.264	464.29
765.705	335.94
766.145	238.89
766.585	212.79
767.025	227.39
767.465	291.69
767.906	355.64
768.346	374.04
768.786	383.09
769.226	403.79
769.666	679.79
770.106	1437.34
770.546	1975.79
770.986	2204.59
771.426	1688.74
771.866	735.39
772.306	341.99
772.745	216.24
773.185	186.64
773.625	193.49
774.065	220.79
774.505	365.74
774.944	727.19
775.384	1079.79
775.824	1216.89
776.263	1002.54
776.703	501.99
777.142	250.84
777.582	169.59
778.021	155.09
778.461	149.19
778.9	145.54
779.34	131.34
779.779	121.94
780.219	122.89
780.658	118.74
781.097	119.39
781.537	113.84
781.976	110.24
782.415	113.59
782.855	108.74
783.294	115.54
783.733	108.34
784.172	111.54
784.611	110.39
785.05	113.09
785.489	116.99
785.928	114.24
786.367	118.59
786.806	125.34
787.245	142.29
787.684	139.59
788.123	138.39
788.562	135.09
789.001	128.44
789.44	124.69
789.879	124.49
790.317	125.44
790.756	136.79
791.195	155.79
791.634	208.69
792.072	379.89
792.511	929.54
792.95	1642.39
793.388	1949.24
793.827	1295.99
794.265	608.59
794.704	295.49
795.142	182.99
795.581	150.49
796.019	131.84
796.458	130.49
796.896	137.29
797.334	157.99
797.773	214.24
798.211	413.14
798.649	837.54
799.087	1386.39
799.526	1919.49
799.964	1961.99
800.402	1369.09
800.84	635.19
801.278	311.19
801.716	186.99
802.154	154.09
802.592	144.09
803.03	146.24
803.468	146.39
803.906	152.29
804.344	141.54
804.782	134.59
805.22	144.14
805.658	149.94
806.096	158.94
806.533	175.74
806.971	220.19
807.409	331.04
807.847	664.24
808.284	1629.24
808.722	2804.64
809.16	3962.94
809.597	5420.64
810.035	6588.09
810.472	4230.29
810.91	1871.49
811.347	849.99
811.785	401.19
812.222	245.14
812.66	187.89
813.097	162.74
813.535	144.24
813.972	123.89
814.409	115.49
814.846	110.09
815.284	105.44
815.721	105.04
816.158	116.24
816.595	151.19
817.032	177.49
817.47	164.69
817.907	131.94
818.344	115.24
818.781	108.99
819.218	132.79
819.655	181.84
820.092	228.59
820.529	220.24
820.966	178.49
821.403	138.64
821.839	117.44
822.276	122.99
822.713	140.19
823.15	134.34
823.587	145.59
824.023	280.59
824.46	689.94
824.897	1168.29
825.333	907.49
825.77	426.59
826.206	222.69
826.643	135.69
827.08	97.44
827.516	87.74
827.953	82.49
828.389	77.59
828.825	76.49
829.262	68.89
829.698	64.74
830.135	61.59
830.571	61.44
831.007	64.94
831.443	64.49
831.88	67.39
832.316	71.29
832.752	66.54
833.188	72.89
833.624	66.89
834.06	67.69
834.497	67.89
834.933	75.19
835.369	79.74
835.805	86.09
836.241	87.64
836.677	98.34
837.112	109.74
837.548	135.94
837.984	199.34
838.42	438.54
838.856	1195.54
839.292	2260.79
839.727	1682.59
840.163	1187.54
840.599	1756.04
841.034	2604.89
841.47	1343.69
841.906	673.44
842.341	379.14
842.777	337.04
843.212	392.79
843.648	230.19
844.083	146.74
844.519	99.19
844.954	75.24
845.39	64.49
845.825	67.29
846.261	64.79
846.696	55.19
847.131	56.24
847.566	57.59
848.002	63.49
848.437	66.24
848.872	63.24
849.307	90.74
849.742	153.79
850.177	401.04
850.613	826.14
851.048	588.44
851.483	276.59
851.918	157.64
852.353	93.09
852.788	69.39
853.223	64.64
853.657	49.24
854.092	46.14
854.527	49.24
854.962	51.34
855.397	55.79
855.832	44.94
856.266	44.59
856.701	43.44
857.136	45.34
857.57	48.44
858.005	53.29
858.44	45.34
858.874	46.64
859.309	53.89
859.743	53.99
860.178	45.04
860.612	50.99
861.047	69.79
861.481	83.54
861.915	58.39
862.35	49.49
862.784	40.44
863.218	39.89
863.653	42.74
864.087	46.74
864.521	67.54
864.955	114.39
865.39	193.39
865.824	136.49
866.258	152.24
866.692	217.59
867.126	155.74
867.56	86.99
867.994	62.24
868.428	54.89
868.862	61.24
869.296	57.64
869.73	70.59
870.164	56.29
870.598	50.34
871.031	41.89
871.465	36.64
871.899	30.49
872.333	26.74
872.766	33.64
873.2	30.24
873.634	27.59
874.067	33.74
874.501	35.04
874.935	28.09
875.368	29.24
875.802	28.89
876.235	29.89
876.669	27.49
877.102	19.39
877.535	21.44
877.969	20.99
878.402	24.39
878.836	18.44
879.269	25.24
879.702	20.19
880.135	23.84
880.569	27.64
881.002	22.29
881.435	21.19
881.868	21.29
882.301	21.19
882.734	19.54
883.167	23.74
883.601	23.39
884.034	21.94
884.467	19.99
884.899	16.69
885.332	16.19
885.765	19.99
886.198	18.49
886.631	17.19
887.064	18.09
887.497	17.04
887.929	16.94
888.362	16.89
888.795	21.44
889.228	22.49
889.66	14.19
890.093	19.29
890.526	20.94
890.958	16.14
891.391	23.14
891.823	16.64
892.256	18.89
892.688	18.39
893.121	16.24
893.553	19.69
893.985	15.49
894.418	13.89
894.85	19.54
895.282	21.14
895.715	14.49
896.147	14.69
896.579	12.59
897.011	19.29
897.444	16.54
897.876	12.14
898.308	10.49
898.74	18.24
899.172	17.49
899.604	17.74
900.036	19.14
900.468	13.64
900.9	18.59
901.332	21.14
901.764	22.84
902.196	21.39
902.628	17.29
903.06	29.54
903.491	24.04
903.923	21.14
904.355	28.09
904.787	25.29
905.218	20.54
905.65	24.29
906.082	21.29
906.513	21.64
906.945	24.04
907.376	22.79
907.808	20.94
908.239	25.94
908.671	30.74
909.102	28.89
909.534	38.84
909.965	73.79
910.397	192.29
910.828	546.04
911.259	339.69
911.691	184.14
912.122	107.99
912.553	56.64
912.984	26.09
913.415	26.44
913.847	20.74
914.278	21.89
914.709	17.19
915.14	15.69
915.571	14.59
916.002	16.69
916.433	18.09
916.864	15.94
917.295	17.44
917.726	20.69
918.157	21.14
918.587	25.54
919.018	24.19
919.449	21.34
919.88	26.14
920.311	34.69
920.741	117.84
921.172	203.84
921.603	102.19
922.033	62.34
922.464	43.79
922.895	26.89
923.325	20.14
923.756	14.89
924.186	28.24
924.617	45.84
925.047	72.44
925.478	60.89
925.908	42.54
926.338	27.09
926.769	22.44
927.199	18.74
927.629	16.64
928.06	17.99
928.49	18.64
928.92	17.14
929.35	16.54
929.78	6.34
930.21	11.89
930.641	2.64
931.071	12.34
931.501	8.94
931.931	7.24
932.361	6.64
932.791	10.74
933.221	12.99
933.651	15.14
934.08	30.24
934.51	13.69
934.94	11.84
935.37	8.24
935.8	8.64
936.229	5.44
936.659	2.69
937.089	8.19
937.519	22.44
937.948	23.84
938.378	16.29
938.807	7.99
939.237	10.74
939.666	7.69
940.096	-0.11
940.525	-1.46
940.955	9.04
941.384	4.69
941.814	2.19
942.243	7.44
942.672	3.34
943.102	0.79
943.531	5.29
943.96	1.49
944.39	2.69
944.819	7.39
945.248	1.59
945.677	-0.51
946.106	4.09
946.535	4.89
946.964	5.44
947.393	0.69
947.822	1.79
948.251	5.49
948.68	3.89
949.109	4.04
949.538	0.59
949.967	2.09
950.396	-0.11
950.825	2.99
951.254	1.39
951.682	-0.41
952.111	-4.56
952.54	0.69
952.969	5.04
953.397	-3.01
953.826	2.49
954.254	5.89
954.683	2.69
955.112	6.54
955.54	0.29
955.969	0.44
956.397	3.69
956.826	-1.11
957.254	2.39
957.682	-1.76
958.111	1.84
958.539	3.44
958.967	0.04
959.396	2.44
959.824	0.19
960.252	2.14
960.68	-2.31
961.109	8.74
961.537	10.74
961.965	-4.61
962.393	2.39
962.821	0.79
963.249	0.94
963.677	4.04
964.105	35.84
964.533	52.64
964.961	28.64
965.389	13.04
965.817	6.29
966.245	4.89
966.672	-2.46
967.1	3.39
967.528	0.29
967.956	0.04
968.383	1.29
968.811	-4.36
969.239	-1.36
969.666	2.99
970.094	-4.01
970.522	-0.71
970.949	1.59
971.377	-5.81
971.804	-4.26
972.232	-2.61
972.659	-1.31
973.087	1.79
973.514	-2.31
973.941	-1.21
974.369	-4.81
974.796	-0.26
975.223	-2.76
975.651	1.29
976.078	2.59
976.505	1.04
976.932	9.99
977.359	15.34
977.786	9.14
978.214	11.59
978.641	-1.36
979.068	-1.41
979.495	-0.86
979.922	1.54
980.349	0.04
980.776	2.44
981.202	0.04
981.629	6.79
982.056	4.19
982.483	-4.46
982.91	3.39
983.337	-3.76
983.763	4.39
984.19	3.89
984.617	-3.26
985.043	1.29
985.47	4.59
985.897	4.34
986.323	4.94
986.75	-4.36
987.176	-2.21
987.603	2.24
988.029	2.09
988.456	5.39
988.882	-0.76
989.308	-4.56
989.735	-3.51
990.161	1.04
990.587	-4.66
991.014	-2.11
991.44	3.14
991.866	-0.31
992.292	-1.11
992.719	-0.31
993.145	1.69
993.571	3.44
993.997	5.24
994.423	-0.81
994.849	-3.16
995.275	-0.11
995.701	0.44
996.127	-3.31
996.553	-4.61
996.979	-1.76
997.405	-0.16
997.83	-3.11
998.256	0.84
998.682	-1.61
999.108	0.54
999.534	-8.06
999.959	-0.56
1000.385	0.59
1000.811	-4.91
1001.236	-6.31
1001.662	-0.56
1002.087	6.59
1002.513	1.29
1002.938	-1.11
1003.364	-2.01
1003.789	0.54
1004.215	-3.26
1004.64	-1.16
1005.066	0.69
1005.491	2.09
1005.916	1.84
1006.342	0.24
1006.767	-0.16
1007.192	0.49
1007.617	0.84
1008.042	-1.51
1008.468	-2.96
1008.893	0.84
1009.318	-2.21
1009.743	0.04
1010.168	7.19
1010.593	10.54
1011.018	3.99
1011.443	0.69
1011.868	6.59
1012.293	3.49
1012.718	-4.86
1013.143	-0.76
1013.567	5.14
1013.992	2.14
1014.417	-2.91
1014.842	-2.36
1015.267	-4.06
1015.691	-0.16
1016.116	0.14
1016.541	-3.26
1016.965	3.54
1017.39	4.49
1017.814	-3.06
1018.239	-3.96
1018.663	-4.26
1019.088	-3.51
1019.512	3.29
1019.937	-6.01
1020.361	2.84
1020.785	-1.26
1021.21	-3.96
1021.634	-3.56
1022.058	-1.06
1022.483	-6.21
1022.907	-6.66
1023.331	-4.76
1023.755	-2.21
1024.179	-1.86
1024.604	-5.61
1025.028	1.19
1025.452	-0.61
1025.876	0.29
1026.3	-1.41
1026.724	0.29
1027.148	1.04
1027.572	-1.71
1027.996	-0.41
1028.42	-1.76
1028.843	1.54
1029.267	-2.56
1029.691	3.69
1030.115	1.09
1030.539	-0.56
1030.962	-2.46
1031.386	0.54
1031.81	-1.96
1032.233	-1.91
1032.657	-9.76
1033.08	-2.91
1033.504	-4.81
1033.927	0.09
1034.351	-2.16
1034.774	-3.21
1035.198	-6.66
1035.621	-1.41
1036.045	-1.21
1036.468	2.99
1036.891	0.84
1037.315	4.44
1037.738	-0.56
1038.161	-0.71
1038.584	0.84
1039.008	-5.26
1039.431	-2.21
1039.854	-4.81
1040.277	-0.16
1040.7	-2.06
1041.123	-2.31
1041.546	-1.96
1041.969	0.29
1042.392	5.94
1042.815	-11.76
1043.238	-1.91
1043.661	-1.51
1044.084	-5.21
1044.507	-4.76
1044.93	-3.01
1045.352	-1.46
1045.775	-2.81
1046.198	-1.31
1046.621	1.39
1047.043	-0.21
1047.466	1.39
1047.889	-4.86
1048.311	-1.11
1048.734	-5.26
1049.156	-6.16
1049.579	0.84
1050.001	-3.06
1050.424	-3.21
1050.846	-1.11
1051.269	-5.81
1051.691	-5.36
1052.113	1.34
1052.536	-1.86
1052.958	-6.26
1053.38	-2.31
1053.802	-0.36
1054.225	-4.56
1054.647	-0.11
1055.069	-3.91
1055.491	-6.26
1055.913	-4.81
1056.335	-11.11
1056.757	-1.36
1057.179	-1.16
1057.601	-5.41
1058.023	-1.26
1058.445	-5.41
1058.867	0.14
1059.289	-5.61
1059.711	-4.01
1060.133	0.29
1060.555	-3.21
1060.976	2.44
1061.398	-3.26
1061.82	-2.41
1062.241	-0.21
1062.663	-2.01
1063.085	-8.56
1063.506	-6.76
1063.928	-4.36
1064.35	2.64
1064.771	0.09
1065.193	-3.06
1065.614	-3.96
1066.035	-0.66
1066.457	0.74
1066.878	-3.21
1067.3	-5.51
1067.721	1.04
1068.142	2.24
1068.564	-3.86
1068.985	-3.91
1069.406	-11.26
1069.827	-1.91
1070.248	-7.46
1070.67	-6.66
1071.091	-4.71
1071.512	-3.86
1071.933	-4.76
1072.354	-6.96
1072.775	-5.76
1073.196	-4.76
1073.617	-5.66
1074.038	-4.21
1074.459	-6.66
1074.88	-6.76
1075.3	-5.51
1075.721	-1.11
1076.142	-2.86
1076.563	-6.56
1076.983	0.74
1077.404	-9.06
1077.825	-1.26
1078.246	-5.11
1078.666	-4.96
1079.087	-3.21
1079.507	-0.26
1079.928	-2.41
1080.348	-0.71
1080.769	-3.36
1081.189	-0.86
1081.61	-5.11
1082.03	-0.81
1082.451	-5.51
1082.871	-2.61
1083.291	-2.56
1083.711	-6.96
1084.132	-2.06
1084.552	-4.81
1084.972	-6.76
1085.392	-7.01
1085.813	-2.61
1086.233	-3.91
1086.653	-2.21
1087.073	-6.91
1087.493	-7.56
1087.913	-4.26
1088.333	-3.56
1088.753	-0.06
1089.173	-0.31
1089.593	0.34
1090.013	-2.16
1090.433	-3.71
1090.852	-2.26
1091.272	-8.01
1091.692	-2.06
1092.112	-6.46
1092.531	-4.31
1092.951	-2.16
1093.371	0.14
1093.79	-1.31
1094.21	-6.96
1094.63	-4.86
1095.049	-3.51
1095.469	-9.46
1095.888	-2.86
1096.308	-3.76
1096.727	-3.81
1097.146	-4.46
1097.566	0.54
1097.985	-2.46
1098.405	-3.41
1098.824	-0.81
1099.243	-4.91
1099.662	-3.41
1100.082	-5.56
1100.501	-0.61
1100.92	1.04
1101.339	-2.71
1101.758	1.79
