Data from MSPlasma+Separation6_Subt14_10-15-13-160.txt Node
Date: Fri Jul 21 10:15:13 EDT 2017
User: Ender
Spectrometer: HR+D1039
Trigger mode: 0
Integration Time (sec): 6.430000E-3
Scans to average: 20
Electric dark correction enabled: true
Nonlinearity correction enabled: false
Boxcar width: 0
XAxis mode: Wavelengths
Number of Pixels in Spectrum: 2048
>>>>>Begin Spectral Data<<<<<
187.836	-0.68
188.309	-0.68
188.782	-0.68
189.255	-0.13
189.728	3.77
190.201	1.97
190.674	2.12
191.147	0.42
191.619	2.67
192.092	-1.73
192.565	-2.23
193.038	0.22
193.511	0.42
193.984	0.52
194.456	1.97
194.929	-2.03
195.402	-4.58
195.874	-2.63
196.347	6.67
196.82	2.02
197.292	0.97
197.765	-1.73
198.237	-1.93
198.71	-2.58
199.182	-1.18
199.655	5.47
200.127	3.12
200.6	1.32
201.072	3.82
201.544	-1.03
202.017	4.57
202.489	5.07
202.961	-0.73
203.433	-2.23
203.906	-2.78
204.378	5.17
204.85	4.57
205.322	1.27
205.794	6.87
206.266	4.87
206.739	2.97
207.211	3.87
207.683	0.17
208.155	4.37
208.627	4.57
209.099	5.37
209.57	8.77
210.042	4.47
210.514	3.37
210.986	14.97
211.458	23.97
211.93	15.72
212.402	7.67
212.873	-1.08
213.345	1.17
213.817	3.07
214.288	0.62
214.76	4.92
215.232	1.32
215.703	5.77
216.175	1.92
216.646	5.32
217.118	1.87
217.589	4.57
218.061	5.52
218.532	4.62
219.004	12.92
219.475	15.62
219.946	29.52
220.418	34.37
220.889	24.27
221.36	9.87
221.832	10.87
222.303	11.07
222.774	9.02
223.245	9.57
223.717	4.27
224.188	10.17
224.659	2.52
225.13	0.82
225.601	5.52
226.072	8.02
226.543	8.62
227.014	4.22
227.485	12.17
227.956	11.42
228.427	15.12
228.898	10.37
229.369	15.57
229.839	12.32
230.31	17.32
230.781	16.17
231.252	18.32
231.722	30.37
232.193	31.37
232.664	35.82
233.135	54.37
233.605	59.67
234.076	48.97
234.546	41.52
235.017	45.47
235.487	44.42
235.958	44.87
236.428	61.07
236.899	108.97
237.369	111.52
237.84	82.87
238.31	106.97
238.78	107.82
239.251	107.07
239.721	106.97
240.191	83.27
240.662	49.37
241.132	38.87
241.602	44.37
242.072	71.02
242.542	84.92
243.013	56.17
243.483	56.62
243.953	38.77
244.423	43.47
244.893	47.92
245.363	63.97
245.833	58.92
246.303	65.52
246.773	77.72
247.243	74.87
247.712	93.62
248.182	108.42
248.652	113.17
249.122	163.87
249.592	302.67
250.061	463.37
250.531	741.32
251.001	559.97
251.471	471.07
251.94	354.82
252.41	194.72
252.879	134.27
253.349	103.37
253.818	84.97
254.288	70.87
254.757	75.97
255.227	93.77
255.696	77.82
256.166	72.12
256.635	73.02
257.105	94.42
257.574	125.07
258.043	127.87
258.513	232.72
258.982	288.07
259.451	202.37
259.92	206.67
260.389	187.17
260.859	132.82
261.328	161.12
261.797	240.07
262.266	207.37
262.735	100.57
263.204	57.82
263.673	55.62
264.142	52.27
264.611	49.72
265.08	59.87
265.549	62.42
266.018	57.02
266.487	49.77
266.955	50.57
267.424	60.97
267.893	63.92
268.362	64.67
268.83	60.47
269.299	60.67
269.768	75.22
270.236	84.97
270.705	95.82
271.174	93.42
271.642	100.62
272.111	117.27
272.579	189.92
273.048	282.72
273.516	358.42
273.985	362.72
274.453	277.67
274.922	172.52
275.39	110.67
275.858	100.52
276.327	83.57
276.795	86.72
277.263	98.32
277.731	131.37
278.2	248.07
278.668	320.97
279.136	252.67
279.604	164.27
280.072	100.07
280.54	92.07
281.008	96.17
281.477	95.92
281.945	94.02
282.413	100.47
282.881	100.77
283.348	97.97
283.816	101.97
284.284	108.17
284.752	106.32
285.22	109.97
285.688	117.27
286.156	193.42
286.623	525.12
287.091	1019.27
287.559	532.42
288.026	210.02
288.494	133.82
288.962	111.42
289.429	104.07
289.897	96.47
290.364	90.47
290.832	100.97
291.3	101.92
291.767	100.77
292.234	106.97
292.702	107.62
293.169	118.22
293.637	123.92
294.104	124.97
294.571	115.57
295.039	115.27
295.506	116.17
295.973	116.87
296.44	118.32
296.908	130.47
297.375	147.17
297.842	141.12
298.309	124.47
298.776	121.02
299.243	131.27
299.71	123.17
300.177	119.87
300.644	132.87
301.111	150.47
301.578	131.97
302.045	125.42
302.512	125.87
302.979	129.72
303.446	139.17
303.913	138.52
304.379	148.47
304.846	167.17
305.313	179.72
305.78	211.87
306.246	257.97
306.713	268.77
307.18	236.72
307.646	263.57
308.113	234.02
308.579	187.22
309.046	179.07
309.512	183.07
309.979	165.47
310.445	156.52
310.912	161.97
311.378	167.17
311.845	163.22
312.311	155.82
312.777	152.12
313.244	166.37
313.71	166.82
314.176	191.82
314.642	215.87
315.109	246.47
315.575	233.37
316.041	212.57
316.507	202.82
316.973	229.27
317.439	222.87
317.905	241.07
318.371	237.67
318.837	223.57
319.303	238.67
319.769	214.77
320.235	243.62
320.701	277.17
321.167	292.97
321.633	352.02
322.099	489.82
322.564	658.87
323.03	517.02
323.496	360.97
323.962	343.17
324.427	318.67
324.893	283.92
325.359	271.32
325.824	237.37
326.29	244.52
326.755	254.72
327.221	246.87
327.686	265.32
328.152	240.17
328.617	223.97
329.083	230.97
329.548	245.12
330.014	254.62
330.479	275.42
330.944	317.37
331.41	364.47
331.875	349.77
332.34	362.47
332.805	413.72
333.271	526.27
333.736	693.47
334.201	627.47
334.666	469.07
335.131	536.17
335.596	421.12
336.061	447.27
336.526	447.27
336.991	391.27
337.456	422.62
337.921	342.02
338.386	277.72
338.851	260.12
339.316	242.62
339.781	237.87
340.246	236.67
340.711	232.97
341.175	240.17
341.64	245.47
342.105	249.52
342.569	267.22
343.034	285.72
343.499	290.37
343.963	278.47
344.428	275.27
344.893	285.27
345.357	290.17
345.822	279.17
346.286	284.77
346.751	303.72
347.215	293.17
347.679	300.77
348.144	331.82
348.608	324.52
349.073	341.77
349.537	372.12
350.001	368.42
350.465	339.07
350.93	332.72
351.394	332.52
351.858	327.97
352.322	353.42
352.786	344.62
353.25	335.47
353.715	342.67
354.179	358.97
354.643	372.77
355.107	384.62
355.571	401.62
356.035	415.52
356.498	398.97
356.962	428.52
357.426	417.42
357.89	381.07
358.354	362.97
358.818	356.82
359.281	371.67
359.745	379.47
360.209	379.42
360.673	383.22
361.136	387.12
361.6	383.12
362.064	399.77
362.527	415.02
362.991	413.52
363.454	418.07
363.918	415.22
364.381	414.07
364.845	403.52
365.308	402.77
365.772	399.07
366.235	399.32
366.698	427.17
367.162	510.52
367.625	567.27
368.088	460.67
368.552	420.62
369.015	427.87
369.478	453.77
369.941	467.27
370.404	474.87
370.867	505.07
371.331	508.92
371.794	507.62
372.257	575.47
372.72	602.32
373.183	576.12
373.646	581.52
374.109	580.62
374.572	671.07
375.035	793.57
375.497	610.22
375.96	494.17
376.423	468.47
376.886	465.12
377.349	476.22
377.811	490.87
378.274	492.67
378.737	496.47
379.199	516.62
379.662	519.42
380.125	556.12
380.587	603.97
381.05	640.32
381.512	643.82
381.975	621.12
382.437	622.27
382.9	618.47
383.362	616.22
383.825	666.27
384.287	822.22
384.75	914.17
385.212	807.87
385.674	678.97
386.136	612.87
386.599	604.62
387.061	636.27
387.523	658.02
387.985	665.42
388.447	686.22
388.91	768.27
389.372	917.22
389.834	859.22
390.296	728.22
390.758	736.02
391.22	754.57
391.682	923.92
392.144	1418.47
392.606	1320.52
393.068	797.17
393.529	724.12
393.991	706.72
394.453	694.32
394.915	721.22
395.377	871.17
395.838	1073.62
396.3	769.67
396.762	603.47
397.224	573.47
397.685	564.62
398.147	571.97
398.608	578.32
399.07	592.12
399.531	580.42
399.993	590.57
400.454	600.12
400.916	592.87
401.377	611.82
401.839	620.67
402.3	612.22
402.762	640.22
403.223	712.37
403.684	721.87
404.145	664.82
404.607	648.92
405.068	641.87
405.529	667.17
405.99	671.57
406.451	682.37
406.913	660.92
407.374	679.47
407.835	681.27
408.296	696.67
408.757	708.97
409.218	721.07
409.679	730.72
410.14	740.97
410.601	773.37
411.062	806.32
411.522	925.72
411.983	1012.17
412.444	874.92
412.905	773.87
413.366	783.12
413.826	803.72
414.287	899.02
414.748	1065.67
415.208	1099.77
415.669	902.62
416.13	836.37
416.59	813.02
417.051	840.17
417.511	883.17
417.972	945.27
418.432	1012.22
418.893	1128.72
419.353	1075.57
419.814	822.82
420.274	740.12
420.734	741.07
421.195	795.42
421.655	818.62
422.115	792.32
422.576	765.87
423.036	773.67
423.496	803.32
423.956	836.07
424.416	896.37
424.876	1017.52
425.336	1011.22
425.797	995.77
426.257	997.52
426.717	932.97
427.177	869.02
427.637	908.97
428.097	943.67
428.556	991.87
429.016	1075.02
429.476	1070.67
429.936	1024.77
430.396	1004.57
430.856	1014.17
431.315	1042.52
431.775	1109.57
432.235	1175.07
432.694	1197.97
433.154	1127.32
433.614	1100.32
434.073	1052.82
434.533	956.67
434.993	933.12
435.452	939.52
435.912	929.57
436.371	926.92
436.83	922.22
437.29	939.32
437.749	894.12
438.209	873.22
438.668	891.37
439.127	894.72
439.587	880.57
440.046	850.52
440.505	863.67
440.964	865.97
441.424	892.82
441.883	905.22
442.342	862.87
442.801	826.07
443.26	849.92
443.719	842.77
444.178	837.57
444.637	846.72
445.096	846.07
445.555	855.32
446.014	855.02
446.473	832.57
446.932	835.92
447.391	850.62
447.849	867.47
448.308	859.97
448.767	871.87
449.226	897.57
449.685	901.07
450.143	941.42
450.602	941.82
451.061	911.52
451.519	907.82
451.978	940.92
452.436	966.47
452.895	921.82
453.353	892.92
453.812	903.37
454.27	899.32
454.729	872.37
455.187	878.87
455.646	889.92
456.104	890.12
456.562	891.87
457.021	875.57
457.479	841.67
457.937	875.62
458.395	901.12
458.854	885.37
459.312	874.52
459.77	886.57
460.228	897.47
460.686	904.67
461.144	909.12
461.602	896.82
462.06	903.27
462.518	915.12
462.976	917.62
463.434	931.12
463.892	939.97
464.35	953.92
464.808	967.47
465.266	972.07
465.724	995.47
466.181	997.37
466.639	988.32
467.097	1032.12
467.555	1062.52
468.012	1050.47
468.47	1066.52
468.928	1101.27
469.385	1131.62
469.843	1145.97
470.3	1128.62
470.758	1174.87
471.215	1182.07
471.673	1217.42
472.13	1247.07
472.588	1281.47
473.045	1267.27
473.503	1284.82
473.96	1345.52
474.417	1357.87
474.875	1427.92
475.332	1483.62
475.789	1500.02
476.246	1545.32
476.704	1605.42
477.161	1653.12
477.618	1686.82
478.075	1786.22
478.532	1912.47
478.989	2063.07
479.446	2263.27
479.903	2382.37
480.36	2614.97
480.817	2772.77
481.274	2969.87
481.731	3261.52
482.188	3483.57
482.645	3770.47
483.102	3995.22
483.558	4293.57
484.015	4481.22
484.472	4493.52
484.929	4361.07
485.385	4166.77
485.842	4061.02
486.299	3867.92
486.755	3519.92
487.212	3148.32
487.668	2840.17
488.125	2636.42
488.582	2442.77
489.038	2349.07
489.494	2270.62
489.951	2217.02
490.407	2154.12
490.864	2122.72
491.32	2090.72
491.776	2060.57
492.233	2056.57
492.689	2032.07
493.145	2007.17
493.602	1991.72
494.058	2028.42
494.514	2064.37
494.97	2059.37
495.426	2086.82
495.882	2093.32
496.338	2100.87
496.794	2189.57
497.251	2188.82
497.707	2207.27
498.163	2201.12
498.618	2206.72
499.074	2216.82
499.53	2256.77
499.986	2297.52
500.442	2321.02
500.898	2321.92
501.354	2367.72
501.809	2375.62
502.265	2409.72
502.721	2508.97
503.177	2571.27
503.632	2460.47
504.088	2471.97
504.543	2692.32
504.999	2535.02
505.455	2248.07
505.91	2151.22
506.366	2123.02
506.821	2116.02
507.277	2106.02
507.732	2110.07
508.187	2109.82
508.643	2121.07
509.098	2125.67
509.553	2139.07
510.009	2178.02
510.464	2224.72
510.919	2245.67
511.375	2268.17
511.83	2293.12
512.285	2341.37
512.74	2390.72
513.195	2425.42
513.65	2471.17
514.105	2505.42
514.56	2522.72
515.015	2559.37
515.47	2593.87
515.925	2578.77
516.38	2580.87
516.835	2561.47
517.29	2550.37
517.745	2555.52
518.2	2522.32
518.655	2456.67
519.109	2413.82
519.564	2402.72
520.019	2385.67
520.474	2344.82
520.928	2329.07
521.383	2319.12
521.838	2323.52
522.292	2289.17
522.747	2260.82
523.201	2253.12
523.656	2233.77
524.11	2227.42
524.565	2217.57
525.019	2221.47
525.474	2233.92
525.928	2232.32
526.382	2203.57
526.837	2178.67
527.291	2190.47
527.745	2195.12
528.2	2193.57
528.654	2158.92
529.108	2163.72
529.562	2184.17
530.016	2172.62
530.47	2186.27
530.925	2159.62
531.379	2191.67
531.833	2228.17
532.287	2201.42
532.741	2192.52
533.195	2195.57
533.649	2188.32
534.103	2185.67
534.556	2172.52
535.01	2190.17
535.464	2185.37
535.918	2194.82
536.372	2210.02
536.826	2199.97
537.279	2185.62
537.733	2186.52
538.187	2199.27
538.64	2196.17
539.094	2202.17
539.548	2239.12
540.001	2237.02
540.455	2254.17
540.908	2263.77
541.362	2275.27
541.815	2292.27
542.269	2336.52
542.722	2345.67
543.175	2356.72
543.629	2373.17
544.082	2395.52
544.536	2427.27
544.989	2420.87
545.442	2439.07
545.895	2423.12
546.349	2422.07
546.802	2442.62
547.255	2434.07
547.708	2454.97
548.161	2485.02
548.614	2478.97
549.067	2486.57
549.52	2464.42
549.973	2445.37
550.426	2443.22
550.879	2404.97
551.332	2401.27
551.785	2424.22
552.238	2449.97
552.691	2446.32
553.144	2499.17
553.596	2517.72
554.049	2555.62
554.502	2610.82
554.955	2665.47
555.407	2698.97
555.86	2678.22
556.313	2633.12
556.765	2624.12
557.218	2576.87
557.67	2583.67
558.123	2547.17
558.576	2521.62
559.028	2519.62
559.48	2552.02
559.933	2539.37
560.385	2463.82
560.838	2386.17
561.29	2307.82
561.742	2301.77
562.195	2261.17
562.647	2241.87
563.099	2241.87
563.551	2231.47
564.004	2252.22
564.456	2234.17
564.908	2184.87
565.36	2136.17
565.812	2097.02
566.264	2084.52
566.716	2052.17
567.168	2016.62
567.62	2028.02
568.072	2013.97
568.524	1982.97
568.976	1989.07
569.428	1963.62
569.88	1956.17
570.332	1970.67
570.784	1964.32
571.235	1947.47
571.687	1965.92
572.139	1963.32
572.59	1987.07
573.042	1997.92
573.494	2001.47
573.945	1976.67
574.397	1922.72
574.849	1927.02
575.3	1923.62
575.752	1896.92
576.203	1888.57
576.655	1908.12
577.106	1865.62
577.557	1858.87
578.009	1861.37
578.46	1863.37
578.912	1838.32
579.363	1845.52
579.814	1845.82
580.265	1848.07
580.717	1852.62
581.168	1857.17
581.619	1864.02
582.07	1881.97
582.521	1864.37
582.972	1874.67
583.423	1880.47
583.875	1926.22
584.326	2015.57
584.777	2176.27
585.227	2394.42
585.678	2543.12
586.129	2576.77
586.58	2628.57
587.031	2679.77
587.482	2834.17
587.933	3295.22
588.384	3039.07
588.834	2523.67
589.285	2155.27
589.736	2117.47
590.186	2108.92
590.637	2098.22
591.088	2039.82
591.538	2023.27
591.989	1998.87
592.439	1991.07
592.89	1980.72
593.34	1985.32
593.791	2002.12
594.241	2004.67
594.692	2031.77
595.142	2001.72
595.593	1967.87
596.043	1974.27
596.493	2000.17
596.943	2047.42
597.394	2023.42
597.844	2003.32
598.294	2031.47
598.744	2096.07
599.195	2192.87
599.645	2317.77
600.095	2439.62
600.545	2555.62
600.995	2675.52
601.445	2754.77
601.895	2899.12
602.345	2986.27
602.795	2927.32
603.245	2799.47
603.695	2646.72
604.145	2505.87
604.594	2370.97
605.044	2261.02
605.494	2117.12
605.944	2003.52
606.393	1971.32
606.843	1940.57
607.293	1937.62
607.743	1938.47
608.192	1961.52
608.642	1947.82
609.091	1954.47
609.541	1951.87
609.99	1956.27
610.44	1917.67
610.889	1890.12
611.339	1862.37
611.788	1852.07
612.238	1875.62
612.687	1894.27
613.136	1918.22
613.586	1955.77
614.035	1935.02
614.484	1971.47
614.933	1981.32
615.383	1935.87
615.832	1868.22
616.281	1840.32
616.73	1785.32
617.179	1735.17
617.628	1696.42
618.077	1674.32
618.526	1645.17
618.975	1630.92
619.424	1612.52
619.873	1613.17
620.322	1596.72
620.771	1596.87
621.22	1567.42
621.669	1538.82
622.118	1526.32
622.567	1516.67
623.015	1484.12
623.464	1492.42
623.913	1468.77
624.361	1474.92
624.81	1463.92
625.259	1462.67
625.707	1445.07
626.156	1453.97
626.604	1466.12
627.053	1470.92
627.501	1469.32
627.95	1472.62
628.398	1489.17
628.847	1472.62
629.295	1486.57
629.744	1499.07
630.192	1538.37
630.64	1645.12
631.089	1803.12
631.537	1872.37
631.985	1878.77
632.433	1950.92
632.881	1955.32
633.33	2333.22
633.778	2546.57
634.226	1796.77
634.674	1681.12
635.122	1655.57
635.57	1691.37
636.018	1963.62
636.466	1597.92
636.914	1430.07
637.362	1432.27
637.81	1446.67
638.258	1494.02
638.705	1508.07
639.153	1545.22
639.601	1559.87
640.049	1585.12
640.497	1621.82
640.944	1676.37
641.392	1589.77
641.84	1505.42
642.287	1449.47
642.735	1423.62
643.182	1408.42
643.63	1404.97
644.078	1408.82
644.525	1436.57
644.973	1461.37
645.42	1479.22
645.867	1495.77
646.315	1518.12
646.762	1586.17
647.21	1612.37
647.657	1704.32
648.104	1769.67
648.551	1814.32
648.999	1974.52
649.446	2153.07
649.893	2415.37
650.34	2835.12
650.787	3512.67
651.234	4526.27
651.682	6322.07
652.129	8973.37
652.576	12837.47
653.023	15536.92
653.47	15540.12
653.917	15540.17
654.363	15540.07
654.81	15537.07
655.257	15537.72
655.704	15541.52
656.151	9743.32
656.598	6349.07
657.044	4523.22
657.491	3546.77
657.938	2872.22
658.385	2435.37
658.831	2165.82
659.278	1941.02
659.724	1774.97
660.171	1656.77
660.618	1535.87
661.064	1453.72
661.511	1411.92
661.957	1362.32
662.404	1333.22
662.85	1331.47
663.296	1316.67
663.743	1280.07
664.189	1268.97
664.635	1258.32
665.082	1244.27
665.528	1228.37
665.974	1201.27
666.42	1180.67
666.867	1195.17
667.313	1203.62
667.759	1248.97
668.205	1255.32
668.651	1260.77
669.097	1236.17
669.543	1333.87
669.989	1261.17
670.435	1118.82
670.881	1115.12
671.327	1154.47
671.773	1232.27
672.219	1330.12
672.665	1412.12
673.11	1458.42
673.556	1476.32
674.002	1510.12
674.448	1522.87
674.893	1306.87
675.339	1131.92
675.785	1043.27
676.23	1001.17
676.676	958.52
677.122	938.02
677.567	902.87
678.013	874.77
678.458	881.47
678.904	873.77
679.349	862.37
679.794	862.82
680.24	857.72
680.685	854.22
681.131	860.92
681.576	860.32
682.021	869.42
682.466	864.17
682.912	879.82
683.357	921.97
683.802	1001.07
684.247	1103.02
684.692	1160.52
685.137	1212.97
685.583	1237.22
686.028	1296.07
686.473	1223.62
686.918	1055.17
687.363	969.12
687.807	928.52
688.252	878.47
688.697	845.67
689.142	831.82
689.587	826.62
690.032	849.62
690.477	876.47
690.921	918.52
691.366	966.57
691.811	1012.07
692.255	1093.02
692.7	1330.82
693.145	1931.92
693.589	2945.17
694.034	3481.07
694.478	3682.47
694.923	3362.77
695.367	4801.77
695.812	2908.27
696.256	1225.47
696.701	905.57
697.145	842.27
697.59	815.42
698.034	800.67
698.478	798.92
698.922	809.42
699.367	826.92
699.811	868.62
700.255	932.07
700.699	1024.62
701.143	1115.52
701.588	1176.52
702.032	1220.12
702.476	1252.57
702.92	1330.97
703.364	1764.67
703.808	2687.52
704.252	3345.97
704.696	3516.52
705.14	3299.87
705.584	4540.92
706.027	2516.62
706.471	1267.72
706.915	948.37
707.359	850.87
707.803	794.27
708.246	766.57
708.69	756.52
709.134	757.02
709.577	752.32
710.021	767.52
710.465	756.22
710.908	752.67
711.352	790.97
711.795	862.52
712.239	936.67
712.682	956.12
713.126	954.52
713.569	1052.07
714.012	866.17
714.456	762.92
714.899	715.82
715.342	676.92
715.786	649.97
716.229	628.32
716.672	624.12
717.115	618.32
717.558	624.27
718.002	644.37
718.445	673.57
718.888	707.17
719.331	721.92
719.774	738.72
720.217	716.32
720.66	671.62
721.103	639.12
721.546	607.27
721.989	592.27
722.432	589.02
722.874	589.87
723.317	595.82
723.76	643.82
724.203	793.42
724.645	1057.97
725.088	1231.47
725.531	1200.97
725.974	1324.12
726.416	1177.67
726.859	732.17
727.301	612.52
727.744	582.57
728.187	580.97
728.629	591.02
729.071	616.92
729.514	643.12
729.956	667.37
730.399	680.67
730.841	680.82
731.283	666.87
731.726	640.42
732.168	652.82
732.61	692.67
733.053	744.42
733.495	819.42
733.937	911.97
734.379	1082.22
734.821	1382.92
735.263	2207.97
735.705	3985.52
736.148	5812.97
736.59	5760.82
737.032	6223.92
737.474	5115.27
737.916	1964.72
738.357	1041.37
738.799	802.97
739.241	740.07
739.683	743.32
740.125	755.22
740.567	750.12
741.008	800.57
741.45	827.12
741.892	857.47
742.334	847.67
742.775	846.17
743.217	795.67
743.658	688.92
744.1	702.32
744.542	779.17
744.983	809.47
745.425	856.62
745.866	844.52
746.307	753.92
746.749	818.32
747.19	1198.77
747.632	2359.57
748.073	4359.07
748.514	5953.72
748.956	7910.42
749.397	9168.37
749.838	6330.82
750.279	6024.52
750.72	3091.12
751.162	1312.97
751.603	749.72
752.044	603.92
752.485	533.22
752.926	499.12
753.367	481.37
753.808	475.32
754.249	465.12
754.69	461.02
755.131	454.92
755.572	455.82
756.013	452.57
756.453	461.12
756.894	463.17
757.335	472.67
757.776	469.52
758.216	491.77
758.657	515.47
759.098	573.07
759.538	696.67
759.979	1007.32
760.42	2063.77
760.86	5297.17
761.301	10806.27
761.741	12491.17
762.182	14258.87
762.622	9228.92
763.063	3340.87
763.503	1469.17
763.943	1097.47
764.384	1169.17
764.824	1096.37
765.264	1089.07
765.705	779.37
766.145	575.52
766.585	508.07
767.025	540.82
767.465	697.27
767.906	835.07
768.346	873.57
768.786	910.52
769.226	952.82
769.666	1680.82
770.106	3652.17
770.546	5117.82
770.986	5713.72
771.426	4321.42
771.866	1806.82
772.306	821.22
772.745	519.97
773.185	449.62
773.625	447.42
774.065	525.97
774.505	851.72
774.944	1700.82
775.384	2503.82
775.824	2869.37
776.263	2334.82
776.703	1151.62
777.142	588.37
777.582	407.87
778.021	369.87
778.461	349.57
778.9	332.82
779.34	317.07
779.779	303.02
780.219	291.12
780.658	286.22
781.097	281.32
781.537	273.77
781.976	277.97
782.415	273.87
782.855	273.27
783.294	274.67
783.733	268.62
784.172	276.07
784.611	272.12
785.05	276.72
785.489	286.22
785.928	290.92
786.367	302.07
786.806	320.07
787.245	336.92
787.684	349.17
788.123	344.52
788.562	333.07
789.001	316.82
789.44	307.47
789.879	308.97
790.317	315.17
790.756	333.02
791.195	379.77
791.634	515.37
792.072	941.77
792.511	2327.92
792.95	4238.82
793.388	5071.87
793.827	3267.37
794.265	1493.37
794.704	715.07
795.142	441.02
795.581	367.52
796.019	328.22
796.458	327.87
796.896	338.97
797.334	388.72
797.773	529.47
798.211	1017.07
798.649	2106.17
799.087	3526.62
799.526	4973.17
799.964	5091.47
800.402	3463.12
800.84	1573.32
801.278	769.72
801.716	467.77
802.154	385.07
802.592	364.52
803.03	362.67
803.468	368.92
803.906	370.57
804.344	364.92
804.782	353.57
805.22	358.02
805.658	367.97
806.096	396.87
806.533	439.37
806.971	560.42
807.409	817.87
807.847	1661.02
808.284	4226.17
808.722	7309.67
809.16	10252.82
809.597	13829.77
810.035	15542.07
810.472	10965.17
810.91	4667.52
811.347	2081.72
811.785	977.52
812.222	617.02
812.66	474.42
813.097	404.67
813.535	355.87
813.972	319.47
814.409	292.97
814.846	284.32
815.284	266.77
815.721	272.02
816.158	289.12
816.595	375.02
817.032	449.82
817.47	416.37
817.907	328.62
818.344	291.02
818.781	281.57
819.218	322.52
819.655	467.82
820.092	592.67
820.529	551.27
820.966	449.62
821.403	335.77
821.839	296.72
822.276	312.02
822.713	355.72
823.15	340.72
823.587	377.47
824.023	685.42
824.46	1728.17
824.897	2968.27
825.333	2289.57
825.77	1047.12
826.206	551.37
826.643	327.02
827.08	243.92
827.516	213.87
827.953	201.07
828.389	191.32
828.825	180.27
829.262	180.07
829.698	169.52
830.135	159.57
830.571	160.27
831.007	167.22
831.443	166.67
831.88	166.82
832.316	174.82
832.752	172.02
833.188	165.12
833.624	169.12
834.06	171.42
834.497	174.12
834.933	180.97
835.369	194.52
835.805	204.02
836.241	209.27
836.677	237.77
837.112	275.27
837.548	339.07
837.984	506.37
838.42	1091.37
838.856	3030.02
839.292	5917.12
839.727	4323.32
840.163	2961.02
840.599	4523.32
841.034	6822.57
841.47	3374.77
841.906	1655.42
842.341	927.07
842.777	797.97
843.212	918.07
843.648	546.42
844.083	349.32
844.519	240.87
844.954	190.92
845.39	167.72
845.825	158.27
846.261	155.22
846.696	148.17
847.131	137.62
847.566	144.02
848.002	148.82
848.437	161.77
848.872	164.57
849.307	208.02
849.742	374.72
850.177	995.62
850.613	2083.47
851.048	1468.32
851.483	680.57
851.918	379.77
852.353	224.97
852.788	177.27
853.223	147.77
853.657	130.12
854.092	124.72
854.527	118.52
854.962	125.52
855.397	130.22
855.832	116.17
856.266	105.02
856.701	108.67
857.136	112.72
857.57	129.62
858.005	147.77
858.44	132.22
858.874	128.37
859.309	133.27
859.743	128.32
860.178	123.87
860.612	136.27
861.047	176.77
861.481	219.67
861.915	155.82
862.35	122.17
862.784	107.72
863.218	99.82
863.653	108.92
864.087	131.77
864.521	171.42
864.955	290.47
865.39	482.02
865.824	349.22
866.258	404.07
866.692	573.17
867.126	413.67
867.56	230.72
867.994	158.32
868.428	135.17
868.862	162.37
869.296	152.52
869.73	179.77
870.164	154.97
870.598	142.62
871.031	104.92
871.465	97.82
871.899	83.77
872.333	72.82
872.766	78.22
873.2	79.77
873.634	78.52
874.067	83.32
874.501	80.92
874.935	82.67
875.368	83.77
875.802	81.42
876.235	69.07
876.669	73.37
877.102	67.82
877.535	65.27
877.969	62.92
878.402	63.67
878.836	62.17
879.269	58.37
879.702	61.02
880.135	67.97
880.569	74.02
881.002	66.82
881.435	63.42
881.868	63.67
882.301	58.47
882.734	56.12
883.167	58.57
883.601	62.82
884.034	54.47
884.467	50.22
884.899	51.97
885.332	53.82
885.765	57.82
886.198	53.42
886.631	51.27
887.064	51.62
887.497	53.17
887.929	48.62
888.362	52.72
888.795	51.07
889.228	57.07
889.66	52.12
890.093	48.37
890.526	49.77
890.958	45.82
891.391	50.52
891.823	47.92
892.256	50.02
892.688	48.42
893.121	44.42
893.553	47.02
893.985	43.62
894.418	42.22
894.85	47.32
895.282	45.97
895.715	39.87
896.147	44.22
896.579	41.22
897.011	41.02
897.444	45.17
897.876	37.62
898.308	40.42
898.74	44.32
899.172	44.77
899.604	47.02
900.036	44.12
900.468	39.32
900.9	49.72
901.332	59.77
901.764	60.67
902.196	57.02
902.628	53.47
903.06	77.87
903.491	80.82
903.923	68.32
904.355	74.62
904.787	78.07
905.218	64.07
905.65	61.72
906.082	58.77
906.513	56.32
906.945	54.52
907.376	62.42
907.808	63.22
908.239	63.42
908.671	66.07
909.102	74.52
909.534	99.57
909.965	200.27
910.397	492.22
910.828	1392.47
911.259	837.97
911.691	452.67
912.122	271.47
912.553	136.97
912.984	75.32
913.415	68.42
913.847	62.07
914.278	56.57
914.709	46.27
915.14	44.67
915.571	53.67
916.002	52.72
916.433	43.77
916.864	45.42
917.295	46.67
917.726	52.42
918.157	66.92
918.587	67.82
919.018	60.52
919.449	62.62
919.88	74.52
920.311	109.82
920.741	294.67
921.172	513.37
921.603	258.87
922.033	163.52
922.464	110.07
922.895	68.37
923.325	50.47
923.756	50.22
924.186	73.12
924.617	109.97
925.047	170.32
925.478	157.77
925.908	110.02
926.338	84.27
926.769	58.07
927.199	48.77
927.629	42.12
928.06	50.67
928.49	47.02
928.92	37.92
929.35	33.67
929.78	30.67
930.21	27.32
930.641	24.62
931.071	25.12
931.501	25.42
931.931	21.82
932.361	23.62
932.791	27.97
933.221	29.07
933.651	42.82
934.08	71.12
934.51	42.77
934.94	34.37
935.37	30.52
935.8	25.17
936.229	20.62
936.659	19.57
937.089	35.52
937.519	46.62
937.948	68.67
938.378	41.17
938.807	31.17
939.237	23.62
939.666	17.77
940.096	15.02
940.525	12.47
940.955	17.32
941.384	15.12
941.814	12.72
942.243	15.32
942.672	10.87
943.102	11.97
943.531	11.17
943.96	12.32
944.39	12.72
944.819	15.57
945.248	15.87
945.677	9.87
946.106	11.62
946.535	15.02
946.964	12.72
947.393	6.87
947.822	13.47
948.251	17.02
948.68	17.77
949.109	13.92
949.538	12.52
949.967	12.87
950.396	14.27
950.825	15.07
951.254	13.62
951.682	6.67
952.111	4.42
952.54	13.22
952.969	10.27
953.397	8.02
953.826	7.87
954.254	9.82
954.683	12.87
955.112	14.92
955.54	8.47
955.969	9.17
956.397	10.82
956.826	9.22
957.254	7.77
957.682	9.32
958.111	8.62
958.539	10.37
958.967	8.57
959.396	13.42
959.824	8.22
960.252	11.02
960.68	7.07
961.109	10.32
961.537	13.97
961.965	3.47
962.393	10.37
962.821	10.07
963.249	12.72
963.677	17.02
964.105	90.47
964.533	152.77
964.961	74.27
965.389	44.32
965.817	23.72
966.245	15.47
966.672	8.27
967.1	10.77
967.528	7.87
967.956	5.27
968.383	9.42
968.811	5.57
969.239	11.12
969.666	6.67
970.094	7.52
970.522	4.17
970.949	5.32
971.377	-2.88
971.804	5.22
972.232	3.37
972.659	5.02
973.087	9.97
973.514	1.72
973.941	3.22
974.369	2.72
974.796	5.02
975.223	2.87
975.651	8.67
976.078	9.67
976.505	13.97
976.932	37.62
977.359	44.32
977.786	26.47
978.214	15.67
978.641	8.72
979.068	12.37
979.495	7.67
979.922	6.27
980.349	7.97
980.776	7.32
981.202	3.12
981.629	8.52
982.056	7.97
982.483	-1.53
982.91	7.52
983.337	0.72
983.763	5.32
984.19	5.62
984.617	2.32
985.043	8.77
985.47	10.77
985.897	8.52
986.323	11.67
986.75	2.32
987.176	5.57
987.603	9.62
988.029	5.02
988.456	12.22
988.882	1.22
989.308	-2.18
989.735	5.67
990.161	5.02
990.587	2.82
991.014	3.97
991.44	5.37
991.866	0.67
992.292	5.02
992.719	-0.88
993.145	5.87
993.571	4.47
993.997	10.27
994.423	9.02
994.849	0.77
995.275	4.77
995.701	4.12
996.127	2.22
996.553	1.32
996.979	1.52
997.405	6.22
997.83	2.92
998.256	4.67
998.682	2.17
999.108	7.37
999.534	-0.13
999.959	4.17
1000.385	5.12
1000.811	-0.18
1001.236	0.17
1001.662	6.32
1002.087	8.27
1002.513	2.87
1002.938	4.92
1003.364	6.02
1003.789	5.32
1004.215	3.87
1004.64	0.77
1005.066	8.27
1005.491	7.42
1005.916	10.97
1006.342	7.12
1006.767	3.92
1007.192	9.07
1007.617	4.17
1008.042	3.77
1008.468	3.27
1008.893	7.17
1009.318	9.97
1009.743	12.12
1010.168	20.82
1010.593	23.77
1011.018	13.87
1011.443	9.62
1011.868	9.27
1012.293	6.47
1012.718	5.67
1013.143	0.77
1013.567	9.27
1013.992	3.57
1014.417	5.12
1014.842	-2.13
1015.267	5.62
1015.691	5.77
1016.116	3.87
1016.541	5.67
1016.965	7.02
1017.39	4.12
1017.814	-0.78
1018.239	1.72
1018.663	-2.48
1019.088	0.12
1019.512	6.47
1019.937	-2.98
1020.361	4.97
1020.785	0.52
1021.21	0.62
1021.634	-0.03
1022.058	5.72
1022.483	-3.48
1022.907	-0.28
1023.331	-2.63
1023.755	0.52
1024.179	-0.78
1024.604	1.27
1025.028	4.47
1025.452	5.52
1025.876	8.17
1026.3	4.72
1026.724	-2.48
1027.148	0.42
1027.572	0.57
1027.996	6.47
1028.42	-1.08
1028.843	2.22
1029.267	-0.08
1029.691	6.67
1030.115	-0.83
1030.539	-0.23
1030.962	-0.23
1031.386	2.42
1031.81	4.37
1032.233	-0.73
1032.657	-2.88
1033.08	4.57
1033.504	4.32
1033.927	-3.68
1034.351	1.72
1034.774	6.02
1035.198	-2.98
1035.621	1.52
1036.045	-0.53
1036.468	6.47
1036.891	-0.43
1037.315	8.17
1037.738	0.62
1038.161	3.12
1038.584	-0.58
1039.008	-1.23
1039.431	0.12
1039.854	-6.63
1040.277	1.07
1040.7	0.92
1041.123	2.12
1041.546	-0.53
1041.969	0.17
1042.392	5.77
1042.815	-2.88
1043.238	-0.63
1043.661	0.72
1044.084	1.42
1044.507	-0.08
1044.93	0.67
1045.352	-1.18
1045.775	5.27
1046.198	3.87
1046.621	8.77
1047.043	0.47
1047.466	6.12
1047.889	2.77
1048.311	5.97
1048.734	1.32
1049.156	-1.78
1049.579	-2.38
1050.001	2.67
1050.424	-1.33
1050.846	0.07
1051.269	-3.83
1051.691	2.57
1052.113	0.47
1052.536	-0.88
1052.958	-5.68
1053.38	0.82
1053.802	0.02
1054.225	3.02
1054.647	2.62
1055.069	3.67
1055.491	1.12
1055.913	-1.08
1056.335	-10.08
1056.757	-4.43
1057.179	-1.88
1057.601	-3.03
1058.023	-0.58
1058.445	-2.88
1058.867	0.17
1059.289	2.12
1059.711	0.12
1060.133	-1.38
1060.555	-2.03
1060.976	5.12
1061.398	1.37
1061.82	-1.13
1062.241	-0.68
1062.663	-3.33
1063.085	-4.28
1063.506	-4.78
1063.928	-2.83
1064.35	2.37
1064.771	-0.78
1065.193	-3.38
1065.614	-3.43
1066.035	2.97
1066.457	3.27
1066.878	-0.53
1067.3	-2.48
1067.721	1.17
1068.142	5.77
1068.564	4.17
1068.985	0.87
1069.406	-3.58
1069.827	-1.78
1070.248	-1.63
1070.67	-1.23
1071.091	-4.93
1071.512	-1.78
1071.933	-0.38
1072.354	-5.73
1072.775	-3.13
1073.196	2.62
1073.617	-4.73
1074.038	-1.28
1074.459	-3.48
1074.88	-0.93
1075.3	-1.83
1075.721	5.67
1076.142	-3.68
1076.563	-3.73
1076.983	-0.63
1077.404	-4.58
1077.825	2.42
1078.246	-2.18
1078.666	0.72
1079.087	-6.68
1079.507	-4.93
1079.928	0.72
1080.348	-2.88
1080.769	1.37
1081.189	-5.08
1081.61	-1.93
1082.03	-0.48
1082.451	2.77
1082.871	-5.93
1083.291	-1.33
1083.711	1.47
1084.132	-1.53
1084.552	-3.33
1084.972	-6.03
1085.392	-3.58
1085.813	0.87
1086.233	-0.73
1086.653	1.87
1087.073	2.47
1087.493	-3.48
1087.913	-6.03
1088.333	-3.33
1088.753	1.77
1089.173	2.97
1089.593	0.02
1090.013	-2.03
1090.433	-9.58
1090.852	1.62
1091.272	-3.08
1091.692	1.07
1092.112	3.27
1092.531	-5.08
1092.951	0.52
1093.371	1.02
1093.79	-5.78
1094.21	-0.73
1094.63	-1.38
1095.049	-6.33
1095.469	-8.38
1095.888	2.32
1096.308	0.22
1096.727	-4.98
1097.146	0.82
1097.566	-1.18
1097.985	-0.88
1098.405	0.47
1098.824	-1.03
1099.243	-1.63
1099.662	-1.48
1100.082	-3.43
1100.501	-1.13
1100.92	4.92
1101.339	-1.38
1101.758	1.47
