Data from 20170809-ORNL-Trin_Subt14_13-09-36-020.txt Node
Date: Wed Aug 09 13:09:36 EDT 2017
User: Ender
Spectrometer: HR+D1039
Trigger mode: 0
Integration Time (sec): 1.442000E-2
Scans to average: 5
Electric dark correction enabled: true
Nonlinearity correction enabled: false
Boxcar width: 0
XAxis mode: Wavelengths
Number of Pixels in Spectrum: 2048
>>>>>Begin Spectral Data<<<<<
187.836	6.09
188.309	6.09
188.782	6.09
189.255	-2.11
189.728	-2.71
190.201	1.09
190.674	1.89
191.147	10.89
191.619	2.49
192.092	4.09
192.565	-5.31
193.038	4.09
193.511	3.09
193.984	-2.11
194.456	-3.11
194.929	1.29
195.402	-11.51
195.874	-8.11
196.347	-3.91
196.82	1.89
197.292	1.49
197.765	3.69
198.237	2.49
198.71	0.09
199.182	1.29
199.655	7.49
200.127	-2.91
200.6	0.09
201.072	4.09
201.544	6.09
202.017	9.69
202.489	4.69
202.961	-7.91
203.433	-4.91
203.906	-1.71
204.378	4.29
204.85	1.09
205.322	6.29
205.794	11.89
206.266	9.49
206.739	9.89
207.211	19.89
207.683	9.29
208.155	-14.31
208.627	9.29
209.099	4.29
209.57	-3.51
210.042	4.29
210.514	9.29
210.986	1.09
211.458	6.49
211.93	1.49
212.402	4.89
212.873	-1.31
213.345	2.69
213.817	5.09
214.288	9.49
214.76	10.49
215.232	4.69
215.703	11.09
216.175	12.89
216.646	10.09
217.118	4.69
217.589	15.29
218.061	21.69
218.532	-4.51
219.004	3.49
219.475	4.49
219.946	7.49
220.418	9.29
220.889	7.49
221.36	11.29
221.832	3.29
222.303	4.09
222.774	11.49
223.245	8.49
223.717	24.49
224.188	9.49
224.659	11.29
225.13	-0.11
225.601	4.49
226.072	18.69
226.543	5.29
227.014	12.29
227.485	13.09
227.956	14.09
228.427	8.49
228.898	19.89
229.369	9.49
229.839	22.89
230.31	19.09
230.781	7.69
231.252	21.49
231.722	9.49
232.193	18.89
232.664	18.89
233.135	26.49
233.605	19.89
234.076	28.29
234.546	23.09
235.017	18.29
235.487	20.09
235.958	23.69
236.428	22.29
236.899	21.89
237.369	24.09
237.84	19.29
238.31	17.49
238.78	29.09
239.251	13.29
239.721	16.69
240.191	21.29
240.662	33.29
241.132	20.49
241.602	42.09
242.072	36.29
242.542	23.49
243.013	30.69
243.483	30.69
243.953	25.49
244.423	25.89
244.893	19.89
245.363	26.09
245.833	27.29
246.303	28.49
246.773	46.09
247.243	48.69
247.712	36.69
248.182	46.69
248.652	34.49
249.122	38.49
249.592	30.09
250.061	34.29
250.531	43.09
251.001	45.89
251.471	38.49
251.94	32.09
252.41	41.69
252.879	40.89
253.349	47.29
253.818	36.49
254.288	41.89
254.757	45.89
255.227	41.69
255.696	41.09
256.166	43.49
256.635	31.89
257.105	48.69
257.574	45.09
258.043	58.09
258.513	49.89
258.982	39.89
259.451	46.89
259.92	44.89
260.389	49.89
260.859	47.69
261.328	52.49
261.797	47.49
262.266	50.69
262.735	54.09
263.204	68.89
263.673	39.09
264.142	63.89
264.611	51.29
265.08	54.69
265.549	49.69
266.018	62.29
266.487	59.89
266.955	59.49
267.424	40.89
267.893	47.29
268.362	52.69
268.83	67.29
269.299	70.49
269.768	69.49
270.236	69.69
270.705	57.49
271.174	74.89
271.642	67.69
272.111	69.29
272.579	70.69
273.048	66.09
273.516	68.89
273.985	77.49
274.453	80.89
274.922	85.09
275.39	80.29
275.858	69.89
276.327	66.69
276.795	87.89
277.263	66.69
277.731	84.29
278.2	72.09
278.668	72.89
279.136	75.29
279.604	69.69
280.072	88.69
280.54	85.69
281.008	86.09
281.477	74.49
281.945	79.89
282.413	89.09
282.881	83.49
283.348	99.09
283.816	97.69
284.284	77.09
284.752	91.89
285.22	77.69
285.688	88.09
286.156	96.69
286.623	103.69
287.091	90.29
287.559	97.09
288.026	90.49
288.494	90.49
288.962	103.09
289.429	102.09
289.897	100.09
290.364	112.89
290.832	103.49
291.3	98.69
291.767	109.89
292.234	126.69
292.702	97.69
293.169	110.09
293.637	115.69
294.104	105.09
294.571	106.29
295.039	109.09
295.506	101.89
295.973	107.29
296.44	118.29
296.908	113.09
297.375	127.49
297.842	120.09
298.309	119.49
298.776	119.69
299.243	120.29
299.71	105.49
300.177	117.29
300.644	124.69
301.111	121.09
301.578	135.09
302.045	116.89
302.512	130.49
302.979	129.09
303.446	140.29
303.913	145.69
304.379	148.49
304.846	144.09
305.313	152.49
305.78	141.89
306.246	147.09
306.713	142.09
307.18	150.09
307.646	151.89
308.113	150.09
308.579	156.29
309.046	163.69
309.512	149.09
309.979	160.09
310.445	175.29
310.912	173.09
311.378	157.09
311.845	171.49
312.311	182.29
312.777	166.49
313.244	172.89
313.71	161.49
314.176	182.69
314.642	180.49
315.109	176.09
315.575	169.49
316.041	192.69
316.507	197.09
316.973	184.49
317.439	190.09
317.905	192.89
318.371	202.89
318.837	186.49
319.303	199.29
319.769	193.29
320.235	197.89
320.701	194.09
321.167	201.69
321.633	211.29
322.099	205.89
322.564	214.49
323.03	214.89
323.496	213.29
323.962	211.89
324.427	218.09
324.893	221.29
325.359	223.29
325.824	230.49
326.29	228.49
326.755	227.09
327.221	225.49
327.686	221.09
328.152	242.09
328.617	245.69
329.083	230.49
329.548	245.69
330.014	260.89
330.479	230.89
330.944	249.29
331.41	248.89
331.875	250.49
332.34	260.69
332.805	251.49
333.271	257.69
333.736	264.69
334.201	260.69
334.666	266.29
335.131	263.49
335.596	270.29
336.061	262.69
336.526	278.89
336.991	285.69
337.456	254.09
337.921	270.09
338.386	269.09
338.851	277.49
339.316	269.89
339.781	272.89
340.246	271.49
340.711	272.49
341.175	286.89
341.64	300.29
342.105	297.09
342.569	297.69
343.034	311.69
343.499	307.49
343.963	305.49
344.428	320.09
344.893	317.69
345.357	326.89
345.822	320.09
346.286	337.49
346.751	347.49
347.215	349.89
347.679	366.49
348.144	375.09
348.608	368.29
349.073	370.69
349.537	373.69
350.001	390.49
350.465	386.69
350.93	400.89
351.394	391.49
351.858	396.69
352.322	411.49
352.786	419.49
353.25	410.69
353.715	422.89
354.179	439.29
354.643	454.49
355.107	447.89
355.571	430.49
356.035	437.69
356.498	427.69
356.962	435.09
357.426	433.09
357.89	423.89
358.354	416.49
358.818	408.09
359.281	417.69
359.745	435.89
360.209	425.29
360.673	420.89
361.136	436.49
361.6	436.29
362.064	443.69
362.527	455.49
362.991	464.49
363.454	436.09
363.918	449.89
364.381	460.09
364.845	455.29
365.308	454.49
365.772	452.09
366.235	467.49
366.698	470.49
367.162	464.09
367.625	477.89
368.088	474.29
368.552	469.09
369.015	473.29
369.478	484.69
369.941	488.89
370.404	497.09
370.867	486.69
371.331	492.49
371.794	503.29
372.257	506.29
372.72	507.69
373.183	501.89
373.646	511.49
374.109	534.69
374.572	528.89
375.035	534.09
375.497	521.29
375.96	529.49
376.423	546.49
376.886	555.89
377.349	547.89
377.811	554.69
378.274	554.29
378.737	570.29
379.199	571.69
379.662	591.49
380.125	594.29
380.587	596.69
381.05	586.49
381.512	611.49
381.975	598.89
382.437	626.69
382.9	623.09
383.362	628.89
383.825	632.49
384.287	621.89
384.75	632.29
385.212	642.29
385.674	629.29
386.136	630.69
386.599	626.29
387.061	644.69
387.523	640.29
387.985	641.69
388.447	654.89
388.91	635.09
389.372	669.29
389.834	669.89
390.296	652.89
390.758	669.29
391.22	663.29
391.682	667.69
392.144	676.89
392.606	673.09
393.068	701.29
393.529	722.29
393.991	734.09
394.453	693.89
394.915	668.09
395.377	664.89
395.838	662.69
396.3	652.89
396.762	692.69
397.224	706.29
397.685	690.69
398.147	696.69
398.608	726.49
399.07	713.69
399.531	726.09
399.993	747.89
400.454	757.49
400.916	743.69
401.377	752.49
401.839	775.29
402.3	769.09
402.762	787.29
403.223	858.09
403.684	842.49
404.145	784.49
404.607	765.09
405.068	762.69
405.529	772.49
405.99	787.29
406.451	800.69
406.913	784.89
407.374	783.69
407.835	781.89
408.296	806.29
408.757	796.09
409.218	813.29
409.679	844.69
410.14	852.89
410.601	892.69
411.062	895.49
411.522	899.09
411.983	928.49
412.444	942.69
412.905	959.29
413.366	1000.29
413.826	1064.09
414.287	1213.49
414.748	1433.29
415.208	1391.89
415.669	1170.89
416.13	1091.89
416.59	1099.09
417.051	1122.89
417.511	1172.69
417.972	1277.09
418.432	1371.29
418.893	1524.89
419.353	1361.89
419.814	1041.09
420.274	971.49
420.734	975.69
421.195	992.69
421.655	971.09
422.115	1013.09
422.576	1007.29
423.036	1030.89
423.496	1052.69
423.956	1061.49
424.416	1146.49
424.876	1262.89
425.336	1237.29
425.797	1214.09
426.257	1185.29
426.717	1079.89
427.177	994.29
427.637	990.09
428.097	1015.69
428.556	1064.49
429.016	1125.69
429.476	1084.49
429.936	1033.09
430.396	1032.09
430.856	1041.49
431.315	1040.49
431.775	1126.49
432.235	1229.09
432.694	1219.89
433.154	1142.09
433.614	1135.29
434.073	1091.09
434.533	1001.29
434.993	992.09
435.452	1012.49
435.912	1018.49
436.371	1018.89
436.83	1007.89
437.29	1008.49
437.749	1010.69
438.209	1031.09
438.668	1040.09
439.127	1071.09
439.587	1046.09
440.046	1011.69
440.505	1026.89
440.964	1049.89
441.424	1098.49
441.883	1101.29
442.342	1053.49
442.801	1021.69
443.26	1051.89
443.719	1062.89
444.178	1062.49
444.637	1051.49
445.096	1060.49
445.555	1068.69
446.014	1073.09
446.473	1075.09
446.932	1078.09
447.391	1090.29
447.849	1112.29
448.308	1069.09
448.767	1093.49
449.226	1121.69
449.685	1115.49
450.143	1154.29
450.602	1146.29
451.061	1105.09
451.519	1099.49
451.978	1086.29
452.436	1080.49
452.895	1073.29
453.353	1073.09
453.812	1071.29
454.27	1081.29
454.729	1077.29
455.187	1101.29
455.646	1089.69
456.104	1105.69
456.562	1111.89
457.021	1142.49
457.479	1087.29
457.937	1128.89
458.395	1158.49
458.854	1116.09
459.312	1093.69
459.77	1112.09
460.228	1122.69
460.686	1161.49
461.144	1139.89
461.602	1147.49
462.06	1149.09
462.518	1155.69
462.976	1166.29
463.434	1179.89
463.892	1166.29
464.35	1182.09
464.808	1200.09
465.266	1200.89
465.724	1231.69
466.181	1223.89
466.639	1230.49
467.097	1256.09
467.555	1316.09
468.012	1319.89
468.47	1325.69
468.928	1363.29
469.385	1385.89
469.843	1395.89
470.3	1391.49
470.758	1442.89
471.215	1418.29
471.673	1474.69
472.13	1511.69
472.588	1542.49
473.045	1529.89
473.503	1562.29
473.96	1600.29
474.417	1578.89
474.875	1653.29
475.332	1694.69
475.789	1708.29
476.246	1722.29
476.704	1777.89
477.161	1763.69
477.618	1771.29
478.075	1798.69
478.532	1846.69
478.989	1905.69
479.446	1978.69
479.903	1927.49
480.36	1990.69
480.817	1995.89
481.274	2001.69
481.731	2046.09
482.188	2072.89
482.645	2125.49
483.102	2133.69
483.558	2212.89
484.015	2226.29
484.472	2188.09
484.929	2240.69
485.385	2229.09
485.842	2219.49
486.299	2259.09
486.755	2276.49
487.212	2208.29
487.668	2173.09
488.125	2173.29
488.582	2121.89
489.038	2143.89
489.494	2182.09
489.951	2173.49
490.407	2149.29
490.864	2179.09
491.32	2177.29
491.776	2171.69
492.233	2241.89
492.689	2204.09
493.145	2197.09
493.602	2199.69
494.058	2202.69
494.514	2189.49
494.97	2215.89
495.426	2264.89
495.882	2261.89
496.338	2234.29
496.794	2273.29
497.251	2259.69
497.707	2278.09
498.163	2300.89
498.618	2288.49
499.074	2283.89
499.53	2327.29
499.986	2324.09
500.442	2324.09
500.898	2318.69
501.354	2352.89
501.809	2367.89
502.265	2364.49
502.721	2353.09
503.177	2367.69
503.632	2375.29
504.088	2377.89
504.543	2384.89
504.999	2426.29
505.455	2395.49
505.91	2388.49
506.366	2404.69
506.821	2394.09
507.277	2382.49
507.732	2421.09
508.187	2386.29
508.643	2448.09
509.098	2436.49
509.553	2455.69
510.009	2467.29
510.464	2532.49
510.919	2573.89
511.375	2578.29
511.83	2604.29
512.285	2611.09
512.74	2661.69
513.195	2718.29
513.65	2746.49
514.105	2773.89
514.56	2798.09
515.015	2848.69
515.47	2849.49
515.925	2803.09
516.38	2816.89
516.835	2787.89
517.29	2793.89
517.745	2792.69
518.2	2750.49
518.655	2667.09
519.109	2637.69
519.564	2594.29
520.019	2593.29
520.474	2563.49
520.928	2539.89
521.383	2520.09
521.838	2517.69
522.292	2513.69
522.747	2477.09
523.201	2466.89
523.656	2445.49
524.11	2447.49
524.565	2434.89
525.019	2443.89
525.474	2417.09
525.928	2394.29
526.382	2416.89
526.837	2380.89
527.291	2406.09
527.745	2375.69
528.2	2378.09
528.654	2333.09
529.108	2338.89
529.562	2365.09
530.016	2330.89
530.47	2350.09
530.925	2321.49
531.379	2320.69
531.833	2356.49
532.287	2328.49
532.741	2324.29
533.195	2321.29
533.649	2310.29
534.103	2312.89
534.556	2284.69
535.01	2307.89
535.464	2299.29
535.918	2327.89
536.372	2331.69
536.826	2320.49
537.279	2276.89
537.733	2338.89
538.187	2331.09
538.64	2349.89
539.094	2320.09
539.548	2362.09
540.001	2379.49
540.455	2400.49
540.908	2388.09
541.362	2442.09
541.815	2468.09
542.269	2472.29
542.722	2491.49
543.175	2512.09
543.629	2512.89
544.082	2533.29
544.536	2560.29
544.989	2559.09
545.442	2565.49
545.895	2578.89
546.349	2606.49
546.802	2589.09
547.255	2596.69
547.708	2610.29
548.161	2647.69
548.614	2619.89
549.067	2630.49
549.52	2588.69
549.973	2585.09
550.426	2552.49
550.879	2563.69
551.332	2556.29
551.785	2574.49
552.238	2615.29
552.691	2614.09
553.144	2651.09
553.596	2668.89
554.049	2720.29
554.502	2771.69
554.955	2803.29
555.407	2797.09
555.86	2771.49
556.313	2745.49
556.765	2717.09
557.218	2711.89
557.67	2679.09
558.123	2661.69
558.576	2627.49
559.028	2608.29
559.48	2635.29
559.933	2617.49
560.385	2535.29
560.838	2468.89
561.29	2403.49
561.742	2370.89
562.195	2312.69
562.647	2287.89
563.099	2289.09
563.551	2273.09
564.004	2300.09
564.456	2272.49
564.908	2232.89
565.36	2152.09
565.812	2098.09
566.264	2087.29
566.716	2050.69
567.168	2045.49
567.62	2040.29
568.072	2030.09
568.524	2018.49
568.976	1981.69
569.428	1971.89
569.88	1982.09
570.332	2005.69
570.784	1995.09
571.235	1983.29
571.687	1988.89
572.139	1997.09
572.59	2018.89
573.042	2022.69
573.494	2023.69
573.945	1967.69
574.397	1946.29
574.849	1914.49
575.3	1955.89
575.752	1906.09
576.203	1891.09
576.655	1898.49
577.106	1859.09
577.557	1849.29
578.009	1824.09
578.46	1850.29
578.912	1839.49
579.363	1845.89
579.814	1844.29
580.265	1841.29
580.717	1847.49
581.168	1842.29
581.619	1860.09
582.07	1861.89
582.521	1857.29
582.972	1860.09
583.423	1856.49
583.875	1873.09
584.326	1895.89
584.777	1900.09
585.227	1935.09
585.678	1974.29
586.129	2002.09
586.58	2009.49
587.031	2062.89
587.482	2123.89
587.933	2113.49
588.384	2124.49
588.834	2115.09
589.285	2087.49
589.736	2089.09
590.186	2077.29
590.637	2042.89
591.088	2008.89
591.538	1973.69
591.989	1934.89
592.439	1900.69
592.89	1892.29
593.34	1856.69
593.791	1864.49
594.241	1873.89
594.692	1845.49
595.142	1839.29
595.593	1819.29
596.043	1837.89
596.493	1889.49
596.943	1884.49
597.394	1916.29
597.844	1941.89
598.294	2001.89
598.744	2077.89
599.195	2210.49
599.645	2354.69
600.095	2489.89
600.545	2614.49
600.995	2720.69
601.445	2796.89
601.895	2935.69
602.345	2989.89
602.795	2919.09
603.245	2740.29
603.695	2540.49
604.145	2421.69
604.594	2286.09
605.044	2162.69
605.494	2026.49
605.944	1928.29
606.393	1887.49
606.843	1880.69
607.293	1874.89
607.743	1871.69
608.192	1888.69
608.642	1843.09
609.091	1863.29
609.541	1868.49
609.99	1848.69
610.44	1800.69
610.889	1798.09
611.339	1774.49
611.788	1723.69
612.238	1751.49
612.687	1760.49
613.136	1746.89
613.586	1770.29
614.035	1766.09
614.484	1756.29
614.933	1754.09
615.383	1714.49
615.832	1670.89
616.281	1675.29
616.73	1632.29
617.179	1591.29
617.628	1587.69
618.077	1537.49
618.526	1536.49
618.975	1524.09
619.424	1488.89
619.873	1504.69
620.322	1480.09
620.771	1461.69
621.22	1432.09
621.669	1405.29
622.118	1386.29
622.567	1361.29
623.015	1333.49
623.464	1350.49
623.913	1340.49
624.361	1333.69
624.81	1322.69
625.259	1331.49
625.707	1315.49
626.156	1329.09
626.604	1349.49
627.053	1370.09
627.501	1354.69
627.95	1365.89
628.398	1393.69
628.847	1337.49
629.295	1348.69
629.744	1320.49
630.192	1311.09
630.64	1285.09
631.089	1262.89
631.537	1233.49
631.985	1201.29
632.433	1207.69
632.881	1202.09
633.33	1207.69
633.778	1212.69
634.226	1220.89
634.674	1226.29
635.122	1238.69
635.57	1241.89
636.018	1261.29
636.466	1261.49
636.914	1257.89
637.362	1295.29
637.81	1300.89
638.258	1346.49
638.705	1376.09
639.153	1413.29
639.601	1426.69
640.049	1423.49
640.497	1442.09
640.944	1471.29
641.392	1374.29
641.84	1270.49
642.287	1208.09
642.735	1160.29
643.182	1151.29
643.63	1143.89
644.078	1134.29
644.525	1163.09
644.973	1150.29
645.42	1128.49
645.867	1135.89
646.315	1138.29
646.762	1155.89
647.21	1120.69
647.657	1122.89
648.104	1112.29
648.551	1085.09
648.999	1086.69
649.446	1081.89
649.893	1093.89
650.34	1080.89
650.787	1129.29
651.234	1177.89
651.682	1252.49
652.129	1386.69
652.576	1585.29
653.023	1808.69
653.47	1898.29
653.917	1904.09
654.363	1867.89
654.81	1910.89
655.257	1924.29
655.704	1534.89
656.151	1283.29
656.598	1151.49
657.044	1094.69
657.491	1085.69
657.938	1051.29
658.385	1030.29
658.831	1044.29
659.278	1038.49
659.724	1008.69
660.171	1002.49
660.618	983.09
661.064	968.69
661.511	967.29
661.957	954.49
662.404	972.09
662.85	991.29
663.296	997.09
663.743	971.49
664.189	989.89
664.635	999.09
665.082	1019.29
665.528	997.49
665.974	960.49
666.42	945.29
666.867	957.89
667.313	912.69
667.759	915.29
668.205	905.69
668.651	919.29
669.097	903.29
669.543	913.09
669.989	916.29
670.435	940.69
670.881	940.49
671.327	992.69
671.773	1090.09
672.219	1198.69
672.665	1286.09
673.11	1306.29
673.556	1301.29
674.002	1339.29
674.448	1326.49
674.893	1125.69
675.339	967.89
675.785	903.69
676.23	860.29
676.676	813.89
677.122	789.49
677.567	786.69
678.013	768.29
678.458	767.49
678.904	766.69
679.349	767.89
679.794	745.89
680.24	753.09
680.685	742.29
681.131	746.49
681.576	741.29
682.021	750.89
682.466	760.89
682.912	777.89
683.357	824.29
683.802	907.49
684.247	1010.69
684.692	1077.29
685.137	1116.29
685.583	1135.89
686.028	1154.89
686.473	1077.09
686.918	932.89
687.363	849.09
687.807	813.09
688.252	776.09
688.697	735.09
689.142	728.89
689.587	737.29
690.032	738.29
690.477	782.29
690.921	829.09
691.366	882.69
691.811	918.89
692.255	999.69
692.7	1246.29
693.145	1942.49
693.589	3080.29
694.034	3517.89
694.478	3442.89
694.923	2957.89
695.367	4124.49
695.812	2358.89
696.256	1056.69
696.701	792.69
697.145	728.69
697.59	708.69
698.034	705.49
698.478	686.69
698.922	693.09
699.367	718.89
699.811	756.69
700.255	848.09
700.699	954.09
701.143	1019.89
701.588	1057.69
702.032	1082.29
702.476	1115.09
702.92	1221.89
703.364	1694.29
703.808	2759.29
704.252	3347.29
704.696	3226.69
705.14	2909.49
705.584	3857.69
706.027	2085.69
706.471	1103.29
706.915	810.49
707.359	730.69
707.803	681.29
708.246	664.69
708.69	670.29
709.134	642.69
709.577	651.29
710.021	655.89
710.465	646.89
710.908	641.29
711.352	665.69
711.795	763.29
712.239	846.89
712.682	838.49
713.126	811.29
713.569	876.09
714.012	730.29
714.456	627.49
714.899	600.69
715.342	559.09
715.786	534.29
716.229	541.89
716.672	531.69
717.115	516.69
717.558	528.09
718.002	569.09
718.445	597.49
718.888	621.09
719.331	623.49
719.774	622.89
720.217	611.69
720.66	590.29
721.103	545.09
721.546	525.09
721.989	508.09
722.432	502.49
722.874	494.29
723.317	499.49
723.76	558.69
724.203	733.09
724.645	995.69
725.088	1135.89
725.531	1034.49
725.974	1115.49
726.416	961.49
726.859	612.69
727.301	510.69
727.744	475.49
728.187	500.69
728.629	511.89
729.071	557.49
729.514	564.29
729.956	581.69
730.399	582.49
730.841	578.89
731.283	568.89
731.726	550.09
732.168	560.29
732.61	617.69
733.053	667.29
733.495	734.29
733.937	827.69
734.379	977.69
734.821	1276.69
735.263	2118.49
735.705	3933.89
736.148	5535.69
736.59	4952.69
737.032	5003.09
737.474	4050.29
737.916	1644.69
738.357	876.69
738.799	684.89
739.241	626.29
739.683	630.49
740.125	644.09
740.567	640.69
741.008	668.29
741.45	706.29
741.892	746.49
742.334	737.49
742.775	704.29
743.217	683.89
743.658	601.89
744.1	617.69
744.542	704.89
744.983	710.69
745.425	713.69
745.866	702.69
746.307	643.09
746.749	723.89
747.19	1103.09
747.632	2278.69
748.073	4215.29
748.514	5391.69
748.956	6965.49
749.397	7869.89
749.838	5272.49
750.279	4655.09
750.72	2531.09
751.162	1115.69
751.603	647.29
752.044	515.29
752.485	457.49
752.926	425.29
753.367	389.49
753.808	410.09
754.249	401.69
754.69	386.49
755.131	388.49
755.572	384.09
756.013	393.29
756.453	382.69
756.894	385.69
757.335	400.89
757.776	403.49
758.216	413.29
758.657	438.89
759.098	493.49
759.538	614.69
759.979	898.69
760.42	1863.29
760.86	4835.29
761.301	9698.89
761.741	10184.49
762.182	10430.49
762.622	6998.09
763.063	2670.29
763.503	1109.09
763.943	663.09
764.384	528.29
764.824	457.69
765.264	420.69
765.705	404.49
766.145	372.49
766.585	372.89
767.025	366.09
767.465	366.49
767.906	363.49
768.346	381.89
768.786	475.89
769.226	706.69
769.666	1502.49
770.106	3388.49
770.546	4398.29
770.986	4355.89
771.426	3307.09
771.866	1492.69
772.306	680.69
772.745	421.49
773.185	341.29
773.625	333.89
774.065	360.89
774.505	476.89
774.944	832.49
775.384	1078.09
775.824	1088.29
776.263	941.89
776.703	536.89
777.142	329.49
777.582	273.69
778.021	251.29
778.461	235.89
778.9	241.49
779.34	236.29
779.779	233.69
780.219	235.09
780.658	211.69
781.097	227.89
781.537	219.89
781.976	195.49
782.415	202.49
782.855	199.29
783.294	211.69
783.733	221.69
784.172	207.29
784.611	213.29
785.05	221.09
785.489	217.29
785.928	217.89
786.367	236.89
786.806	246.09
787.245	272.69
787.684	276.89
788.123	284.09
788.562	274.49
789.001	249.49
789.44	236.89
789.879	233.09
790.317	243.29
790.756	263.09
791.195	294.89
791.634	428.89
792.072	794.69
792.511	2052.89
792.95	3524.69
793.388	3668.49
793.827	2409.89
794.265	1218.69
794.704	575.89
795.142	360.69
795.581	297.09
796.019	280.49
796.458	278.09
796.896	287.09
797.334	333.89
797.773	456.89
798.211	925.89
798.649	1875.29
799.087	2953.09
799.526	4067.89
799.964	3887.49
800.402	2600.29
800.84	1294.29
801.278	641.69
801.716	386.49
802.154	321.09
802.592	297.09
803.03	295.49
803.468	293.89
803.906	314.09
804.344	307.49
804.782	303.69
805.22	295.89
805.658	305.89
806.096	326.49
806.533	352.09
806.971	467.09
807.409	676.29
807.847	1435.09
808.284	3575.89
808.722	5786.49
809.16	7730.09
809.597	10975.89
810.035	11798.29
810.472	7517.49
810.91	3634.29
811.347	1631.29
811.785	793.89
812.222	497.49
812.66	385.89
813.097	322.69
813.535	277.89
813.972	249.49
814.409	241.89
814.846	216.09
815.284	218.09
815.721	216.09
816.158	244.89
816.595	300.69
817.032	343.49
817.47	308.89
817.907	250.09
818.344	230.49
818.781	219.89
819.218	263.49
819.655	381.89
820.092	457.69
820.529	407.49
820.966	322.89
821.403	249.69
821.839	207.29
822.276	255.09
822.713	279.09
823.15	266.89
823.587	315.49
824.023	602.49
824.46	1496.29
824.897	2310.09
825.333	1657.49
825.77	862.89
826.206	455.89
826.643	255.29
827.08	192.09
827.516	173.69
827.953	156.49
828.389	153.89
828.825	142.29
829.262	141.49
829.698	144.69
830.135	128.69
830.571	131.09
831.007	129.29
831.443	137.89
831.88	123.49
832.316	124.69
832.752	143.89
833.188	139.69
833.624	130.49
834.06	146.09
834.497	148.29
834.933	151.29
835.369	154.49
835.805	146.49
836.241	164.49
836.677	184.69
837.112	213.49
837.548	261.89
837.984	410.29
838.42	903.89
838.856	2455.49
839.292	4261.69
839.727	3045.89
840.163	2411.49
840.599	3556.29
841.034	4623.49
841.47	2440.89
841.906	1289.09
842.341	681.69
842.777	473.89
843.212	429.69
843.648	289.29
844.083	212.49
844.519	155.49
844.954	128.49
845.39	146.09
845.825	111.09
846.261	114.89
846.696	111.09
847.131	127.69
847.566	100.09
848.002	113.69
848.437	123.69
848.872	128.49
849.307	155.49
849.742	317.89
850.177	819.89
850.613	1550.29
851.048	1062.49
851.483	559.49
851.918	308.69
852.353	175.69
852.788	123.69
853.223	110.49
853.657	87.69
854.092	95.49
854.527	85.49
854.962	89.89
855.397	106.69
855.832	79.09
856.266	85.49
856.701	73.09
857.136	91.09
857.57	103.09
858.005	107.09
858.44	104.29
858.874	103.29
859.309	102.09
859.743	87.09
860.178	83.49
860.612	90.69
861.047	125.89
861.481	152.69
861.915	119.49
862.35	102.29
862.784	72.89
863.218	74.29
863.653	79.09
864.087	96.69
864.521	111.29
864.955	234.49
865.39	354.89
865.824	273.09
866.258	328.09
866.692	425.29
867.126	306.69
867.56	186.49
867.994	120.69
868.428	110.89
868.862	114.69
869.296	111.29
869.73	125.49
870.164	102.69
870.598	104.49
871.031	69.29
871.465	65.89
871.899	54.29
872.333	61.49
872.766	51.89
873.2	53.89
873.634	54.69
874.067	56.89
874.501	62.69
874.935	57.29
875.368	55.09
875.802	56.29
876.235	48.69
876.669	52.69
877.102	57.29
877.535	47.69
877.969	50.29
878.402	56.29
878.836	54.69
879.269	43.49
879.702	58.09
880.135	48.69
880.569	50.69
881.002	48.89
881.435	36.29
881.868	42.89
882.301	35.69
882.734	36.09
883.167	45.69
883.601	51.29
884.034	49.49
884.467	37.89
884.899	34.89
885.332	44.69
885.765	35.29
886.198	34.49
886.631	33.09
887.064	40.69
887.497	38.49
887.929	40.49
888.362	40.89
888.795	31.89
889.228	31.09
889.66	40.49
890.093	37.29
890.526	40.09
890.958	27.69
891.391	36.09
891.823	44.09
892.256	40.49
892.688	29.09
893.121	31.29
893.553	37.69
893.985	29.49
894.418	33.69
894.85	23.89
895.282	27.69
895.715	29.09
896.147	35.69
896.579	37.09
897.011	35.69
897.444	41.89
897.876	26.49
898.308	36.69
898.74	33.09
899.172	25.89
899.604	24.29
900.036	40.29
900.468	38.89
900.9	36.49
901.332	36.49
901.764	41.89
902.196	36.09
902.628	42.89
903.06	74.29
903.491	63.69
903.923	49.29
904.355	51.69
904.787	59.69
905.218	54.29
905.65	45.29
906.082	46.29
906.513	44.09
906.945	44.49
907.376	34.29
907.808	40.29
908.239	46.09
908.671	46.29
909.102	56.69
909.534	71.09
909.965	157.09
910.397	362.09
910.828	925.09
911.259	587.09
911.691	361.29
912.122	224.09
912.553	106.89
912.984	48.49
913.415	47.29
913.847	42.89
914.278	35.29
914.709	36.29
915.14	30.69
915.571	26.29
916.002	30.29
916.433	24.49
916.864	35.29
917.295	42.49
917.726	40.09
918.157	51.69
918.587	58.29
919.018	41.89
919.449	47.69
919.88	46.49
920.311	80.09
920.741	211.29
921.172	346.69
921.603	200.69
922.033	130.89
922.464	99.09
922.895	55.29
923.325	47.69
923.756	30.29
924.186	40.89
924.617	51.09
925.047	64.09
925.478	64.49
925.908	44.09
926.338	39.49
926.769	30.49
927.199	43.49
927.629	36.09
928.06	31.49
928.49	32.29
928.92	28.69
929.35	22.89
929.78	30.69
930.21	24.49
930.641	9.09
931.071	19.89
931.501	21.29
931.931	11.29
932.361	16.09
932.791	22.89
933.221	21.09
933.651	33.89
934.08	54.29
934.51	28.69
934.94	28.29
935.37	24.09
935.8	18.09
936.229	21.09
936.659	22.49
937.089	31.09
937.519	34.09
937.948	40.49
938.378	23.49
938.807	29.69
939.237	14.09
939.666	14.69
940.096	18.89
940.525	2.49
940.955	13.69
941.384	8.29
941.814	4.29
942.243	23.89
942.672	13.49
943.102	5.89
943.531	5.49
943.96	14.29
944.39	11.29
944.819	15.69
945.248	11.69
945.677	2.29
946.106	7.49
946.535	22.89
946.964	11.69
947.393	15.49
947.822	1.49
948.251	6.89
948.68	13.29
949.109	3.29
949.538	5.89
949.967	12.29
950.396	6.29
950.825	6.69
951.254	16.09
951.682	5.49
952.111	9.29
952.54	18.89
952.969	11.69
953.397	9.09
953.826	4.29
954.254	1.89
954.683	1.89
955.112	13.69
955.54	5.09
955.969	8.69
956.397	9.89
956.826	5.69
957.254	12.29
957.682	20.09
958.111	6.29
958.539	17.09
958.967	12.29
959.396	23.69
959.824	21.89
960.252	3.29
960.68	0.89
961.109	9.89
961.537	11.29
961.965	8.29
962.393	5.89
962.821	9.89
963.249	10.89
963.677	10.49
964.105	60.09
964.533	103.69
964.961	61.89
965.389	43.09
965.817	24.29
966.245	16.09
966.672	13.49
967.1	11.49
967.528	13.49
967.956	6.49
968.383	2.09
968.811	6.09
969.239	3.29
969.666	12.29
970.094	13.69
970.522	4.69
970.949	5.49
971.377	11.09
971.804	4.09
972.232	1.89
972.659	8.69
973.087	-0.51
973.514	11.49
973.941	9.69
974.369	-10.31
974.796	3.89
975.223	19.29
975.651	16.69
976.078	6.29
976.505	8.69
976.932	26.89
977.359	24.89
977.786	42.29
978.214	19.29
978.641	13.69
979.068	4.09
979.495	7.69
979.922	1.49
980.349	8.69
980.776	1.69
981.202	-1.71
981.629	5.69
982.056	2.29
982.483	12.89
982.91	4.09
983.337	-0.91
983.763	-4.31
984.19	10.09
984.617	-5.71
985.043	4.09
985.47	10.29
985.897	9.69
986.323	3.69
986.75	6.49
987.176	3.89
987.603	20.49
988.029	1.49
988.456	9.69
988.882	11.09
989.308	3.49
989.735	-9.71
990.161	1.09
990.587	2.69
991.014	8.09
991.44	-0.71
991.866	5.29
992.292	3.89
992.719	-2.51
993.145	5.29
993.571	8.89
993.997	10.09
994.423	-0.71
994.849	0.69
995.275	10.09
995.701	8.89
996.127	8.69
996.553	8.29
996.979	7.29
997.405	0.69
997.83	0.49
998.256	-0.11
998.682	14.29
999.108	18.49
999.534	1.89
999.959	1.69
1000.385	13.89
1000.811	4.09
1001.236	3.69
1001.662	0.89
1002.087	2.89
1002.513	3.89
1002.938	-2.11
1003.364	8.29
1003.789	13.29
1004.215	8.09
1004.64	4.69
1005.066	0.89
1005.491	11.29
1005.916	3.49
1006.342	9.29
1006.767	8.89
1007.192	19.49
1007.617	5.89
1008.042	8.09
1008.468	3.29
1008.893	8.29
1009.318	15.49
1009.743	14.29
1010.168	23.29
1010.593	7.49
1011.018	16.09
1011.443	4.49
1011.868	0.09
1012.293	8.69
1012.718	7.69
1013.143	7.69
1013.567	4.49
1013.992	8.89
1014.417	4.69
1014.842	4.29
1015.267	0.29
1015.691	3.69
1016.116	10.89
1016.541	-0.91
1016.965	6.09
1017.39	-4.51
1017.814	6.89
1018.239	4.29
1018.663	12.69
1019.088	-0.31
1019.512	9.69
1019.937	-1.51
1020.361	0.09
1020.785	1.29
1021.21	12.69
1021.634	5.29
1022.058	2.09
1022.483	-0.91
1022.907	5.89
1023.331	1.49
1023.755	-4.51
1024.179	7.69
1024.604	13.49
1025.028	11.89
1025.452	6.29
1025.876	-6.51
1026.3	12.09
1026.724	6.69
1027.148	3.89
1027.572	-1.91
1027.996	2.29
1028.42	3.09
1028.843	-8.31
1029.267	-2.11
1029.691	-0.71
1030.115	1.29
1030.539	2.49
1030.962	9.89
1031.386	2.49
1031.81	7.49
1032.233	3.09
1032.657	6.89
1033.08	6.69
1033.504	3.09
1033.927	-3.91
1034.351	6.49
1034.774	6.69
1035.198	-4.51
1035.621	-5.11
1036.045	1.09
1036.468	-7.51
1036.891	-5.51
1037.315	-1.71
1037.738	5.49
1038.161	-4.51
1038.584	-10.91
1039.008	-5.91
1039.431	17.49
1039.854	-4.31
1040.277	2.69
1040.7	3.09
1041.123	0.29
1041.546	0.29
1041.969	-5.51
1042.392	11.09
1042.815	10.09
1043.238	2.69
1043.661	-7.11
1044.084	-4.31
1044.507	-1.31
1044.93	6.29
1045.352	3.89
1045.775	-5.91
1046.198	8.09
1046.621	8.49
1047.043	5.69
1047.466	7.29
1047.889	14.69
1048.311	8.89
1048.734	6.49
1049.156	-1.71
1049.579	2.29
1050.001	2.09
1050.424	-1.31
1050.846	-9.71
1051.269	-3.31
1051.691	-3.91
1052.113	-5.71
1052.536	6.29
1052.958	4.89
1053.38	-5.71
1053.802	5.09
1054.225	11.09
1054.647	0.09
1055.069	9.69
1055.491	1.09
1055.913	-3.51
1056.335	-7.31
1056.757	6.89
1057.179	-0.51
1057.601	-1.91
1058.023	-1.11
1058.445	-13.91
1058.867	-4.11
1059.289	1.09
1059.711	5.89
1060.133	5.49
1060.555	-2.31
1060.976	-5.11
1061.398	0.29
1061.82	0.29
1062.241	3.69
1062.663	-3.91
1063.085	-5.51
1063.506	6.09
1063.928	3.09
1064.35	2.89
1064.771	10.49
1065.193	3.69
1065.614	-3.51
1066.035	-4.31
1066.457	-2.51
1066.878	-1.71
1067.3	-4.91
1067.721	1.89
1068.142	0.89
1068.564	11.29
1068.985	3.69
1069.406	-0.91
1069.827	13.49
1070.248	5.29
1070.67	8.09
1071.091	3.29
1071.512	1.89
1071.933	-5.51
1072.354	-11.11
1072.775	2.49
1073.196	-6.91
1073.617	1.89
1074.038	-0.31
1074.459	10.29
1074.88	3.09
1075.3	0.69
1075.721	4.69
1076.142	3.69
1076.563	9.29
1076.983	2.89
1077.404	-5.91
1077.825	3.69
1078.246	0.29
1078.666	-2.11
1079.087	13.29
1079.507	-5.51
1079.928	-1.51
1080.348	3.49
1080.769	7.89
1081.189	-1.11
1081.61	5.29
1082.03	11.69
1082.451	4.69
1082.871	-4.91
1083.291	7.49
1083.711	0.69
1084.132	4.89
1084.552	0.89
1084.972	0.49
1085.392	5.29
1085.813	4.89
1086.233	-0.31
1086.653	3.49
1087.073	4.29
1087.493	2.89
1087.913	-1.11
1088.333	-4.71
1088.753	0.89
1089.173	9.09
1089.593	1.89
1090.013	2.49
1090.433	6.09
1090.852	9.69
1091.272	-0.31
1091.692	3.49
1092.112	3.49
1092.531	-3.51
1092.951	8.29
1093.371	9.29
1093.79	2.29
1094.21	-1.91
1094.63	5.29
1095.049	-0.91
1095.469	4.09
1095.888	2.49
1096.308	-4.11
1096.727	0.69
1097.146	9.09
1097.566	10.89
1097.985	-9.31
1098.405	6.89
1098.824	5.69
1099.243	-0.11
1099.662	-3.91
1100.082	6.29
1100.501	3.29
1100.92	4.09
1101.339	2.29
1101.758	2.69
