Data from 20170807-ORNL-Trin_Subt2_13-13-23-821.txt Node
Date: Mon Aug 07 13:13:23 EDT 2017
User: Ender
Spectrometer: HR+D1039
Trigger mode: 0
Integration Time (sec): 2.510000E-3
Scans to average: 1
Electric dark correction enabled: true
Nonlinearity correction enabled: false
Boxcar width: 0
XAxis mode: Wavelengths
Number of Pixels in Spectrum: 2048
>>>>>Begin Spectral Data<<<<<
187.836	5.69
188.309	5.69
188.782	5.69
189.255	-13.31
189.728	2.69
190.201	-2.31
190.674	0.69
191.147	1.69
191.619	-21.31
192.092	16.69
192.565	11.69
193.038	-0.31
193.511	0.69
193.984	-12.31
194.456	-15.31
194.929	17.69
195.402	15.69
195.874	-8.31
196.347	-9.31
196.82	11.69
197.292	-7.31
197.765	14.69
198.237	-11.31
198.71	1.69
199.182	19.69
199.655	14.69
200.127	15.69
200.6	6.69
201.072	-9.31
201.544	13.69
202.017	-2.31
202.489	-15.31
202.961	-6.31
203.433	24.69
203.906	9.69
204.378	-6.31
204.85	1.69
205.322	-15.31
205.794	8.69
206.266	-3.31
206.739	24.69
207.211	-14.31
207.683	-14.31
208.155	4.69
208.627	-7.31
209.099	-9.31
209.57	17.69
210.042	3.69
210.514	4.69
210.986	8.69
211.458	-3.31
211.93	20.69
212.402	31.69
212.873	4.69
213.345	-17.31
213.817	-8.31
214.288	-7.31
214.76	-23.31
215.232	1.69
215.703	-14.31
216.175	17.69
216.646	3.69
217.118	-2.31
217.589	0.69
218.061	8.69
218.532	5.69
219.004	-1.31
219.475	-0.31
219.946	-6.31
220.418	-21.31
220.889	-23.31
221.36	21.69
221.832	8.69
222.303	-5.31
222.774	8.69
223.245	-15.31
223.717	-3.31
224.188	-6.31
224.659	-2.31
225.13	-6.31
225.601	18.69
226.072	0.69
226.543	0.69
227.014	-6.31
227.485	-12.31
227.956	-9.31
228.427	-2.31
228.898	10.69
229.369	-9.31
229.839	-3.31
230.31	-4.31
230.781	12.69
231.252	6.69
231.722	5.69
232.193	4.69
232.664	-6.31
233.135	-1.31
233.605	3.69
234.076	30.69
234.546	-11.31
235.017	6.69
235.487	-19.31
235.958	21.69
236.428	-10.31
236.899	2.69
237.369	16.69
237.84	3.69
238.31	23.69
238.78	-14.31
239.251	12.69
239.721	19.69
240.191	6.69
240.662	3.69
241.132	-7.31
241.602	25.69
242.072	-14.31
242.542	15.69
243.013	-6.31
243.483	39.69
243.953	-4.31
244.423	22.69
244.893	14.69
245.363	-2.31
245.833	17.69
246.303	32.69
246.773	1.69
247.243	10.69
247.712	19.69
248.182	22.69
248.652	11.69
249.122	24.69
249.592	58.69
250.061	20.69
250.531	57.69
251.001	21.69
251.471	36.69
251.94	2.69
252.41	-5.31
252.879	29.69
253.349	-9.31
253.818	-13.31
254.288	-2.31
254.757	18.69
255.227	26.69
255.696	-6.31
256.166	16.69
256.635	10.69
257.105	2.69
257.574	-15.31
258.043	15.69
258.513	-2.31
258.982	2.69
259.451	2.69
259.92	24.69
260.389	19.69
260.859	16.69
261.328	4.69
261.797	-11.31
262.266	39.69
262.735	19.69
263.204	24.69
263.673	40.69
264.142	23.69
264.611	43.69
265.08	29.69
265.549	21.69
266.018	10.69
266.487	13.69
266.955	16.69
267.424	0.69
267.893	1.69
268.362	8.69
268.83	18.69
269.299	22.69
269.768	20.69
270.236	34.69
270.705	-1.31
271.174	1.69
271.642	30.69
272.111	3.69
272.579	35.69
273.048	10.69
273.516	34.69
273.985	11.69
274.453	28.69
274.922	34.69
275.39	20.69
275.858	32.69
276.327	4.69
276.795	33.69
277.263	24.69
277.731	25.69
278.2	54.69
278.668	81.69
279.136	64.69
279.604	57.69
280.072	26.69
280.54	39.69
281.008	34.69
281.477	18.69
281.945	24.69
282.413	14.69
282.881	27.69
283.348	37.69
283.816	43.69
284.284	29.69
284.752	33.69
285.22	2.69
285.688	16.69
286.156	40.69
286.623	25.69
287.091	42.69
287.559	36.69
288.026	25.69
288.494	41.69
288.962	7.69
289.429	28.69
289.897	27.69
290.364	22.69
290.832	21.69
291.3	25.69
291.767	29.69
292.234	43.69
292.702	38.69
293.169	30.69
293.637	33.69
294.104	39.69
294.571	40.69
295.039	4.69
295.506	14.69
295.973	43.69
296.44	28.69
296.908	15.69
297.375	55.69
297.842	30.69
298.309	42.69
298.776	26.69
299.243	37.69
299.71	34.69
300.177	42.69
300.644	39.69
301.111	21.69
301.578	22.69
302.045	52.69
302.512	31.69
302.979	35.69
303.446	32.69
303.913	16.69
304.379	50.69
304.846	58.69
305.313	15.69
305.78	30.69
306.246	39.69
306.713	24.69
307.18	47.69
307.646	35.69
308.113	73.69
308.579	50.69
309.046	57.69
309.512	39.69
309.979	51.69
310.445	31.69
310.912	36.69
311.378	48.69
311.845	35.69
312.311	48.69
312.777	57.69
313.244	45.69
313.71	47.69
314.176	35.69
314.642	45.69
315.109	71.69
315.575	53.69
316.041	49.69
316.507	73.69
316.973	107.69
317.439	49.69
317.905	62.69
318.371	65.69
318.837	44.69
319.303	47.69
319.769	60.69
320.235	55.69
320.701	63.69
321.167	45.69
321.633	76.69
322.099	55.69
322.564	22.69
323.03	46.69
323.496	62.69
323.962	41.69
324.427	27.69
324.893	53.69
325.359	56.69
325.824	57.69
326.29	58.69
326.755	65.69
327.221	49.69
327.686	48.69
328.152	61.69
328.617	85.69
329.083	56.69
329.548	57.69
330.014	58.69
330.479	57.69
330.944	41.69
331.41	81.69
331.875	51.69
332.34	52.69
332.805	63.69
333.271	87.69
333.736	77.69
334.201	54.69
334.666	75.69
335.131	67.69
335.596	80.69
336.061	63.69
336.526	67.69
336.991	57.69
337.456	62.69
337.921	72.69
338.386	55.69
338.851	64.69
339.316	66.69
339.781	75.69
340.246	70.69
340.711	76.69
341.175	64.69
341.64	52.69
342.105	79.69
342.569	60.69
343.034	101.69
343.499	68.69
343.963	100.69
344.428	51.69
344.893	95.69
345.357	85.69
345.822	64.69
346.286	84.69
346.751	112.69
347.215	95.69
347.679	95.69
348.144	107.69
348.608	116.69
349.073	104.69
349.537	90.69
350.001	74.69
350.465	86.69
350.93	96.69
351.394	87.69
351.858	96.69
352.322	109.69
352.786	88.69
353.25	107.69
353.715	97.69
354.179	114.69
354.643	96.69
355.107	114.69
355.571	82.69
356.035	97.69
356.498	114.69
356.962	111.69
357.426	129.69
357.89	129.69
358.354	97.69
358.818	106.69
359.281	112.69
359.745	109.69
360.209	101.69
360.673	107.69
361.136	95.69
361.6	100.69
362.064	77.69
362.527	84.69
362.991	109.69
363.454	147.69
363.918	84.69
364.381	119.69
364.845	108.69
365.308	102.69
365.772	104.69
366.235	115.69
366.698	111.69
367.162	99.69
367.625	101.69
368.088	110.69
368.552	130.69
369.015	121.69
369.478	153.69
369.941	150.69
370.404	158.69
370.867	123.69
371.331	133.69
371.794	142.69
372.257	159.69
372.72	169.69
373.183	145.69
373.646	126.69
374.109	156.69
374.572	129.69
375.035	147.69
375.497	148.69
375.96	132.69
376.423	163.69
376.886	154.69
377.349	143.69
377.811	149.69
378.274	118.69
378.737	155.69
379.199	146.69
379.662	176.69
380.125	157.69
380.587	145.69
381.05	133.69
381.512	158.69
381.975	151.69
382.437	178.69
382.9	172.69
383.362	168.69
383.825	153.69
384.287	175.69
384.75	166.69
385.212	160.69
385.674	174.69
386.136	187.69
386.599	190.69
387.061	167.69
387.523	204.69
387.985	227.69
388.447	241.69
388.91	257.69
389.372	268.69
389.834	271.69
390.296	264.69
390.758	330.69
391.22	358.69
391.682	522.69
392.144	919.69
392.606	804.69
393.068	363.69
393.529	283.69
393.991	270.69
394.453	286.69
394.915	283.69
395.377	488.69
395.838	656.69
396.3	364.69
396.762	228.69
397.224	176.69
397.685	191.69
398.147	190.69
398.608	173.69
399.07	182.69
399.531	183.69
399.993	205.69
400.454	203.69
400.916	196.69
401.377	195.69
401.839	187.69
402.3	171.69
402.762	200.69
403.223	213.69
403.684	208.69
404.145	215.69
404.607	209.69
405.068	202.69
405.529	186.69
405.99	195.69
406.451	213.69
406.913	212.69
407.374	194.69
407.835	234.69
408.296	219.69
408.757	227.69
409.218	207.69
409.679	227.69
410.14	237.69
410.601	201.69
411.062	228.69
411.522	238.69
411.983	221.69
412.444	255.69
412.905	252.69
413.366	256.69
413.826	248.69
414.287	275.69
414.748	351.69
415.208	341.69
415.669	282.69
416.13	265.69
416.59	253.69
417.051	276.69
417.511	279.69
417.972	331.69
418.432	312.69
418.893	357.69
419.353	325.69
419.814	237.69
420.274	235.69
420.734	215.69
421.195	259.69
421.655	264.69
422.115	250.69
422.576	223.69
423.036	243.69
423.496	235.69
423.956	282.69
424.416	271.69
424.876	290.69
425.336	327.69
425.797	303.69
426.257	313.69
426.717	277.69
427.177	244.69
427.637	298.69
428.097	315.69
428.556	295.69
429.016	334.69
429.476	330.69
429.936	309.69
430.396	323.69
430.856	309.69
431.315	336.69
431.775	357.69
432.235	355.69
432.694	407.69
433.154	371.69
433.614	358.69
434.073	357.69
434.533	305.69
434.993	274.69
435.452	285.69
435.912	287.69
436.371	300.69
436.83	296.69
437.29	283.69
437.749	261.69
438.209	283.69
438.668	276.69
439.127	307.69
439.587	292.69
440.046	252.69
440.505	251.69
440.964	275.69
441.424	309.69
441.883	289.69
442.342	268.69
442.801	281.69
443.26	261.69
443.719	274.69
444.178	263.69
444.637	285.69
445.096	273.69
445.555	271.69
446.014	282.69
446.473	275.69
446.932	269.69
447.391	242.69
447.849	285.69
448.308	257.69
448.767	264.69
449.226	277.69
449.685	273.69
450.143	295.69
450.602	281.69
451.061	324.69
451.519	270.69
451.978	268.69
452.436	254.69
452.895	272.69
453.353	262.69
453.812	270.69
454.27	254.69
454.729	251.69
455.187	273.69
455.646	271.69
456.104	245.69
456.562	269.69
457.021	276.69
457.479	295.69
457.937	297.69
458.395	252.69
458.854	285.69
459.312	261.69
459.77	269.69
460.228	287.69
460.686	273.69
461.144	283.69
461.602	297.69
462.06	286.69
462.518	285.69
462.976	280.69
463.434	325.69
463.892	290.69
464.35	300.69
464.808	316.69
465.266	299.69
465.724	293.69
466.181	271.69
466.639	288.69
467.097	310.69
467.555	300.69
468.012	333.69
468.47	345.69
468.928	325.69
469.385	332.69
469.843	346.69
470.3	362.69
470.758	378.69
471.215	413.69
471.673	359.69
472.13	388.69
472.588	398.69
473.045	411.69
473.503	429.69
473.96	429.69
474.417	455.69
474.875	433.69
475.332	468.69
475.789	448.69
476.246	470.69
476.704	501.69
477.161	516.69
477.618	529.69
478.075	532.69
478.532	582.69
478.989	621.69
479.446	677.69
479.903	713.69
480.36	762.69
480.817	877.69
481.274	905.69
481.731	1002.69
482.188	1083.69
482.645	1179.69
483.102	1263.69
483.558	1355.69
484.015	1399.69
484.472	1400.69
484.929	1348.69
485.385	1295.69
485.842	1252.69
486.299	1205.69
486.755	1140.69
487.212	995.69
487.668	877.69
488.125	806.69
488.582	762.69
489.038	722.69
489.494	686.69
489.951	656.69
490.407	650.69
490.864	664.69
491.32	629.69
491.776	631.69
492.233	643.69
492.689	607.69
493.145	612.69
493.602	568.69
494.058	618.69
494.514	562.69
494.97	573.69
495.426	605.69
495.882	606.69
496.338	603.69
496.794	583.69
497.251	585.69
497.707	597.69
498.163	619.69
498.618	593.69
499.074	588.69
499.53	607.69
499.986	611.69
500.442	589.69
500.898	581.69
501.354	595.69
501.809	621.69
502.265	589.69
502.721	619.69
503.177	670.69
503.632	625.69
504.088	584.69
504.543	650.69
504.999	655.69
505.455	644.69
505.91	623.69
506.366	574.69
506.821	591.69
507.277	616.69
507.732	626.69
508.187	623.69
508.643	616.69
509.098	643.69
509.553	622.69
510.009	606.69
510.464	660.69
510.919	669.69
511.375	661.69
511.83	646.69
512.285	707.69
512.74	675.69
513.195	662.69
513.65	739.69
514.105	707.69
514.56	732.69
515.015	702.69
515.47	710.69
515.925	727.69
516.38	710.69
516.835	708.69
517.29	714.69
517.745	707.69
518.2	709.69
518.655	724.69
519.109	680.69
519.564	714.69
520.019	666.69
520.474	688.69
520.928	649.69
521.383	668.69
521.838	666.69
522.292	655.69
522.747	641.69
523.201	660.69
523.656	649.69
524.11	635.69
524.565	655.69
525.019	611.69
525.474	641.69
525.928	653.69
526.382	656.69
526.837	628.69
527.291	625.69
527.745	630.69
528.2	622.69
528.654	632.69
529.108	595.69
529.562	623.69
530.016	661.69
530.47	633.69
530.925	598.69
531.379	629.69
531.833	643.69
532.287	620.69
532.741	628.69
533.195	641.69
533.649	631.69
534.103	644.69
534.556	603.69
535.01	634.69
535.464	617.69
535.918	645.69
536.372	610.69
536.826	629.69
537.279	583.69
537.733	600.69
538.187	598.69
538.64	597.69
539.094	617.69
539.548	662.69
540.001	629.69
540.455	628.69
540.908	638.69
541.362	650.69
541.815	610.69
542.269	656.69
542.722	673.69
543.175	644.69
543.629	677.69
544.082	649.69
544.536	693.69
544.989	658.69
545.442	695.69
545.895	644.69
546.349	703.69
546.802	655.69
547.255	681.69
547.708	673.69
548.161	701.69
548.614	703.69
549.067	729.69
549.52	703.69
549.973	667.69
550.426	689.69
550.879	684.69
551.332	662.69
551.785	685.69
552.238	685.69
552.691	684.69
553.144	712.69
553.596	744.69
554.049	732.69
554.502	775.69
554.955	770.69
555.407	791.69
555.86	683.69
556.313	749.69
556.765	727.69
557.218	743.69
557.67	729.69
558.123	729.69
558.576	713.69
559.028	709.69
559.48	716.69
559.933	713.69
560.385	666.69
560.838	680.69
561.29	620.69
561.742	635.69
562.195	588.69
562.647	613.69
563.099	662.69
563.551	591.69
564.004	623.69
564.456	626.69
564.908	607.69
565.36	602.69
565.812	580.69
566.264	604.69
566.716	569.69
567.168	567.69
567.62	586.69
568.072	567.69
568.524	551.69
568.976	546.69
569.428	509.69
569.88	533.69
570.332	529.69
570.784	541.69
571.235	541.69
571.687	559.69
572.139	538.69
572.59	565.69
573.042	551.69
573.494	523.69
573.945	525.69
574.397	537.69
574.849	523.69
575.3	519.69
575.752	517.69
576.203	512.69
576.655	528.69
577.106	491.69
577.557	518.69
578.009	490.69
578.46	479.69
578.912	532.69
579.363	531.69
579.814	508.69
580.265	496.69
580.717	495.69
581.168	496.69
581.619	514.69
582.07	526.69
582.521	490.69
582.972	524.69
583.423	523.69
583.875	541.69
584.326	568.69
584.777	677.69
585.227	766.69
585.678	884.69
586.129	910.69
586.58	952.69
587.031	984.69
587.482	1077.69
587.933	1327.69
588.384	1171.69
588.834	871.69
589.285	639.69
589.736	629.69
590.186	580.69
590.637	609.69
591.088	566.69
591.538	540.69
591.989	569.69
592.439	519.69
592.89	506.69
593.34	526.69
593.791	522.69
594.241	521.69
594.692	493.69
595.142	503.69
595.593	539.69
596.043	557.69
596.493	557.69
596.943	540.69
597.394	516.69
597.844	525.69
598.294	518.69
598.744	541.69
599.195	602.69
599.645	621.69
600.095	667.69
600.545	693.69
600.995	737.69
601.445	766.69
601.895	794.69
602.345	815.69
602.795	819.69
603.245	765.69
603.695	760.69
604.145	667.69
604.594	707.69
605.044	634.69
605.494	581.69
605.944	513.69
606.393	562.69
606.843	546.69
607.293	542.69
607.743	528.69
608.192	586.69
608.642	540.69
609.091	542.69
609.541	559.69
609.99	565.69
610.44	522.69
610.889	518.69
611.339	520.69
611.788	496.69
612.238	486.69
612.687	531.69
613.136	550.69
613.586	538.69
614.035	525.69
614.484	549.69
614.933	526.69
615.383	555.69
615.832	490.69
616.281	490.69
616.73	475.69
617.179	486.69
617.628	493.69
618.077	462.69
618.526	464.69
618.975	480.69
619.424	450.69
619.873	446.69
620.322	437.69
620.771	447.69
621.22	447.69
621.669	409.69
622.118	426.69
622.567	398.69
623.015	429.69
623.464	411.69
623.913	402.69
624.361	410.69
624.81	422.69
625.259	380.69
625.707	398.69
626.156	380.69
626.604	411.69
627.053	387.69
627.501	420.69
627.95	411.69
628.398	413.69
628.847	412.69
629.295	392.69
629.744	388.69
630.192	381.69
630.64	374.69
631.089	358.69
631.537	376.69
631.985	351.69
632.433	395.69
632.881	364.69
633.33	385.69
633.778	411.69
634.226	384.69
634.674	399.69
635.122	368.69
635.57	374.69
636.018	386.69
636.466	402.69
636.914	381.69
637.362	386.69
637.81	384.69
638.258	383.69
638.705	383.69
639.153	422.69
639.601	434.69
640.049	425.69
640.497	451.69
640.944	485.69
641.392	434.69
641.84	386.69
642.287	383.69
642.735	390.69
643.182	378.69
643.63	406.69
644.078	366.69
644.525	412.69
644.973	407.69
645.42	416.69
645.867	403.69
646.315	405.69
646.762	413.69
647.21	439.69
647.657	478.69
648.104	471.69
648.551	495.69
648.999	530.69
649.446	609.69
649.893	657.69
650.34	746.69
650.787	925.69
651.234	1170.69
651.682	1575.69
652.129	2189.69
652.576	3235.69
653.023	4423.69
653.47	5390.69
653.917	6070.69
654.363	6363.69
654.81	7030.69
655.257	7035.69
655.704	4864.69
656.151	2968.69
656.598	1874.69
657.044	1336.69
657.491	1054.69
657.938	835.69
658.385	725.69
658.831	655.69
659.278	542.69
659.724	488.69
660.171	488.69
660.618	438.69
661.064	415.69
661.511	400.69
661.957	374.69
662.404	393.69
662.85	397.69
663.296	352.69
663.743	325.69
664.189	312.69
664.635	341.69
665.082	322.69
665.528	343.69
665.974	321.69
666.42	330.69
666.867	291.69
667.313	332.69
667.759	299.69
668.205	289.69
668.651	299.69
669.097	306.69
669.543	325.69
669.989	303.69
670.435	290.69
670.881	293.69
671.327	290.69
671.773	337.69
672.219	332.69
672.665	376.69
673.11	378.69
673.556	411.69
674.002	413.69
674.448	397.69
674.893	340.69
675.339	281.69
675.785	263.69
676.23	261.69
676.676	276.69
677.122	237.69
677.567	246.69
678.013	223.69
678.458	248.69
678.904	239.69
679.349	222.69
679.794	236.69
680.24	233.69
680.685	227.69
681.131	224.69
681.576	241.69
682.021	239.69
682.466	234.69
682.912	241.69
683.357	234.69
683.802	243.69
684.247	270.69
684.692	289.69
685.137	286.69
685.583	295.69
686.028	364.69
686.473	339.69
686.918	276.69
687.363	280.69
687.807	246.69
688.252	219.69
688.697	209.69
689.142	197.69
689.587	231.69
690.032	211.69
690.477	211.69
690.921	248.69
691.366	200.69
691.811	251.69
692.255	265.69
692.7	330.69
693.145	408.69
693.589	647.69
694.034	871.69
694.478	900.69
694.923	872.69
695.367	1201.69
695.812	808.69
696.256	324.69
696.701	242.69
697.145	203.69
697.59	210.69
698.034	198.69
698.478	228.69
698.922	211.69
699.367	218.69
699.811	214.69
700.255	229.69
700.699	251.69
701.143	285.69
701.588	286.69
702.032	327.69
702.476	310.69
702.92	310.69
703.364	422.69
703.808	587.69
704.252	808.69
704.696	882.69
705.14	851.69
705.584	1181.69
706.027	678.69
706.471	348.69
706.915	233.69
707.359	181.69
707.803	207.69
708.246	178.69
708.69	211.69
709.134	177.69
709.577	199.69
710.021	195.69
710.465	220.69
710.908	206.69
711.352	196.69
711.795	226.69
712.239	250.69
712.682	249.69
713.126	232.69
713.569	280.69
714.012	243.69
714.456	200.69
714.899	187.69
715.342	182.69
715.786	143.69
716.229	167.69
716.672	154.69
717.115	148.69
717.558	170.69
718.002	161.69
718.445	156.69
718.888	185.69
719.331	201.69
719.774	179.69
720.217	171.69
720.66	193.69
721.103	165.69
721.546	154.69
721.989	156.69
722.432	159.69
722.874	153.69
723.317	136.69
723.76	133.69
724.203	193.69
724.645	261.69
725.088	313.69
725.531	274.69
725.974	327.69
726.416	311.69
726.859	207.69
727.301	171.69
727.744	160.69
728.187	119.69
728.629	148.69
729.071	149.69
729.514	179.69
729.956	168.69
730.399	191.69
730.841	187.69
731.283	171.69
731.726	168.69
732.168	159.69
732.61	166.69
733.053	190.69
733.495	221.69
733.937	234.69
734.379	288.69
734.821	312.69
735.263	471.69
735.705	800.69
736.148	1250.69
736.59	1435.69
737.032	1506.69
737.474	1346.69
737.916	553.69
738.357	260.69
738.799	227.69
739.241	184.69
739.683	191.69
740.125	200.69
740.567	202.69
741.008	211.69
741.45	200.69
741.892	208.69
742.334	232.69
742.775	231.69
743.217	221.69
743.658	155.69
744.1	162.69
744.542	183.69
744.983	209.69
745.425	226.69
745.866	212.69
746.307	175.69
746.749	178.69
747.19	221.69
747.632	435.69
748.073	834.69
748.514	1326.69
748.956	1664.69
749.397	2197.69
749.838	1634.69
750.279	1507.69
750.72	919.69
751.162	379.69
751.603	227.69
752.044	154.69
752.485	127.69
752.926	128.69
753.367	119.69
753.808	120.69
754.249	130.69
754.69	121.69
755.131	127.69
755.572	156.69
756.013	126.69
756.453	123.69
756.894	105.69
757.335	147.69
757.776	112.69
758.216	132.69
758.657	131.69
759.098	155.69
759.538	182.69
759.979	241.69
760.42	377.69
760.86	858.69
761.301	1955.69
761.741	2731.69
762.182	3075.69
762.622	2439.69
763.063	966.69
763.503	458.69
763.943	430.69
764.384	711.69
764.824	771.69
765.264	784.69
765.705	383.69
766.145	178.69
766.585	163.69
767.025	152.69
767.465	293.69
767.906	545.69
768.346	578.69
768.786	524.69
769.226	283.69
769.666	357.69
770.106	716.69
770.546	1173.69
770.986	1303.69
771.426	1193.69
771.866	521.69
772.306	233.69
772.745	162.69
773.185	112.69
773.625	93.69
774.065	124.69
774.505	128.69
774.944	248.69
775.384	473.69
775.824	576.69
776.263	559.69
776.703	301.69
777.142	174.69
777.582	79.69
778.021	68.69
778.461	75.69
778.9	88.69
779.34	71.69
779.779	69.69
780.219	61.69
780.658	78.69
781.097	83.69
781.537	89.69
781.976	82.69
782.415	75.69
782.855	57.69
783.294	48.69
783.733	68.69
784.172	81.69
784.611	81.69
785.05	59.69
785.489	73.69
785.928	52.69
786.367	91.69
786.806	62.69
787.245	65.69
787.684	115.69
788.123	101.69
788.562	116.69
789.001	79.69
789.44	86.69
789.879	97.69
790.317	73.69
790.756	62.69
791.195	85.69
791.634	99.69
792.072	174.69
792.511	396.69
792.95	862.69
793.388	1127.69
793.827	873.69
794.265	441.69
794.704	215.69
795.142	121.69
795.581	98.69
796.019	60.69
796.458	78.69
796.896	88.69
797.334	85.69
797.773	98.69
798.211	189.69
798.649	433.69
799.087	716.69
799.526	1093.69
799.964	1174.69
800.402	946.69
800.84	453.69
801.278	214.69
801.716	125.69
802.154	95.69
802.592	84.69
803.03	85.69
803.468	103.69
803.906	94.69
804.344	76.69
804.782	62.69
805.22	98.69
805.658	90.69
806.096	82.69
806.533	109.69
806.971	150.69
807.409	166.69
807.847	274.69
808.284	757.69
808.722	1410.69
809.16	1908.69
809.597	2555.69
810.035	3354.69
810.472	2657.69
810.91	1259.69
811.347	560.69
811.785	286.69
812.222	163.69
812.66	143.69
813.097	111.69
813.535	98.69
813.972	80.69
814.409	65.69
814.846	60.69
815.284	47.69
815.721	49.69
816.158	60.69
816.595	93.69
817.032	84.69
817.47	106.69
817.907	79.69
818.344	79.69
818.781	75.69
819.218	41.69
819.655	116.69
820.092	144.69
820.529	133.69
820.966	87.69
821.403	64.69
821.839	118.69
822.276	55.69
822.713	137.69
823.15	70.69
823.587	107.69
824.023	124.69
824.46	302.69
824.897	623.69
825.333	592.69
825.77	291.69
826.206	144.69
826.643	106.69
827.08	62.69
827.516	70.69
827.953	51.69
828.389	70.69
828.825	64.69
829.262	31.69
829.698	35.69
830.135	44.69
830.571	40.69
831.007	52.69
831.443	43.69
831.88	38.69
832.316	35.69
832.752	40.69
833.188	40.69
833.624	21.69
834.06	29.69
834.497	50.69
834.933	54.69
835.369	40.69
835.805	57.69
836.241	68.69
836.677	57.69
837.112	68.69
837.548	60.69
837.984	113.69
838.42	194.69
838.856	514.69
839.292	1109.69
839.727	1074.69
840.163	665.69
840.599	805.69
841.034	1368.69
841.47	929.69
841.906	432.69
842.341	239.69
842.777	161.69
843.212	182.69
843.648	152.69
844.083	95.69
844.519	66.69
844.954	53.69
845.39	17.69
845.825	32.69
846.261	33.69
846.696	52.69
847.131	39.69
847.566	21.69
848.002	23.69
848.437	16.69
848.872	26.69
849.307	55.69
849.742	69.69
850.177	158.69
850.613	442.69
851.048	396.69
851.483	200.69
851.918	111.69
852.353	52.69
852.788	94.69
853.223	41.69
853.657	39.69
854.092	37.69
854.527	16.69
854.962	16.69
855.397	26.69
855.832	44.69
856.266	53.69
856.701	32.69
857.136	35.69
857.57	10.69
858.005	37.69
858.44	48.69
858.874	22.69
859.309	40.69
859.743	32.69
860.178	8.69
860.612	24.69
861.047	20.69
861.481	44.69
861.915	19.69
862.35	26.69
862.784	29.69
863.218	38.69
863.653	19.69
864.087	49.69
864.521	45.69
864.955	58.69
865.39	125.69
865.824	79.69
866.258	115.69
866.692	155.69
867.126	96.69
867.56	69.69
867.994	61.69
868.428	51.69
868.862	47.69
869.296	45.69
869.73	49.69
870.164	42.69
870.598	44.69
871.031	50.69
871.465	-3.31
871.899	29.69
872.333	10.69
872.766	24.69
873.2	21.69
873.634	-18.31
874.067	39.69
874.501	15.69
874.935	43.69
875.368	-4.31
875.802	19.69
876.235	7.69
876.669	30.69
877.102	31.69
877.535	23.69
877.969	7.69
878.402	44.69
878.836	7.69
879.269	11.69
879.702	37.69
880.135	16.69
880.569	5.69
881.002	9.69
881.435	24.69
881.868	21.69
882.301	9.69
882.734	-11.31
883.167	-3.31
883.601	12.69
884.034	-3.31
884.467	15.69
884.899	17.69
885.332	39.69
885.765	1.69
886.198	10.69
886.631	4.69
887.064	0.69
887.497	15.69
887.929	15.69
888.362	7.69
888.795	25.69
889.228	28.69
889.66	-9.31
890.093	-16.31
890.526	9.69
890.958	14.69
891.391	27.69
891.823	42.69
892.256	15.69
892.688	2.69
893.121	24.69
893.553	24.69
893.985	4.69
894.418	23.69
894.85	6.69
895.282	29.69
895.715	4.69
896.147	-16.31
896.579	-8.31
897.011	7.69
897.444	-8.31
897.876	2.69
898.308	26.69
898.74	-3.31
899.172	4.69
899.604	8.69
900.036	10.69
900.468	6.69
900.9	25.69
901.332	-16.31
901.764	7.69
902.196	-1.31
902.628	23.69
903.06	29.69
903.491	34.69
903.923	22.69
904.355	12.69
904.787	3.69
905.218	25.69
905.65	29.69
906.082	33.69
906.513	22.69
906.945	13.69
907.376	16.69
907.808	15.69
908.239	22.69
908.671	38.69
909.102	22.69
909.534	29.69
909.965	35.69
910.397	84.69
910.828	245.69
911.259	191.69
911.691	103.69
912.122	66.69
912.553	38.69
912.984	21.69
913.415	30.69
913.847	3.69
914.278	22.69
914.709	0.69
915.14	16.69
915.571	33.69
916.002	16.69
916.433	3.69
916.864	10.69
917.295	28.69
917.726	24.69
918.157	1.69
918.587	19.69
919.018	30.69
919.449	-19.31
919.88	15.69
920.311	18.69
920.741	73.69
921.172	107.69
921.603	75.69
922.033	35.69
922.464	10.69
922.895	30.69
923.325	30.69
923.756	8.69
924.186	11.69
924.617	18.69
925.047	9.69
925.478	42.69
925.908	42.69
926.338	30.69
926.769	12.69
927.199	3.69
927.629	31.69
928.06	16.69
928.49	12.69
928.92	9.69
929.35	-8.31
929.78	-11.31
930.21	26.69
930.641	5.69
931.071	44.69
931.501	-1.31
931.931	17.69
932.361	5.69
932.791	-5.31
933.221	21.69
933.651	19.69
934.08	13.69
934.51	8.69
934.94	8.69
935.37	-0.31
935.8	10.69
936.229	-12.31
936.659	4.69
937.089	-2.31
937.519	-1.31
937.948	18.69
938.378	15.69
938.807	4.69
939.237	-3.31
939.666	-0.31
940.096	-1.31
940.525	-4.31
940.955	13.69
941.384	-14.31
941.814	6.69
942.243	-7.31
942.672	37.69
943.102	-0.31
943.531	-3.31
943.96	-10.31
944.39	-1.31
944.819	24.69
945.248	13.69
945.677	-0.31
946.106	24.69
946.535	20.69
946.964	-14.31
947.393	27.69
947.822	6.69
948.251	1.69
948.68	13.69
949.109	15.69
949.538	16.69
949.967	1.69
950.396	3.69
950.825	-1.31
951.254	6.69
951.682	22.69
952.111	18.69
952.54	2.69
952.969	-9.31
953.397	12.69
953.826	6.69
954.254	7.69
954.683	4.69
955.112	-5.31
955.54	-11.31
955.969	20.69
956.397	16.69
956.826	0.69
957.254	13.69
957.682	9.69
958.111	4.69
958.539	10.69
958.967	23.69
959.396	0.69
959.824	26.69
960.252	14.69
960.68	0.69
961.109	-5.31
961.537	6.69
961.965	5.69
962.393	-11.31
962.821	-14.31
963.249	-7.31
963.677	-3.31
964.105	2.69
964.533	46.69
964.961	22.69
965.389	-8.31
965.817	5.69
966.245	-21.31
966.672	5.69
967.1	11.69
967.528	-3.31
967.956	3.69
968.383	-1.31
968.811	16.69
969.239	15.69
969.666	3.69
970.094	1.69
970.522	4.69
970.949	-17.31
971.377	1.69
971.804	2.69
972.232	4.69
972.659	27.69
973.087	-7.31
973.514	3.69
973.941	-6.31
974.369	-6.31
974.796	-4.31
975.223	-1.31
975.651	14.69
976.078	1.69
976.505	-1.31
976.932	8.69
977.359	8.69
977.786	9.69
978.214	35.69
978.641	11.69
979.068	5.69
979.495	10.69
979.922	7.69
980.349	30.69
980.776	-1.31
981.202	6.69
981.629	6.69
982.056	-1.31
982.483	1.69
982.91	24.69
983.337	-1.31
983.763	5.69
984.19	11.69
984.617	2.69
985.043	6.69
985.47	-0.31
985.897	7.69
986.323	7.69
986.75	-21.31
987.176	-12.31
987.603	10.69
988.029	-7.31
988.456	5.69
988.882	2.69
989.308	18.69
989.735	-2.31
990.161	-24.31
990.587	24.69
991.014	-18.31
991.44	-2.31
991.866	8.69
992.292	1.69
992.719	1.69
993.145	3.69
993.571	16.69
993.997	11.69
994.423	30.69
994.849	22.69
995.275	12.69
995.701	14.69
996.127	3.69
996.553	24.69
996.979	6.69
997.405	-4.31
997.83	4.69
998.256	3.69
998.682	-3.31
999.108	-22.31
999.534	28.69
999.959	-25.31
1000.385	8.69
1000.811	4.69
1001.236	15.69
1001.662	-15.31
1002.087	11.69
1002.513	24.69
1002.938	-13.31
1003.364	21.69
1003.789	4.69
1004.215	11.69
1004.64	2.69
1005.066	1.69
1005.491	-16.31
1005.916	12.69
1006.342	9.69
1006.767	13.69
1007.192	12.69
1007.617	-8.31
1008.042	5.69
1008.468	-8.31
1008.893	-5.31
1009.318	-18.31
1009.743	19.69
1010.168	-9.31
1010.593	10.69
1011.018	12.69
1011.443	17.69
1011.868	10.69
1012.293	7.69
1012.718	-8.31
1013.143	11.69
1013.567	3.69
1013.992	-0.31
1014.417	16.69
1014.842	-1.31
1015.267	-27.31
1015.691	25.69
1016.116	15.69
1016.541	15.69
1016.965	-22.31
1017.39	12.69
1017.814	3.69
1018.239	6.69
1018.663	-1.31
1019.088	24.69
1019.512	-1.31
1019.937	9.69
1020.361	5.69
1020.785	-13.31
1021.21	10.69
1021.634	-16.31
1022.058	-16.31
1022.483	-2.31
1022.907	-2.31
1023.331	19.69
1023.755	-6.31
1024.179	-8.31
1024.604	-4.31
1025.028	16.69
1025.452	18.69
1025.876	-3.31
1026.3	0.69
1026.724	-0.31
1027.148	12.69
1027.572	10.69
1027.996	12.69
1028.42	14.69
1028.843	18.69
1029.267	1.69
1029.691	8.69
1030.115	-6.31
1030.539	-3.31
1030.962	0.69
1031.386	-5.31
1031.81	7.69
1032.233	14.69
1032.657	-17.31
1033.08	11.69
1033.504	15.69
1033.927	-1.31
1034.351	-4.31
1034.774	9.69
1035.198	-4.31
1035.621	9.69
1036.045	-15.31
1036.468	-16.31
1036.891	-15.31
1037.315	-6.31
1037.738	30.69
1038.161	-6.31
1038.584	-3.31
1039.008	-1.31
1039.431	9.69
1039.854	8.69
1040.277	12.69
1040.7	-3.31
1041.123	5.69
1041.546	19.69
1041.969	-0.31
1042.392	38.69
1042.815	4.69
1043.238	12.69
1043.661	15.69
1044.084	-19.31
1044.507	-4.31
1044.93	-0.31
1045.352	-1.31
1045.775	12.69
1046.198	-24.31
1046.621	2.69
1047.043	20.69
1047.466	7.69
1047.889	-2.31
1048.311	-4.31
1048.734	-2.31
1049.156	12.69
1049.579	3.69
1050.001	14.69
1050.424	-11.31
1050.846	5.69
1051.269	6.69
1051.691	-7.31
1052.113	-16.31
1052.536	-4.31
1052.958	-6.31
1053.38	-5.31
1053.802	-27.31
1054.225	11.69
1054.647	27.69
1055.069	-8.31
1055.491	6.69
1055.913	15.69
1056.335	7.69
1056.757	21.69
1057.179	0.69
1057.601	-14.31
1058.023	-11.31
1058.445	-0.31
1058.867	6.69
1059.289	-5.31
1059.711	10.69
1060.133	13.69
1060.555	15.69
1060.976	-6.31
1061.398	4.69
1061.82	-1.31
1062.241	22.69
1062.663	11.69
1063.085	11.69
1063.506	0.69
1063.928	0.69
1064.35	-4.31
1064.771	-0.31
1065.193	14.69
1065.614	8.69
1066.035	10.69
1066.457	6.69
1066.878	24.69
1067.3	2.69
1067.721	-13.31
1068.142	-8.31
1068.564	13.69
1068.985	16.69
1069.406	11.69
1069.827	6.69
1070.248	-18.31
1070.67	22.69
1071.091	13.69
1071.512	-17.31
1071.933	2.69
1072.354	-12.31
1072.775	-5.31
1073.196	0.69
1073.617	0.69
1074.038	8.69
1074.459	-1.31
1074.88	-31.31
1075.3	-16.31
1075.721	3.69
1076.142	-24.31
1076.563	21.69
1076.983	-11.31
1077.404	16.69
1077.825	-9.31
1078.246	-11.31
1078.666	-3.31
1079.087	0.69
1079.507	-13.31
1079.928	2.69
1080.348	-0.31
1080.769	17.69
1081.189	19.69
1081.61	-5.31
1082.03	-4.31
1082.451	-10.31
1082.871	8.69
1083.291	3.69
1083.711	0.69
1084.132	-21.31
1084.552	12.69
1084.972	-19.31
1085.392	-7.31
1085.813	-1.31
1086.233	5.69
1086.653	6.69
1087.073	-4.31
1087.493	-17.31
1087.913	-15.31
1088.333	13.69
1088.753	4.69
1089.173	15.69
1089.593	10.69
1090.013	0.69
1090.433	-5.31
1090.852	-7.31
1091.272	-7.31
1091.692	21.69
1092.112	-30.31
1092.531	12.69
1092.951	1.69
1093.371	9.69
1093.79	6.69
1094.21	15.69
1094.63	9.69
1095.049	9.69
1095.469	25.69
1095.888	5.69
1096.308	-18.31
1096.727	6.69
1097.146	16.69
1097.566	4.69
1097.985	-4.31
1098.405	-21.31
1098.824	33.69
1099.243	-12.31
1099.662	2.69
1100.082	-5.31
1100.501	-6.31
1100.92	2.69
1101.339	12.69
1101.758	-3.31
