Data from MSPlasma+Separation6_Subt14_10-13-02-115.txt Node
Date: Fri Jul 21 10:13:02 EDT 2017
User: Ender
Spectrometer: HR+D1039
Trigger mode: 0
Integration Time (sec): 6.430000E-3
Scans to average: 20
Electric dark correction enabled: true
Nonlinearity correction enabled: false
Boxcar width: 0
XAxis mode: Wavelengths
Number of Pixels in Spectrum: 2048
>>>>>Begin Spectral Data<<<<<
187.836	0.89
188.309	0.89
188.782	0.89
189.255	0.94
189.728	0.24
190.201	-3.26
190.674	0.59
191.147	-1.56
191.619	-2.26
192.092	1.34
192.565	-2.91
193.038	0.49
193.511	2.14
193.984	2.34
194.456	-0.56
194.929	2.54
195.402	-2.16
195.874	1.14
196.347	4.94
196.82	0.64
197.292	-3.06
197.765	-5.71
198.237	-3.66
198.71	-1.81
199.182	-0.66
199.655	3.34
200.127	1.39
200.6	-2.11
201.072	0.44
201.544	-4.81
202.017	-3.86
202.489	2.29
202.961	-3.46
203.433	-4.21
203.906	-0.21
204.378	-2.96
204.85	0.84
205.322	-4.16
205.794	-1.01
206.266	-2.51
206.739	1.74
207.211	-2.71
207.683	-1.96
208.155	-2.06
208.627	-2.01
209.099	4.69
209.57	-1.11
210.042	3.09
210.514	-1.86
210.986	-5.91
211.458	-4.41
211.93	-4.96
212.402	-3.81
212.873	-4.61
213.345	-3.16
213.817	-0.81
214.288	-6.81
214.76	1.99
215.232	-4.51
215.703	-4.16
216.175	1.34
216.646	-1.66
217.118	-2.51
217.589	-1.41
218.061	-3.51
218.532	-1.96
219.004	-0.16
219.475	-1.71
219.946	5.99
220.418	0.44
220.889	-1.21
221.36	3.59
221.832	4.09
222.303	-0.91
222.774	0.59
223.245	-0.56
223.717	-0.51
224.188	2.19
224.659	0.49
225.13	0.14
225.601	2.39
226.072	0.99
226.543	3.84
227.014	-0.36
227.485	4.29
227.956	3.69
228.427	6.39
228.898	-1.71
229.369	2.29
229.839	3.34
230.31	6.64
230.781	6.59
231.252	6.79
231.722	4.29
232.193	6.79
232.664	3.84
233.135	5.59
233.605	7.09
234.076	7.39
234.546	6.89
235.017	3.69
235.487	9.04
235.958	4.84
236.428	11.24
236.899	2.49
237.369	8.89
237.84	7.54
238.31	7.69
238.78	1.14
239.251	8.49
239.721	5.94
240.191	5.39
240.662	9.39
241.132	5.14
241.602	11.54
242.072	13.14
242.542	6.79
243.013	7.69
243.483	10.54
243.953	6.04
244.423	9.19
244.893	6.89
245.363	13.39
245.833	11.49
246.303	4.54
246.773	13.14
247.243	9.39
247.712	12.99
248.182	14.79
248.652	17.89
249.122	13.34
249.592	17.39
250.061	6.14
250.531	12.49
251.001	15.29
251.471	18.59
251.94	11.09
252.41	16.49
252.879	18.24
253.349	20.99
253.818	17.89
254.288	24.79
254.757	17.89
255.227	17.34
255.696	21.94
256.166	25.39
256.635	23.19
257.105	14.99
257.574	17.74
258.043	21.89
258.513	21.64
258.982	22.94
259.451	22.94
259.92	17.39
260.389	19.79
260.859	21.59
261.328	23.79
261.797	22.99
262.266	27.64
262.735	25.04
263.204	21.54
263.673	26.49
264.142	20.19
264.611	27.54
265.08	24.19
265.549	24.59
266.018	26.54
266.487	27.49
266.955	23.24
267.424	27.59
267.893	28.59
268.362	27.44
268.83	26.39
269.299	29.94
269.768	24.24
270.236	24.74
270.705	31.19
271.174	28.09
271.642	29.69
272.111	33.99
272.579	32.49
273.048	33.49
273.516	33.64
273.985	30.99
274.453	31.54
274.922	29.09
275.39	29.64
275.858	36.69
276.327	33.99
276.795	28.14
277.263	34.49
277.731	32.24
278.2	37.09
278.668	31.64
279.136	43.44
279.604	36.64
280.072	39.19
280.54	35.29
281.008	47.29
281.477	41.64
281.945	38.99
282.413	43.39
282.881	41.34
283.348	41.69
283.816	42.84
284.284	43.04
284.752	46.54
285.22	49.74
285.688	39.99
286.156	44.39
286.623	42.94
287.091	44.59
287.559	46.14
288.026	47.39
288.494	51.44
288.962	49.94
289.429	46.59
289.897	46.94
290.364	40.29
290.832	48.34
291.3	47.39
291.767	48.34
292.234	50.54
292.702	50.34
293.169	55.74
293.637	57.74
294.104	57.34
294.571	55.49
295.039	57.64
295.506	48.49
295.973	58.19
296.44	51.94
296.908	54.44
297.375	57.09
297.842	58.54
298.309	58.14
298.776	56.39
299.243	61.19
299.71	58.89
300.177	63.09
300.644	55.89
301.111	59.39
301.578	60.44
302.045	59.34
302.512	67.24
302.979	65.49
303.446	68.89
303.913	69.04
304.379	65.94
304.846	71.24
305.313	75.29
305.78	77.69
306.246	72.49
306.713	72.89
307.18	76.34
307.646	76.19
308.113	72.14
308.579	78.39
309.046	84.89
309.512	82.34
309.979	82.89
310.445	80.19
310.912	84.49
311.378	83.79
311.845	87.74
312.311	82.99
312.777	84.39
313.244	86.49
313.71	86.59
314.176	96.94
314.642	88.09
315.109	88.89
315.575	87.14
316.041	91.09
316.507	88.74
316.973	97.44
317.439	94.64
317.905	96.24
318.371	95.19
318.837	92.79
319.303	95.94
319.769	94.19
320.235	99.74
320.701	99.79
321.167	101.24
321.633	101.89
322.099	99.49
322.564	102.89
323.03	99.94
323.496	102.29
323.962	106.59
324.427	107.79
324.893	103.24
325.359	112.84
325.824	109.84
326.29	112.69
326.755	107.69
327.221	106.39
327.686	120.09
328.152	116.49
328.617	120.09
329.083	116.94
329.548	119.64
330.014	118.69
330.479	122.34
330.944	121.89
331.41	129.64
331.875	117.79
332.34	118.89
332.805	125.44
333.271	125.89
333.736	128.39
334.201	126.59
334.666	135.09
335.131	134.19
335.596	133.49
336.061	132.94
336.526	129.64
336.991	130.19
337.456	126.79
337.921	124.89
338.386	124.14
338.851	124.29
339.316	133.24
339.781	128.54
340.246	129.89
340.711	129.99
341.175	138.94
341.64	137.09
342.105	144.39
342.569	148.19
343.034	143.24
343.499	145.59
343.963	150.19
344.428	146.44
344.893	149.29
345.357	158.69
345.822	153.64
346.286	163.79
346.751	162.39
347.215	163.19
347.679	168.29
348.144	176.84
348.608	181.34
349.073	179.49
349.537	187.69
350.001	191.69
350.465	186.54
350.93	180.74
351.394	189.29
351.858	184.54
352.322	189.69
352.786	192.59
353.25	190.99
353.715	195.59
354.179	204.44
354.643	211.89
355.107	213.64
355.571	205.29
356.035	203.34
356.498	201.99
356.962	199.54
357.426	196.64
357.89	199.49
358.354	197.14
358.818	198.94
359.281	199.29
359.745	199.79
360.209	197.09
360.673	199.89
361.136	204.49
361.6	199.24
362.064	207.64
362.527	216.59
362.991	212.69
363.454	211.94
363.918	215.59
364.381	219.59
364.845	215.84
365.308	217.89
365.772	218.44
366.235	217.39
366.698	216.24
367.162	211.69
367.625	220.59
368.088	226.94
368.552	221.79
369.015	222.84
369.478	226.29
369.941	223.79
370.404	234.79
370.867	229.24
371.331	230.19
371.794	230.29
372.257	235.79
372.72	232.19
373.183	236.84
373.646	235.34
374.109	232.54
374.572	239.49
375.035	243.74
375.497	240.69
375.96	246.64
376.423	252.14
376.886	257.89
377.349	258.59
377.811	265.39
378.274	264.39
378.737	255.04
379.199	258.19
379.662	262.49
380.125	263.94
380.587	270.74
381.05	277.04
381.512	275.44
381.975	281.84
382.437	288.94
382.9	288.24
383.362	279.54
383.825	286.84
384.287	288.14
384.75	293.94
385.212	293.29
385.674	293.39
386.136	299.49
386.599	297.19
387.061	295.54
387.523	303.04
387.985	299.69
388.447	303.59
388.91	300.84
389.372	305.49
389.834	304.44
390.296	295.64
390.758	303.79
391.22	302.34
391.682	300.74
392.144	304.54
392.606	310.24
393.068	318.99
393.529	344.84
393.991	338.29
394.453	326.34
394.915	313.84
395.377	304.29
395.838	314.04
396.3	311.89
396.762	315.99
397.224	319.14
397.685	314.84
398.147	320.94
398.608	328.49
399.07	335.69
399.531	323.79
399.993	336.79
400.454	341.04
400.916	336.94
401.377	349.84
401.839	348.34
402.3	351.14
402.762	371.14
403.223	395.14
403.684	387.39
404.145	367.64
404.607	363.99
405.068	355.74
405.529	352.34
405.99	360.24
406.451	368.89
406.913	361.59
407.374	355.79
407.835	351.84
408.296	370.29
408.757	370.04
409.218	383.29
409.679	385.34
410.14	395.19
410.601	412.69
411.062	411.34
411.522	415.69
411.983	413.89
412.444	430.54
412.905	434.29
413.366	458.04
413.826	485.54
414.287	544.49
414.748	680.59
415.208	691.84
415.669	570.59
416.13	514.74
416.59	499.44
417.051	526.14
417.511	548.89
417.972	594.24
418.432	643.34
418.893	721.69
419.353	687.09
419.814	516.69
420.274	455.64
420.734	448.69
421.195	457.29
421.655	457.69
422.115	463.54
422.576	461.19
423.036	464.79
423.496	482.99
423.956	500.54
424.416	537.24
424.876	604.94
425.336	599.09
425.797	575.09
426.257	563.69
426.717	528.29
427.177	472.24
427.637	459.39
428.097	481.69
428.556	494.74
429.016	529.94
429.476	514.59
429.936	492.69
430.396	478.84
430.856	483.94
431.315	496.69
431.775	533.24
432.235	577.84
432.694	593.64
433.154	544.99
433.614	525.39
434.073	516.09
434.533	469.44
434.993	466.69
435.452	476.29
435.912	470.34
436.371	482.39
436.83	482.74
437.29	479.34
437.749	470.24
438.209	479.64
438.668	485.79
439.127	499.04
439.587	497.34
440.046	492.94
440.505	507.19
440.964	505.84
441.424	523.19
441.883	538.99
442.342	514.44
442.801	496.59
443.26	505.64
443.719	497.04
444.178	493.79
444.637	505.19
445.096	513.79
445.555	520.69
446.014	518.84
446.473	505.34
446.932	518.04
447.391	519.04
447.849	533.99
448.308	529.29
448.767	526.69
449.226	539.84
449.685	556.39
450.143	575.54
450.602	573.49
451.061	537.59
451.519	539.59
451.978	535.74
452.436	532.99
452.895	538.09
453.353	534.74
453.812	524.29
454.27	526.34
454.729	531.74
455.187	537.99
455.646	539.69
456.104	539.09
456.562	547.59
457.021	553.94
457.479	526.29
457.937	550.19
458.395	557.99
458.854	557.09
459.312	552.24
459.77	553.89
460.228	562.99
460.686	563.44
461.144	570.14
461.602	560.09
462.06	563.39
462.518	578.84
462.976	578.64
463.434	582.69
463.892	595.04
464.35	599.94
464.808	599.44
465.266	620.04
465.724	619.09
466.181	627.19
466.639	618.24
467.097	642.74
467.555	667.39
468.012	659.89
468.47	661.44
468.928	682.44
469.385	701.79
469.843	706.24
470.3	698.29
470.758	722.34
471.215	728.84
471.673	736.34
472.13	755.04
472.588	773.49
473.045	768.09
473.503	778.99
473.96	806.54
474.417	805.74
474.875	833.29
475.332	852.84
475.789	861.24
476.246	873.24
476.704	901.39
477.161	901.99
477.618	901.44
478.075	924.89
478.532	944.79
478.989	977.99
479.446	1023.14
479.903	1009.39
480.36	1035.89
480.817	1037.99
481.274	1035.74
481.731	1068.64
482.188	1090.74
482.645	1116.79
483.102	1127.34
483.558	1153.74
484.015	1185.59
484.472	1175.29
484.929	1184.04
485.385	1180.59
485.842	1186.24
486.299	1198.34
486.755	1187.54
487.212	1171.34
487.668	1135.74
488.125	1143.24
488.582	1132.74
489.038	1134.34
489.494	1143.34
489.951	1147.14
490.407	1154.04
490.864	1143.49
491.32	1146.89
491.776	1152.94
492.233	1175.94
492.689	1167.49
493.145	1158.69
493.602	1148.49
494.058	1176.59
494.514	1179.99
494.97	1184.59
495.426	1196.24
495.882	1214.99
496.338	1203.89
496.794	1224.94
497.251	1217.34
497.707	1239.54
498.163	1246.84
498.618	1249.04
499.074	1240.84
499.53	1263.04
499.986	1267.04
500.442	1262.79
500.898	1252.04
501.354	1265.29
501.809	1267.84
502.265	1265.79
502.721	1269.14
503.177	1281.69
503.632	1284.49
504.088	1299.49
504.543	1305.44
504.999	1313.79
505.455	1312.19
505.91	1305.64
506.366	1312.49
506.821	1312.69
507.277	1298.54
507.732	1310.04
508.187	1309.24
508.643	1324.54
509.098	1324.69
509.553	1343.84
510.009	1347.69
510.464	1376.89
510.919	1392.29
511.375	1403.29
511.83	1417.84
512.285	1444.34
512.74	1474.79
513.195	1493.49
513.65	1522.19
514.105	1553.04
514.56	1544.14
515.015	1576.64
515.47	1587.29
515.925	1564.54
516.38	1569.09
516.835	1578.39
517.29	1558.74
517.745	1560.04
518.2	1543.24
518.655	1503.09
519.109	1485.59
519.564	1459.74
520.019	1451.19
520.474	1434.04
520.928	1430.44
521.383	1426.14
521.838	1415.44
522.292	1414.34
522.747	1395.54
523.201	1384.79
523.656	1370.34
524.11	1372.09
524.565	1367.74
525.019	1367.14
525.474	1364.49
525.928	1357.44
526.382	1357.84
526.837	1355.84
527.291	1356.44
527.745	1341.84
528.2	1349.84
528.654	1325.49
529.108	1343.89
529.562	1330.54
530.016	1325.34
530.47	1336.29
530.925	1329.54
531.379	1335.94
531.833	1344.99
532.287	1335.39
532.741	1339.84
533.195	1348.79
533.649	1340.64
534.103	1339.44
534.556	1329.34
535.01	1334.69
535.464	1323.24
535.918	1338.39
536.372	1358.99
536.826	1346.19
537.279	1332.49
537.733	1329.49
538.187	1335.14
538.64	1329.34
539.094	1346.74
539.548	1368.99
540.001	1363.04
540.455	1366.44
540.908	1384.84
541.362	1395.49
541.815	1405.64
542.269	1432.89
542.722	1436.84
543.175	1442.09
543.629	1456.29
544.082	1465.94
544.536	1487.99
544.989	1492.89
545.442	1489.39
545.895	1487.19
546.349	1496.84
546.802	1506.24
547.255	1506.89
547.708	1511.19
548.161	1528.84
548.614	1533.74
549.067	1533.69
549.52	1529.64
549.973	1497.34
550.426	1510.44
550.879	1501.89
551.332	1501.09
551.785	1500.84
552.238	1504.29
552.691	1511.04
553.144	1530.84
553.596	1570.49
554.049	1585.79
554.502	1636.09
554.955	1658.54
555.407	1691.74
555.86	1660.69
556.313	1633.09
556.765	1620.64
557.218	1599.44
557.67	1582.79
558.123	1558.69
558.576	1559.44
559.028	1564.54
559.48	1592.19
559.933	1582.84
560.385	1517.39
560.838	1464.24
561.29	1419.84
561.742	1421.09
562.195	1381.69
562.647	1365.94
563.099	1366.09
563.551	1348.99
564.004	1379.09
564.456	1361.54
564.908	1328.84
565.36	1297.54
565.812	1275.09
566.264	1259.09
566.716	1242.59
567.168	1213.69
567.62	1214.59
568.072	1205.49
568.524	1205.49
568.976	1199.39
569.428	1179.89
569.88	1188.99
570.332	1195.19
570.784	1195.34
571.235	1185.29
571.687	1200.84
572.139	1207.69
572.59	1211.74
573.042	1228.29
573.494	1222.99
573.945	1198.79
574.397	1181.04
574.849	1171.24
575.3	1175.19
575.752	1152.29
576.203	1150.99
576.655	1155.29
577.106	1130.89
577.557	1122.04
578.009	1115.94
578.46	1119.39
578.912	1115.64
579.363	1123.84
579.814	1116.64
580.265	1120.99
580.717	1125.04
581.168	1124.99
581.619	1128.14
582.07	1140.29
582.521	1124.84
582.972	1124.84
583.423	1119.89
583.875	1132.19
584.326	1140.34
584.777	1157.49
585.227	1184.59
585.678	1189.89
586.129	1207.39
586.58	1220.64
587.031	1245.84
587.482	1280.84
587.933	1297.64
588.384	1298.64
588.834	1279.64
589.285	1282.14
589.736	1276.94
590.186	1276.24
590.637	1264.04
591.088	1227.09
591.538	1205.04
591.989	1193.59
592.439	1175.74
592.89	1161.14
593.34	1158.49
593.791	1149.14
594.241	1146.99
594.692	1136.69
595.142	1139.29
595.593	1135.59
596.043	1135.54
596.493	1150.14
596.943	1156.54
597.394	1185.99
597.844	1194.74
598.294	1229.04
598.744	1268.14
599.195	1334.14
599.645	1424.49
600.095	1508.44
600.545	1585.19
600.995	1659.44
601.445	1719.69
601.895	1804.99
602.345	1876.19
602.795	1848.99
603.245	1762.79
603.695	1652.19
604.145	1541.44
604.594	1469.49
605.044	1390.54
605.494	1295.39
605.944	1218.84
606.393	1186.99
606.843	1177.04
607.293	1169.54
607.743	1156.49
608.192	1174.74
608.642	1176.89
609.091	1166.49
609.541	1169.14
609.99	1173.09
610.44	1138.14
610.889	1130.34
611.339	1107.34
611.788	1095.89
612.238	1098.19
612.687	1115.19
613.136	1116.09
613.586	1122.89
614.035	1109.19
614.484	1124.89
614.933	1127.44
615.383	1110.09
615.832	1072.29
616.281	1062.29
616.73	1038.69
617.179	1026.24
617.628	995.44
618.077	985.14
618.526	973.09
618.975	967.69
619.424	944.19
619.873	948.74
620.322	938.69
620.771	935.74
621.22	926.54
621.669	895.89
622.118	890.29
622.567	877.19
623.015	859.04
623.464	859.19
623.913	852.04
624.361	848.59
624.81	843.74
625.259	848.19
625.707	841.59
626.156	851.59
626.604	856.39
627.053	869.64
627.501	860.49
627.95	878.89
628.398	883.09
628.847	874.89
629.295	868.39
629.744	855.04
630.192	847.69
630.64	830.79
631.089	815.04
631.537	783.89
631.985	781.59
632.433	779.79
632.881	771.24
633.33	772.99
633.778	776.99
634.226	778.94
634.674	780.49
635.122	794.19
635.57	804.09
636.018	817.04
636.466	812.84
636.914	802.94
637.362	826.49
637.81	839.29
638.258	863.39
638.705	875.99
639.153	912.79
639.601	912.24
640.049	928.64
640.497	949.79
640.944	981.79
641.392	928.14
641.84	853.39
642.287	801.64
642.735	767.59
643.182	755.39
643.63	749.24
644.078	739.89
644.525	739.49
644.973	750.69
645.42	756.14
645.867	749.14
646.315	754.29
646.762	760.94
647.21	754.49
647.657	761.49
648.104	747.64
648.551	724.04
648.999	720.39
649.446	717.74
649.893	712.19
650.34	716.44
650.787	739.54
651.234	768.94
651.682	827.59
652.129	908.39
652.576	1031.19
653.023	1190.29
653.47	1282.99
653.917	1328.89
654.363	1373.94
654.81	1434.19
655.257	1464.79
655.704	1164.14
656.151	908.44
656.598	796.74
657.044	736.24
657.491	722.74
657.938	705.14
658.385	689.64
658.831	686.24
659.278	686.89
659.724	681.29
660.171	664.59
660.618	645.49
661.064	640.09
661.511	646.04
661.957	645.39
662.404	654.49
662.85	662.79
663.296	660.19
663.743	665.94
664.189	670.04
664.635	676.24
665.082	661.19
665.528	665.79
665.974	641.29
666.42	644.14
666.867	638.29
667.313	604.99
667.759	607.79
668.205	601.09
668.651	606.29
669.097	607.24
669.543	612.19
669.989	623.04
670.435	624.29
670.881	634.79
671.327	666.74
671.773	712.54
672.219	764.69
672.665	833.99
673.11	876.29
673.556	891.04
674.002	934.64
674.448	945.09
674.893	793.94
675.339	676.54
675.785	625.79
676.23	591.84
676.676	560.24
677.122	549.74
677.567	536.49
678.013	514.04
678.458	516.04
678.904	516.44
679.349	505.04
679.794	503.64
680.24	509.99
680.685	505.09
681.131	497.44
681.576	507.59
682.021	510.54
682.466	522.79
682.912	513.09
683.357	545.94
683.802	593.69
684.247	660.94
684.692	707.94
685.137	746.14
685.583	762.39
686.028	811.74
686.473	754.79
686.918	651.29
687.363	593.34
687.807	559.29
688.252	530.64
688.697	516.34
689.142	490.19
689.587	497.39
690.032	514.54
690.477	529.59
690.921	557.49
691.366	589.19
691.811	617.59
692.255	675.94
692.7	818.04
693.145	1183.59
693.589	1813.19
694.034	2200.79
694.478	2379.39
694.923	2231.54
695.367	3226.59
695.812	1920.74
696.256	779.19
696.701	547.99
697.145	506.59
697.59	487.44
698.034	481.14
698.478	473.79
698.922	474.29
699.367	493.94
699.811	522.59
700.255	571.24
700.699	626.89
701.143	683.09
701.588	725.34
702.032	765.99
702.476	794.49
702.92	832.74
703.364	1074.84
703.808	1672.64
704.252	2110.24
704.696	2282.89
705.14	2193.69
705.584	3065.79
706.027	1656.49
706.471	808.54
706.915	583.99
707.359	514.09
707.803	479.34
708.246	459.14
708.69	461.64
709.134	451.94
709.577	450.79
710.021	456.64
710.465	459.54
710.908	450.69
711.352	470.69
711.795	524.04
712.239	571.69
712.682	583.84
713.126	572.69
713.569	654.34
714.012	523.79
714.456	448.79
714.899	424.49
715.342	398.29
715.786	388.44
716.229	379.19
716.672	363.34
717.115	370.64
717.558	373.24
718.002	384.24
718.445	404.99
718.888	426.74
719.331	438.64
719.774	449.99
720.217	433.29
720.66	415.89
721.103	382.14
721.546	360.69
721.989	348.19
722.432	345.59
722.874	347.69
723.317	350.34
723.76	384.84
724.203	484.79
724.645	651.84
725.088	780.19
725.531	773.04
725.974	870.34
726.416	762.49
726.859	449.04
727.301	366.04
727.744	345.49
728.187	349.89
728.629	355.24
729.071	378.24
729.514	394.74
729.956	410.84
730.399	425.24
730.841	425.14
731.283	413.09
731.726	397.64
732.168	399.04
732.61	422.99
733.053	459.14
733.495	516.19
733.937	574.19
734.379	679.09
734.821	869.19
735.263	1374.39
735.705	2495.74
736.148	3723.14
736.59	3816.29
737.032	4239.29
737.474	3462.49
737.916	1293.94
738.357	662.99
738.799	496.39
739.241	452.99
739.683	463.99
740.125	472.84
740.567	469.64
741.008	503.39
741.45	529.14
741.892	555.44
742.334	560.09
742.775	561.69
743.217	533.69
743.658	446.39
744.1	448.84
744.542	512.94
744.983	539.44
745.425	568.09
745.866	552.94
746.307	470.34
746.749	497.64
747.19	742.29
747.632	1458.79
748.073	2725.94
748.514	3841.74
748.956	5218.09
749.397	6181.14
749.838	4235.79
750.279	4118.39
750.72	2090.84
751.162	857.34
751.603	475.69
752.044	376.89
752.485	336.54
752.926	317.09
753.367	304.64
753.808	289.89
754.249	282.34
754.69	274.89
755.131	278.84
755.572	277.39
756.013	270.14
756.453	275.14
756.894	285.19
757.335	281.99
757.776	288.34
758.216	297.39
758.657	315.14
759.098	350.59
759.538	425.89
759.979	619.89
760.42	1273.59
760.86	3247.69
761.301	6942.49
761.741	8410.44
762.182	9996.89
762.622	6347.49
763.063	2207.24
763.503	879.29
763.943	510.19
764.384	402.24
764.824	336.99
765.264	314.14
765.705	298.49
766.145	277.19
766.585	271.29
767.025	256.29
767.465	255.74
767.906	267.49
768.346	287.89
768.786	335.34
769.226	490.39
769.666	1005.14
770.106	2263.69
770.546	3340.14
770.986	3894.14
771.426	2965.14
771.866	1189.99
772.306	524.04
772.745	316.84
773.185	258.69
773.625	255.19
774.065	264.54
774.505	366.49
774.944	637.59
775.384	925.34
775.824	1071.34
776.263	897.09
776.703	470.14
777.142	270.94
777.582	210.04
778.021	195.64
778.461	183.59
778.9	182.44
779.34	179.29
779.779	171.74
780.219	168.89
780.658	163.49
781.097	165.54
781.537	159.74
781.976	161.14
782.415	158.39
782.855	160.59
783.294	160.89
783.733	155.24
784.172	159.54
784.611	154.44
785.05	166.24
785.489	172.24
785.928	175.14
786.367	183.74
786.806	183.74
787.245	201.79
787.684	214.34
788.123	208.99
788.562	206.49
789.001	195.29
789.44	187.29
789.879	190.39
790.317	193.39
790.756	199.04
791.195	229.64
791.634	309.39
792.072	571.79
792.511	1436.99
792.95	2715.59
793.388	3412.59
793.827	2214.69
794.265	975.04
794.704	465.44
795.142	278.19
795.581	225.39
796.019	199.89
796.458	203.19
796.896	206.04
797.334	245.79
797.773	328.64
798.211	639.69
798.649	1364.54
799.087	2317.44
799.526	3279.99
799.964	3460.89
800.402	2405.64
800.84	1056.54
801.278	502.24
801.716	301.89
802.154	241.34
802.592	226.34
803.03	227.99
803.468	230.64
803.906	238.24
804.344	221.64
804.782	220.39
805.22	220.99
805.658	228.19
806.096	247.89
806.533	275.54
806.971	355.04
807.409	515.94
807.847	1040.79
808.284	2672.14
808.722	4862.29
809.16	6844.69
809.597	9166.29
810.035	11735.49
810.472	7654.39
810.91	3156.19
811.347	1405.24
811.785	656.29
812.222	409.94
812.66	310.79
813.097	259.04
813.535	225.54
813.972	203.79
814.409	185.89
814.846	184.59
815.284	165.34
815.721	174.54
816.158	181.69
816.595	246.79
817.032	316.44
817.47	283.59
817.907	208.34
818.344	181.54
818.781	179.89
819.218	210.49
819.655	328.74
820.092	430.39
820.529	387.94
820.966	300.14
821.403	206.24
821.839	175.69
822.276	198.24
822.713	243.79
823.15	225.99
823.587	237.64
824.023	430.39
824.46	1118.19
824.897	2020.69
825.333	1597.39
825.77	712.49
826.206	366.84
826.643	206.29
827.08	155.44
827.516	135.49
827.953	124.29
828.389	116.19
828.825	112.29
829.262	107.34
829.698	104.09
830.135	95.19
830.571	97.09
831.007	98.64
831.443	95.24
831.88	100.19
832.316	104.04
832.752	101.84
833.188	107.34
833.624	109.14
834.06	105.09
834.497	104.74
834.933	110.64
835.369	123.19
835.805	126.09
836.241	127.94
836.677	149.54
837.112	170.04
837.548	210.69
837.984	320.89
838.42	696.79
838.856	1960.64
839.292	4006.39
839.727	2985.89
840.163	1948.29
840.599	2917.84
841.034	4676.84
841.47	2356.64
841.906	1108.14
842.341	574.49
842.777	402.14
843.212	410.64
843.648	257.54
844.083	177.19
844.519	134.89
844.954	114.09
845.39	101.64
845.825	95.29
846.261	95.09
846.696	87.39
847.131	83.64
847.566	88.49
848.002	89.84
848.437	98.84
848.872	100.74
849.307	130.04
849.742	235.84
850.177	641.74
850.613	1429.19
851.048	1033.44
851.483	455.14
851.918	240.34
852.353	130.74
852.788	92.39
853.223	83.74
853.657	74.09
854.092	72.49
854.527	72.44
854.962	81.14
855.397	85.54
855.832	75.69
856.266	63.09
856.701	62.04
857.136	65.74
857.57	75.84
858.005	98.79
858.44	82.09
858.874	80.99
859.309	81.19
859.743	80.49
860.178	81.04
860.612	86.19
861.047	114.79
861.481	162.44
861.915	108.59
862.35	82.79
862.784	66.09
863.218	62.09
863.653	69.79
864.087	80.44
864.521	106.09
864.955	183.99
865.39	331.19
865.824	236.99
866.258	286.84
866.692	442.69
867.126	316.64
867.56	168.44
867.994	106.64
868.428	88.89
868.862	117.19
869.296	102.34
869.73	129.09
870.164	105.24
870.598	97.49
871.031	67.49
871.465	61.94
871.899	48.34
872.333	39.44
872.766	44.24
873.2	47.39
873.634	43.94
874.067	47.19
874.501	49.34
874.935	49.14
875.368	45.94
875.802	43.54
876.235	34.54
876.669	41.59
877.102	38.24
877.535	38.94
877.969	33.49
878.402	37.09
878.836	35.19
879.269	33.64
879.702	34.79
880.135	35.84
880.569	40.79
881.002	34.34
881.435	31.44
881.868	37.24
882.301	32.54
882.734	32.89
883.167	33.84
883.601	34.24
884.034	32.79
884.467	27.49
884.899	35.74
885.332	23.19
885.765	31.19
886.198	23.39
886.631	28.29
887.064	26.64
887.497	28.09
887.929	28.44
888.362	30.24
888.795	25.39
889.228	27.54
889.66	28.74
890.093	25.34
890.526	28.79
890.958	24.04
891.391	32.69
891.823	27.49
892.256	28.19
892.688	30.94
893.121	28.74
893.553	29.39
893.985	27.64
894.418	24.39
894.85	29.79
895.282	27.99
895.715	23.24
896.147	19.79
896.579	20.84
897.011	28.49
897.444	24.14
897.876	20.04
898.308	23.24
898.74	25.14
899.172	25.59
899.604	24.19
900.036	25.94
900.468	21.34
900.9	26.04
901.332	36.39
901.764	31.39
902.196	33.54
902.628	32.29
903.06	50.99
903.491	51.24
903.923	45.64
904.355	43.79
904.787	45.84
905.218	33.64
905.65	36.79
906.082	34.54
906.513	30.29
906.945	30.34
907.376	26.14
907.808	27.09
908.239	33.89
908.671	38.74
909.102	42.14
909.534	64.29
909.965	122.54
910.397	323.74
910.828	967.39
911.259	592.19
911.691	306.79
912.122	178.04
912.553	83.99
912.984	47.34
913.415	39.79
913.847	36.14
914.278	32.44
914.709	28.74
915.14	28.19
915.571	33.04
916.002	30.89
916.433	26.59
916.864	29.39
917.295	26.89
917.726	34.94
918.157	42.64
918.587	41.74
919.018	35.34
919.449	37.74
919.88	43.99
920.311	67.39
920.741	194.94
921.172	354.24
921.603	176.69
922.033	106.24
922.464	65.39
922.895	42.49
923.325	29.54
923.756	28.09
924.186	31.29
924.617	46.84
925.047	63.94
925.478	61.44
925.908	44.64
926.338	33.09
926.769	25.54
927.199	26.39
927.629	21.09
928.06	28.59
928.49	25.59
928.92	19.89
929.35	19.54
929.78	14.39
930.21	19.14
930.641	10.29
931.071	15.69
931.501	14.49
931.931	10.24
932.361	14.14
932.791	15.09
933.221	19.04
933.651	24.89
934.08	44.24
934.51	23.69
934.94	22.19
935.37	18.59
935.8	17.14
936.229	10.44
936.659	7.99
937.089	22.64
937.519	34.29
937.948	52.19
938.378	30.09
938.807	13.69
939.237	10.04
939.666	9.94
940.096	6.04
940.525	1.49
940.955	8.19
941.384	3.69
941.814	6.59
942.243	6.04
942.672	5.89
943.102	3.19
943.531	2.69
943.96	2.64
944.39	3.84
944.819	11.54
945.248	8.64
945.677	8.99
946.106	6.29
946.535	5.74
946.964	4.64
947.393	2.79
947.822	7.09
948.251	6.49
948.68	7.44
949.109	4.54
949.538	1.44
949.967	4.29
950.396	5.69
950.825	9.24
951.254	5.79
951.682	2.14
952.111	5.09
952.54	7.54
952.969	-3.96
953.397	3.64
953.826	-0.21
954.254	5.99
954.683	6.14
955.112	9.59
955.54	5.34
955.969	0.04
956.397	3.29
956.826	1.19
957.254	4.09
957.682	1.24
958.111	6.84
958.539	6.79
958.967	5.69
959.396	9.84
959.824	1.64
960.252	4.69
960.68	3.34
961.109	3.69
961.537	8.19
961.965	-2.76
962.393	0.54
962.821	7.19
963.249	0.94
963.677	8.29
964.105	63.54
964.533	102.14
964.961	47.44
965.389	28.54
965.817	13.04
966.245	9.59
966.672	6.14
967.1	6.99
967.528	1.84
967.956	2.39
968.383	4.29
968.811	2.34
969.239	2.64
969.666	3.39
970.094	3.54
970.522	-0.76
970.949	5.14
971.377	-1.21
971.804	-0.41
972.232	0.34
972.659	2.19
973.087	3.39
973.514	-5.56
973.941	1.24
974.369	-2.31
974.796	0.44
975.223	0.04
975.651	5.19
976.078	3.39
976.505	5.54
976.932	23.44
977.359	27.64
977.786	16.54
978.214	11.84
978.641	3.89
979.068	0.59
979.495	0.99
979.922	5.04
980.349	2.09
980.776	2.79
981.202	1.34
981.629	7.09
982.056	3.94
982.483	-1.61
982.91	4.79
983.337	-4.36
983.763	2.74
984.19	4.69
984.617	1.24
985.043	-0.66
985.47	1.84
985.897	1.39
986.323	8.34
986.75	2.24
987.176	1.39
987.603	3.94
988.029	2.24
988.456	5.09
988.882	0.24
989.308	-1.31
989.735	-0.61
990.161	1.14
990.587	-1.71
991.014	3.19
991.44	1.89
991.866	1.14
992.292	2.84
992.719	-0.06
993.145	5.74
993.571	2.39
993.997	6.19
994.423	3.89
994.849	-1.61
995.275	2.24
995.701	2.04
996.127	-4.76
996.553	0.84
996.979	2.14
997.405	5.49
997.83	2.19
998.256	3.74
998.682	-2.81
999.108	1.89
999.534	-7.21
999.959	-1.51
1000.385	2.99
1000.811	-1.21
1001.236	-3.76
1001.662	-1.91
1002.087	8.44
1002.513	3.89
1002.938	-2.21
1003.364	4.24
1003.789	5.94
1004.215	1.19
1004.64	1.99
1005.066	2.59
1005.491	3.04
1005.916	0.89
1006.342	3.39
1006.767	6.94
1007.192	3.19
1007.617	3.34
1008.042	-1.36
1008.468	0.59
1008.893	5.59
1009.318	6.34
1009.743	7.74
1010.168	17.89
1010.593	16.64
1011.018	7.34
1011.443	3.24
1011.868	-3.21
1012.293	2.29
1012.718	-5.16
1013.143	0.44
1013.567	6.64
1013.992	2.09
1014.417	2.29
1014.842	1.44
1015.267	-0.26
1015.691	0.49
1016.116	-0.01
1016.541	4.09
1016.965	0.04
1017.39	2.39
1017.814	-3.06
1018.239	-0.11
1018.663	-6.01
1019.088	0.24
1019.512	0.69
1019.937	-6.41
1020.361	1.29
1020.785	-3.36
1021.21	-2.01
1021.634	-1.61
1022.058	2.04
1022.483	-4.31
1022.907	-2.16
1023.331	-3.26
1023.755	2.64
1024.179	-0.81
1024.604	0.04
1025.028	-0.31
1025.452	-1.41
1025.876	5.49
1026.3	-1.06
1026.724	-0.81
1027.148	3.74
1027.572	0.44
1027.996	4.94
1028.42	3.34
1028.843	-1.41
1029.267	-2.66
1029.691	-0.96
1030.115	-5.11
1030.539	-3.56
1030.962	-4.66
1031.386	-5.01
1031.81	-1.61
1032.233	-0.51
1032.657	-5.81
1033.08	0.54
1033.504	-0.86
1033.927	-1.16
1034.351	-0.66
1034.774	-0.16
1035.198	-0.46
1035.621	0.74
1036.045	3.09
1036.468	4.39
1036.891	-0.56
1037.315	0.04
1037.738	-1.81
1038.161	0.64
1038.584	1.69
1039.008	-4.51
1039.431	-2.91
1039.854	-6.61
1040.277	3.49
1040.7	-2.36
1041.123	3.19
1041.546	1.64
1041.969	2.44
1042.392	2.09
1042.815	-9.31
1043.238	-3.76
1043.661	-4.06
1044.084	-1.56
1044.507	-3.51
1044.93	-1.91
1045.352	3.54
1045.775	0.54
1046.198	-0.21
1046.621	1.69
1047.043	-0.56
1047.466	1.59
1047.889	-4.71
1048.311	2.59
1048.734	-2.86
1049.156	-4.81
1049.579	-2.31
1050.001	-0.41
1050.424	-4.36
1050.846	-5.31
1051.269	-8.21
1051.691	-3.96
1052.113	-2.51
1052.536	-1.81
1052.958	-0.26
1053.38	1.59
1053.802	0.24
1054.225	2.04
1054.647	6.34
1055.069	0.94
1055.491	3.84
1055.913	-0.41
1056.335	-8.11
1056.757	-2.96
1057.179	-0.86
1057.601	-1.56
1058.023	1.14
1058.445	-6.41
1058.867	2.19
1059.289	3.84
1059.711	-5.76
1060.133	-1.26
1060.555	-2.71
1060.976	1.64
1061.398	-1.96
1061.82	3.79
1062.241	-2.66
1062.663	1.04
1063.085	-2.66
1063.506	-2.41
1063.928	0.99
1064.35	-1.06
1064.771	-4.91
1065.193	-2.11
1065.614	-1.36
1066.035	0.99
1066.457	0.44
1066.878	0.59
1067.3	-2.16
1067.721	0.19
1068.142	-0.01
1068.564	3.44
1068.985	-0.26
1069.406	-8.71
1069.827	-0.51
1070.248	-3.96
1070.67	-2.51
1071.091	-5.56
1071.512	-2.21
1071.933	-5.96
1072.354	-9.86
1072.775	-6.31
1073.196	-1.91
1073.617	-3.46
1074.038	-3.26
1074.459	-4.26
1074.88	3.24
1075.3	-3.11
1075.721	-2.16
1076.142	-0.31
1076.563	-3.31
1076.983	-0.41
1077.404	-2.16
1077.825	-0.16
1078.246	-3.81
1078.666	-7.86
1079.087	-2.51
1079.507	-3.06
1079.928	-4.36
1080.348	-0.16
1080.769	0.14
1081.189	-3.36
1081.61	-8.46
1082.03	-0.76
1082.451	-3.51
1082.871	-5.71
1083.291	-2.96
1083.711	-4.26
1084.132	-3.11
1084.552	-8.06
1084.972	-6.11
1085.392	-3.16
1085.813	4.64
1086.233	-4.71
1086.653	-0.36
1087.073	-3.91
1087.493	-6.16
1087.913	-2.76
1088.333	-3.61
1088.753	-0.71
1089.173	-0.51
1089.593	-2.16
1090.013	-1.46
1090.433	-5.26
1090.852	2.34
1091.272	-5.31
1091.692	0.44
1092.112	-1.31
1092.531	-2.11
1092.951	-0.56
1093.371	-1.71
1093.79	-1.81
1094.21	-2.01
1094.63	-1.11
1095.049	-0.71
1095.469	-7.31
1095.888	-1.71
1096.308	-2.91
1096.727	-3.71
1097.146	-5.36
1097.566	-3.66
1097.985	0.14
1098.405	-1.46
1098.824	0.99
1099.243	-0.26
1099.662	-1.21
1100.082	-2.16
1100.501	-4.31
1100.92	7.74
1101.339	2.49
1101.758	1.34
