Data from MSPlasma+Separation6_Subt14_10-12-59-028.txt Node
Date: Fri Jul 21 10:12:59 EDT 2017
User: Ender
Spectrometer: HR+D1039
Trigger mode: 0
Integration Time (sec): 6.430000E-3
Scans to average: 20
Electric dark correction enabled: true
Nonlinearity correction enabled: false
Boxcar width: 0
XAxis mode: Wavelengths
Number of Pixels in Spectrum: 2048
>>>>>Begin Spectral Data<<<<<
187.836	0.31
188.309	0.31
188.782	0.31
189.255	-2.04
189.728	1.91
190.201	-0.74
190.674	-1.19
191.147	-4.49
191.619	2.21
192.092	-3.19
192.565	-4.24
193.038	5.46
193.511	5.11
193.984	0.56
194.456	-0.54
194.929	-1.49
195.402	1.81
195.874	0.61
196.347	0.46
196.82	0.16
197.292	-1.89
197.765	-0.99
198.237	-3.49
198.71	-4.34
199.182	-0.39
199.655	0.96
200.127	1.76
200.6	-2.29
201.072	1.21
201.544	-0.74
202.017	-0.29
202.489	-1.34
202.961	-1.99
203.433	-4.59
203.906	-2.09
204.378	-1.19
204.85	2.71
205.322	1.46
205.794	0.91
206.266	-4.39
206.739	1.36
207.211	1.36
207.683	-1.49
208.155	2.41
208.627	2.16
209.099	4.51
209.57	0.86
210.042	-0.19
210.514	1.96
210.986	0.61
211.458	-5.09
211.93	1.41
212.402	4.36
212.873	-2.39
213.345	-4.79
213.817	0.91
214.288	-1.29
214.76	1.71
215.232	-1.44
215.703	0.71
216.175	3.66
216.646	4.36
217.118	1.51
217.589	-3.39
218.061	-0.44
218.532	-0.99
219.004	4.11
219.475	-0.19
219.946	1.41
220.418	7.11
220.889	1.11
221.36	2.71
221.832	5.76
222.303	5.61
222.774	1.46
223.245	-2.99
223.717	0.31
224.188	6.26
224.659	3.71
225.13	2.26
225.601	1.86
226.072	3.16
226.543	4.71
227.014	1.41
227.485	9.46
227.956	9.46
228.427	6.61
228.898	5.61
229.369	4.21
229.839	2.26
230.31	7.91
230.781	4.21
231.252	7.01
231.722	7.91
232.193	5.66
232.664	8.71
233.135	4.71
233.605	4.76
234.076	11.11
234.546	8.36
235.017	9.11
235.487	9.61
235.958	11.61
236.428	15.56
236.899	10.06
237.369	17.06
237.84	15.11
238.31	15.46
238.78	9.06
239.251	10.06
239.721	6.81
240.191	10.56
240.662	8.96
241.132	9.81
241.602	9.81
242.072	11.16
242.542	8.26
243.013	10.51
243.483	16.51
243.953	9.26
244.423	15.16
244.893	12.86
245.363	15.76
245.833	13.41
246.303	12.26
246.773	18.76
247.243	12.96
247.712	17.81
248.182	16.66
248.652	16.66
249.122	15.91
249.592	13.31
250.061	17.86
250.531	19.26
251.001	18.31
251.471	16.86
251.94	19.16
252.41	18.16
252.879	20.11
253.349	23.86
253.818	18.71
254.288	26.91
254.757	23.26
255.227	25.06
255.696	20.41
256.166	28.21
256.635	25.46
257.105	21.96
257.574	24.76
258.043	23.81
258.513	25.31
258.982	22.36
259.451	27.01
259.92	21.86
260.389	28.81
260.859	28.66
261.328	31.91
261.797	25.96
262.266	27.86
262.735	28.91
263.204	25.26
263.673	28.71
264.142	26.96
264.611	31.66
265.08	30.61
265.549	30.81
266.018	32.31
266.487	30.16
266.955	29.06
267.424	37.66
267.893	36.96
268.362	33.51
268.83	34.56
269.299	33.11
269.768	33.41
270.236	32.91
270.705	40.26
271.174	41.11
271.642	31.16
272.111	39.76
272.579	38.06
273.048	38.36
273.516	38.51
273.985	39.46
274.453	33.76
274.922	38.36
275.39	38.16
275.858	42.91
276.327	42.01
276.795	41.56
277.263	39.46
277.731	44.01
278.2	42.76
278.668	41.66
279.136	46.56
279.604	45.91
280.072	42.21
280.54	40.86
281.008	50.61
281.477	48.61
281.945	44.71
282.413	46.91
282.881	50.01
283.348	49.21
283.816	51.41
284.284	50.06
284.752	55.06
285.22	52.41
285.688	50.61
286.156	51.06
286.623	55.06
287.091	49.91
287.559	54.11
288.026	53.51
288.494	53.61
288.962	56.66
289.429	59.46
289.897	54.36
290.364	54.81
290.832	57.11
291.3	60.06
291.767	58.56
292.234	65.81
292.702	60.01
293.169	58.41
293.637	59.31
294.104	63.31
294.571	62.76
295.039	65.16
295.506	59.46
295.973	67.36
296.44	61.21
296.908	67.96
297.375	66.36
297.842	70.41
298.309	66.91
298.776	68.86
299.243	71.66
299.71	71.16
300.177	65.06
300.644	74.21
301.111	73.11
301.578	71.86
302.045	70.91
302.512	77.61
302.979	76.06
303.446	79.11
303.913	78.01
304.379	82.51
304.846	84.16
305.313	82.21
305.78	85.81
306.246	79.76
306.713	86.11
307.18	86.91
307.646	83.61
308.113	84.51
308.579	93.01
309.046	96.51
309.512	98.16
309.979	95.56
310.445	93.41
310.912	97.11
311.378	99.16
311.845	95.96
312.311	93.66
312.777	101.31
313.244	103.86
313.71	101.31
314.176	104.46
314.642	104.31
315.109	102.36
315.575	98.56
316.041	104.41
316.507	104.56
316.973	110.71
317.439	107.01
317.905	108.81
318.371	108.56
318.837	107.61
319.303	108.51
319.769	107.81
320.235	114.46
320.701	119.81
321.167	113.36
321.633	115.11
322.099	116.21
322.564	120.26
323.03	118.31
323.496	116.26
323.962	122.76
324.427	129.46
324.893	120.81
325.359	125.86
325.824	126.26
326.29	132.86
326.755	125.96
327.221	127.16
327.686	136.41
328.152	132.21
328.617	138.51
329.083	138.21
329.548	139.31
330.014	138.41
330.479	143.31
330.944	144.11
331.41	149.61
331.875	138.11
332.34	138.56
332.805	144.06
333.271	139.61
333.736	139.06
334.201	145.71
334.666	161.41
335.131	154.81
335.596	157.16
336.061	145.21
336.526	149.86
336.991	146.31
337.456	146.46
337.921	150.11
338.386	146.16
338.851	144.46
339.316	147.46
339.781	148.96
340.246	151.66
340.711	157.61
341.175	155.56
341.64	158.96
342.105	160.16
342.569	171.66
343.034	165.26
343.499	170.11
343.963	176.16
344.428	176.86
344.893	175.56
345.357	179.36
345.822	178.21
346.286	180.71
346.751	185.06
347.215	186.16
347.679	191.26
348.144	202.21
348.608	211.56
349.073	208.86
349.537	213.76
350.001	210.46
350.465	212.71
350.93	208.81
351.394	208.11
351.858	210.01
352.322	213.06
352.786	217.16
353.25	220.16
353.715	225.46
354.179	230.21
354.643	237.06
355.107	246.11
355.571	242.11
356.035	235.11
356.498	232.91
356.962	221.21
357.426	223.71
357.89	222.31
358.354	226.46
358.818	222.06
359.281	229.41
359.745	227.91
360.209	223.26
360.673	223.91
361.136	226.71
361.6	227.61
362.064	237.06
362.527	242.41
362.991	243.81
363.454	235.81
363.918	247.81
364.381	242.86
364.845	245.96
365.308	240.96
365.772	248.56
366.235	253.76
366.698	247.66
367.162	245.91
367.625	245.86
368.088	261.81
368.552	247.36
369.015	248.41
369.478	254.61
369.941	251.81
370.404	260.56
370.867	254.51
371.331	261.01
371.794	262.86
372.257	267.51
372.72	264.51
373.183	272.61
373.646	270.36
374.109	269.51
374.572	274.06
375.035	269.86
375.497	276.21
375.96	279.21
376.423	291.21
376.886	287.96
377.349	297.91
377.811	296.71
378.274	298.96
378.737	286.91
379.199	296.71
379.662	301.51
380.125	305.81
380.587	304.11
381.05	309.96
381.512	309.26
381.975	316.21
382.437	331.91
382.9	325.16
383.362	325.11
383.825	330.21
384.287	327.31
384.75	324.81
385.212	331.91
385.674	336.91
386.136	345.11
386.599	339.66
387.061	336.21
387.523	335.66
387.985	343.16
388.447	347.91
388.91	339.56
389.372	348.41
389.834	351.61
390.296	342.71
390.758	349.01
391.22	340.61
391.682	343.96
392.144	339.86
392.606	354.11
393.068	363.51
393.529	382.21
393.991	390.51
394.453	370.46
394.915	354.51
395.377	347.21
395.838	355.66
396.3	345.96
396.762	358.41
397.224	362.56
397.685	360.81
398.147	374.51
398.608	369.01
399.07	377.96
399.531	372.51
399.993	382.56
400.454	386.36
400.916	386.06
401.377	392.96
401.839	390.11
402.3	394.26
402.762	411.31
403.223	445.86
403.684	441.81
404.145	418.91
404.607	408.71
405.068	394.96
405.529	405.36
405.99	411.41
406.451	412.56
406.913	410.21
407.374	405.01
407.835	407.46
408.296	420.71
408.757	413.71
409.218	425.21
409.679	435.16
410.14	438.96
410.601	456.26
411.062	464.66
411.522	457.66
411.983	469.26
412.444	469.41
412.905	489.46
413.366	507.36
413.826	542.36
414.287	622.11
414.748	757.81
415.208	776.01
415.669	637.96
416.13	574.16
416.59	563.06
417.051	584.66
417.511	620.01
417.972	673.36
418.432	727.66
418.893	822.91
419.353	782.11
419.814	587.31
420.274	511.56
420.734	502.26
421.195	517.21
421.655	507.71
422.115	521.96
422.576	516.86
423.036	516.01
423.496	538.31
423.956	560.36
424.416	603.56
424.876	684.06
425.336	676.76
425.797	653.61
426.257	642.21
426.717	592.51
427.177	524.76
427.637	522.91
428.097	536.76
428.556	545.91
429.016	593.56
429.476	577.46
429.936	546.96
430.396	534.26
430.856	542.71
431.315	545.76
431.775	596.56
432.235	655.66
432.694	667.36
433.154	601.16
433.614	598.21
434.073	576.81
434.533	532.51
434.993	525.96
435.452	533.26
435.912	533.76
436.371	530.36
436.83	541.31
437.29	541.56
437.749	528.96
438.209	537.81
438.668	548.21
439.127	564.76
439.587	553.71
440.046	549.91
440.505	564.66
440.964	568.41
441.424	589.61
441.883	599.06
442.342	577.46
442.801	559.86
443.26	565.41
443.719	558.41
444.178	556.41
444.637	564.86
445.096	573.26
445.555	580.96
446.014	577.91
446.473	573.31
446.932	576.36
447.391	584.61
447.849	595.61
448.308	588.36
448.767	593.01
449.226	606.56
449.685	621.51
450.143	642.81
450.602	637.96
451.061	601.01
451.519	610.46
451.978	596.26
452.436	594.06
452.895	601.41
453.353	591.91
453.812	590.91
454.27	591.76
454.729	593.76
455.187	606.46
455.646	602.41
456.104	602.56
456.562	612.46
457.021	614.66
457.479	590.96
457.937	608.61
458.395	625.51
458.854	617.91
459.312	612.81
459.77	617.46
460.228	625.06
460.686	628.91
461.144	634.76
461.602	627.76
462.06	633.71
462.518	639.11
462.976	643.36
463.434	649.56
463.892	654.86
464.35	659.91
464.808	672.01
465.266	672.81
465.724	689.56
466.181	688.61
466.639	685.91
467.097	715.06
467.555	738.61
468.012	729.01
468.47	737.86
468.928	752.36
469.385	777.96
469.843	784.96
470.3	776.11
470.758	801.11
471.215	817.26
471.673	817.31
472.13	832.36
472.588	847.36
473.045	854.01
473.503	862.86
473.96	894.11
474.417	892.61
474.875	920.71
475.332	956.01
475.789	956.41
476.246	968.96
476.704	992.76
477.161	993.26
477.618	993.96
478.075	1010.96
478.532	1055.11
478.989	1083.56
479.446	1128.06
479.903	1115.61
480.36	1142.66
480.817	1143.16
481.274	1140.71
481.731	1178.11
482.188	1196.06
482.645	1221.76
483.102	1230.86
483.558	1271.81
484.015	1302.11
484.472	1305.26
484.929	1310.61
485.385	1305.11
485.842	1314.31
486.299	1322.26
486.755	1307.16
487.212	1288.61
487.668	1266.16
488.125	1259.56
488.582	1244.26
489.038	1255.81
489.494	1262.11
489.951	1261.56
490.407	1274.01
490.864	1270.11
491.32	1267.06
491.776	1269.36
492.233	1293.01
492.689	1288.91
493.145	1272.96
493.602	1260.16
494.058	1289.26
494.514	1305.66
494.97	1307.16
495.426	1331.41
495.882	1326.01
496.338	1328.01
496.794	1353.16
497.251	1333.81
497.707	1360.61
498.163	1367.21
498.618	1370.91
499.074	1372.56
499.53	1383.31
499.986	1394.26
500.442	1391.31
500.898	1373.81
501.354	1394.81
501.809	1393.71
502.265	1400.01
502.721	1404.16
503.177	1402.51
503.632	1417.71
504.088	1429.86
504.543	1434.26
504.999	1449.11
505.455	1454.46
505.91	1430.11
506.366	1429.96
506.821	1448.31
507.277	1439.21
507.732	1440.46
508.187	1440.96
508.643	1454.91
509.098	1455.51
509.553	1469.96
510.009	1496.46
510.464	1519.51
510.919	1533.26
511.375	1549.11
511.83	1551.31
512.285	1593.21
512.74	1621.71
513.195	1633.91
513.65	1676.21
514.105	1700.81
514.56	1704.31
515.015	1735.21
515.47	1743.16
515.925	1721.41
516.38	1725.86
516.835	1734.66
517.29	1728.76
517.745	1735.16
518.2	1699.71
518.655	1651.31
519.109	1642.36
519.564	1606.41
520.019	1598.36
520.474	1589.66
520.928	1584.91
521.383	1564.26
521.838	1550.31
522.292	1541.36
522.747	1525.16
523.201	1533.66
523.656	1517.16
524.11	1506.61
524.565	1506.46
525.019	1508.56
525.474	1502.76
525.928	1483.91
526.382	1479.71
526.837	1484.36
527.291	1489.51
527.745	1476.26
528.2	1473.96
528.654	1471.86
529.108	1471.36
529.562	1466.51
530.016	1458.26
530.47	1464.51
530.925	1462.96
531.379	1453.16
531.833	1471.06
532.287	1464.96
532.741	1458.81
533.195	1465.76
533.649	1466.21
534.103	1464.56
534.556	1463.16
535.01	1470.46
535.464	1462.91
535.918	1465.66
536.372	1478.76
536.826	1467.36
537.279	1458.66
537.733	1455.36
538.187	1463.51
538.64	1466.86
539.094	1473.41
539.548	1496.86
540.001	1493.66
540.455	1496.56
540.908	1506.91
541.362	1525.51
541.815	1525.66
542.269	1566.71
542.722	1562.81
543.175	1575.36
543.629	1596.26
544.082	1613.86
544.536	1631.96
544.989	1639.06
545.442	1640.76
545.895	1632.11
546.349	1640.66
546.802	1641.71
547.255	1646.31
547.708	1664.91
548.161	1670.76
548.614	1682.56
549.067	1695.56
549.52	1671.16
549.973	1649.81
550.426	1634.71
550.879	1632.56
551.332	1623.51
551.785	1643.16
552.238	1667.76
552.691	1652.66
553.144	1688.41
553.596	1720.41
554.049	1740.81
554.502	1772.96
554.955	1819.26
555.407	1845.71
555.86	1811.41
556.313	1781.51
556.765	1775.21
557.218	1748.26
557.67	1742.16
558.123	1718.51
558.576	1707.86
559.028	1708.46
559.48	1743.46
559.933	1724.86
560.385	1672.61
560.838	1599.01
561.29	1553.91
561.742	1543.26
562.195	1506.51
562.647	1496.06
563.099	1496.26
563.551	1483.26
564.004	1508.56
564.456	1482.76
564.908	1445.76
565.36	1418.91
565.812	1383.66
566.264	1368.31
566.716	1355.81
567.168	1332.76
567.62	1328.36
568.072	1318.71
568.524	1310.01
568.976	1305.81
569.428	1293.01
569.88	1291.86
570.332	1305.11
570.784	1315.11
571.235	1295.46
571.687	1318.36
572.139	1313.61
572.59	1326.41
573.042	1337.36
573.494	1332.41
573.945	1302.06
574.397	1275.16
574.849	1270.26
575.3	1275.51
575.752	1263.91
576.203	1247.81
576.655	1256.71
577.106	1235.51
577.557	1228.56
578.009	1215.61
578.46	1228.16
578.912	1216.06
579.363	1223.46
579.814	1220.41
580.265	1222.76
580.717	1221.46
581.168	1217.91
581.619	1232.66
582.07	1245.06
582.521	1236.56
582.972	1220.16
583.423	1227.81
583.875	1243.16
584.326	1241.36
584.777	1262.06
585.227	1288.86
585.678	1291.06
586.129	1310.81
586.58	1337.61
587.031	1358.76
587.482	1391.96
587.933	1420.16
588.384	1418.41
588.834	1403.06
589.285	1393.06
589.736	1393.01
590.186	1397.76
590.637	1395.66
591.088	1339.16
591.538	1310.51
591.989	1301.36
592.439	1284.91
592.89	1281.11
593.34	1261.31
593.791	1248.81
594.241	1239.86
594.692	1235.01
595.142	1236.51
595.593	1232.56
596.043	1234.06
596.493	1251.91
596.943	1253.81
597.394	1290.76
597.844	1301.11
598.294	1332.46
598.744	1383.51
599.195	1448.96
599.645	1543.31
600.095	1614.46
600.545	1709.51
600.995	1806.16
601.445	1871.66
601.895	1975.46
602.345	2050.31
602.795	2023.56
603.245	1928.31
603.695	1807.96
604.145	1683.91
604.594	1609.01
605.044	1513.16
605.494	1407.01
605.944	1325.51
606.393	1291.06
606.843	1262.11
607.293	1271.66
607.743	1264.56
608.192	1274.71
608.642	1278.21
609.091	1279.91
609.541	1279.61
609.99	1275.86
610.44	1248.76
610.889	1233.86
611.339	1211.66
611.788	1195.36
612.238	1194.86
612.687	1197.11
613.136	1208.81
613.586	1219.51
614.035	1220.26
614.484	1224.56
614.933	1221.71
615.383	1201.66
615.832	1184.46
616.281	1156.46
616.73	1136.36
617.179	1114.76
617.628	1079.86
618.077	1069.31
618.526	1056.31
618.975	1051.21
619.424	1027.16
619.873	1024.36
620.322	1020.36
620.771	1011.16
621.22	993.36
621.669	980.16
622.118	968.61
622.567	954.51
623.015	939.61
623.464	942.86
623.913	918.21
624.361	927.61
624.81	914.06
625.259	910.41
625.707	915.36
626.156	930.31
626.604	933.51
627.053	939.56
627.501	934.76
627.95	951.26
628.398	963.71
628.847	946.16
629.295	939.41
629.744	935.36
630.192	921.16
630.64	902.11
631.089	881.51
631.537	856.41
631.985	847.21
632.433	837.71
632.881	844.51
633.33	846.26
633.778	844.61
634.226	848.66
634.674	851.46
635.122	867.11
635.57	880.61
636.018	892.61
636.466	877.31
636.914	882.11
637.362	890.36
637.81	906.16
638.258	938.96
638.705	946.81
639.153	976.21
639.601	980.11
640.049	998.26
640.497	1042.01
640.944	1064.31
641.392	1002.96
641.84	927.06
642.287	874.46
642.735	839.21
643.182	818.66
643.63	814.96
644.078	804.91
644.525	807.21
644.973	811.96
645.42	816.46
645.867	813.11
646.315	815.66
646.762	826.91
647.21	823.21
647.657	832.61
648.104	813.51
648.551	783.86
648.999	778.31
649.446	775.96
649.893	772.31
650.34	786.86
650.787	803.86
651.234	836.51
651.682	894.96
652.129	969.26
652.576	1115.06
653.023	1273.46
653.47	1377.56
653.917	1451.71
654.363	1490.01
654.81	1558.41
655.257	1604.21
655.704	1270.31
656.151	993.71
656.598	866.06
657.044	801.41
657.491	779.81
657.938	759.26
658.385	748.51
658.831	741.01
659.278	744.21
659.724	732.56
660.171	737.41
660.618	702.21
661.064	692.76
661.511	702.36
661.957	702.01
662.404	711.56
662.85	720.86
663.296	725.16
663.743	729.16
664.189	727.41
664.635	726.16
665.082	726.26
665.528	715.56
665.974	704.91
666.42	701.01
666.867	695.41
667.313	663.56
667.759	656.51
668.205	663.66
668.651	656.66
669.097	657.96
669.543	665.31
669.989	671.96
670.435	674.01
670.881	692.46
671.327	720.11
671.773	770.41
672.219	837.86
672.665	904.66
673.11	947.66
673.556	975.26
674.002	1000.96
674.448	1023.51
674.893	858.71
675.339	739.56
675.785	677.51
676.23	643.21
676.676	616.66
677.122	594.21
677.567	583.16
678.013	564.31
678.458	567.71
678.904	559.91
679.349	550.46
679.794	551.51
680.24	557.01
680.685	544.31
681.131	549.76
681.576	544.96
682.021	553.96
682.466	560.61
682.912	565.16
683.357	594.96
683.802	645.46
684.247	717.26
684.692	767.16
685.137	807.51
685.583	830.86
686.028	886.96
686.473	839.01
686.918	714.31
687.363	644.96
687.807	607.71
688.252	572.86
688.697	556.81
689.142	537.21
689.587	541.51
690.032	546.11
690.477	572.41
690.921	603.76
691.366	639.41
691.811	668.31
692.255	730.16
692.7	879.11
693.145	1266.56
693.589	1963.91
694.034	2376.81
694.478	2608.76
694.923	2446.76
695.367	3586.91
695.812	2102.66
696.256	844.46
696.701	600.66
697.145	549.71
697.59	530.71
698.034	523.21
698.478	522.31
698.922	520.96
699.367	531.96
699.811	563.71
700.255	617.26
700.699	680.71
701.143	744.31
701.588	792.61
702.032	828.16
702.476	861.46
702.92	895.71
703.364	1161.86
703.808	1782.66
704.252	2279.71
704.696	2476.61
705.14	2399.86
705.584	3401.66
706.027	1826.41
706.471	881.71
706.915	638.61
707.359	560.66
707.803	519.41
708.246	500.66
708.69	496.01
709.134	493.71
709.577	495.76
710.021	497.91
710.465	497.71
710.908	491.41
711.352	512.46
711.795	567.36
712.239	618.01
712.682	636.31
713.126	625.86
713.569	716.96
714.012	572.01
714.456	489.81
714.899	463.06
715.342	441.86
715.786	420.51
716.229	410.81
716.672	400.31
717.115	404.91
717.558	406.81
718.002	416.71
718.445	436.16
718.888	464.91
719.331	475.96
719.774	487.91
720.217	473.26
720.66	446.41
721.103	421.61
721.546	400.76
721.989	388.86
722.432	380.86
722.874	376.41
723.317	386.11
723.76	417.01
724.203	514.06
724.645	705.91
725.088	839.86
725.531	846.26
725.974	956.06
726.416	842.76
726.859	495.06
727.301	401.21
727.744	377.71
728.187	383.96
728.629	387.51
729.071	413.06
729.514	427.51
729.956	451.16
730.399	454.46
730.841	462.01
731.283	451.86
731.726	432.86
732.168	435.56
732.61	457.56
733.053	503.76
733.495	562.26
733.937	624.41
734.379	738.76
734.821	945.91
735.263	1487.26
735.705	2693.76
736.148	4061.56
736.59	4182.36
737.032	4716.71
737.474	3843.81
737.916	1415.06
738.357	722.61
738.799	541.81
739.241	495.01
739.683	499.71
740.125	508.01
740.567	517.71
741.008	555.41
741.45	575.36
741.892	606.81
742.334	613.66
742.775	614.96
743.217	582.06
743.658	481.66
744.1	491.06
744.542	554.46
744.983	586.46
745.425	626.26
745.866	612.51
746.307	510.96
746.749	546.01
747.19	787.11
747.632	1560.96
748.073	2945.46
748.514	4197.71
748.956	5755.46
749.397	6805.51
749.838	4660.21
750.279	4600.91
750.72	2286.96
751.162	935.96
751.603	521.66
752.044	414.11
752.485	372.61
752.926	347.26
753.367	328.01
753.808	314.11
754.249	312.36
754.69	309.86
755.131	306.81
755.572	300.86
756.013	303.91
756.453	300.51
756.894	309.21
757.335	310.46
757.776	313.01
758.216	328.21
758.657	346.76
759.098	385.21
759.538	466.76
759.979	673.66
760.42	1356.86
760.86	3489.26
761.301	7491.16
761.741	9197.96
762.182	11129.61
762.622	7019.61
763.063	2406.21
763.503	958.26
763.943	552.31
764.384	433.71
764.824	375.81
765.264	345.56
765.705	325.96
766.145	302.66
766.585	291.66
767.025	288.76
767.465	286.46
767.906	292.06
768.346	304.86
768.786	360.61
769.226	522.56
769.666	1078.61
770.106	2462.91
770.546	3654.86
770.986	4352.56
771.426	3272.81
771.866	1298.96
772.306	574.81
772.745	340.51
773.185	286.71
773.625	280.31
774.065	287.41
774.505	397.86
774.944	690.96
775.384	1012.26
775.824	1185.71
776.263	990.31
776.703	509.26
777.142	297.01
777.582	229.66
778.021	217.01
778.461	202.86
778.9	201.11
779.34	193.26
779.779	189.76
780.219	190.61
780.658	182.81
781.097	179.76
781.537	177.66
781.976	176.01
782.415	174.46
782.855	175.36
783.294	166.61
783.733	171.41
784.172	175.06
784.611	173.11
785.05	177.16
785.489	186.61
785.928	188.36
786.367	196.51
786.806	211.81
787.245	229.81
787.684	227.16
788.123	229.91
788.562	220.91
789.001	208.31
789.44	201.46
789.879	203.46
790.317	206.16
790.756	218.66
791.195	245.41
791.634	343.11
792.072	612.81
792.511	1557.81
792.95	2977.56
793.388	3773.06
793.827	2452.56
794.265	1077.51
794.704	498.16
795.142	303.26
795.581	245.66
796.019	220.91
796.458	223.66
796.896	225.61
797.334	261.66
797.773	358.76
798.211	697.01
798.649	1474.71
799.087	2540.11
799.526	3602.06
799.964	3827.81
800.402	2660.46
800.84	1154.11
801.278	544.76
801.716	326.61
802.154	260.71
802.592	246.11
803.03	247.31
803.468	250.61
803.906	254.81
804.344	246.51
804.782	242.76
805.22	241.91
805.658	254.71
806.096	269.26
806.533	294.06
806.971	390.06
807.409	567.01
807.847	1123.96
808.284	2910.76
808.722	5319.66
809.16	7495.31
809.597	9992.86
810.035	12911.46
810.472	8498.81
810.91	3446.31
811.347	1516.51
811.785	709.11
812.222	444.36
812.66	338.21
813.097	292.46
813.535	247.81
813.972	226.96
814.409	204.51
814.846	191.31
815.284	185.96
815.721	190.71
816.158	203.91
816.595	268.51
817.032	340.36
817.47	319.91
817.907	226.61
818.344	199.46
818.781	193.51
819.218	231.26
819.655	355.01
820.092	471.41
820.529	423.16
820.966	338.26
821.403	225.71
821.839	192.91
822.276	220.46
822.713	268.56
823.15	253.91
823.587	258.71
824.023	474.86
824.46	1221.71
824.897	2228.66
825.333	1775.01
825.77	784.56
826.206	393.21
826.643	225.56
827.08	169.96
827.516	142.61
827.953	134.36
828.389	130.81
828.825	122.86
829.262	112.36
829.698	114.31
830.135	108.26
830.571	107.51
831.007	112.26
831.443	111.76
831.88	110.91
832.316	116.91
832.752	113.96
833.188	113.96
833.624	117.06
834.06	116.91
834.497	120.41
834.933	121.91
835.369	132.71
835.805	142.41
836.241	143.21
836.677	160.31
837.112	189.26
837.548	236.81
837.984	352.11
838.42	746.81
838.856	2137.56
839.292	4437.46
839.727	3308.76
840.163	2126.41
840.599	3206.31
841.034	5196.71
841.47	2591.71
841.906	1205.31
842.341	627.26
842.777	440.86
843.212	447.46
843.648	279.31
844.083	190.46
844.519	145.11
844.954	124.41
845.39	111.61
845.825	107.01
846.261	105.11
846.696	98.71
847.131	96.26
847.566	93.26
848.002	94.01
848.437	105.81
848.872	110.66
849.307	138.16
849.742	263.06
850.177	697.31
850.613	1572.61
851.048	1139.91
851.483	504.36
851.918	265.21
852.353	146.91
852.788	103.51
853.223	92.26
853.657	86.46
854.092	82.71
854.527	76.01
854.962	84.86
855.397	91.26
855.832	79.16
856.266	73.96
856.701	69.66
857.136	75.66
857.57	87.06
858.005	109.36
858.44	96.86
858.874	90.66
859.309	91.71
859.743	88.41
860.178	88.31
860.612	96.31
861.047	129.36
861.481	177.76
861.915	119.31
862.35	87.86
862.784	69.36
863.218	70.36
863.653	77.96
864.087	91.86
864.521	117.26
864.955	201.31
865.39	364.31
865.824	261.51
866.258	318.76
866.692	488.36
867.126	353.46
867.56	182.46
867.994	118.81
868.428	101.66
868.862	124.56
869.296	117.66
869.73	138.56
870.164	119.31
870.598	108.06
871.031	76.46
871.465	68.01
871.899	53.46
872.333	48.16
872.766	48.66
873.2	53.26
873.634	53.16
874.067	57.66
874.501	53.36
874.935	53.16
875.368	60.06
875.802	47.26
876.235	45.16
876.669	42.11
877.102	39.81
877.535	42.41
877.969	42.51
878.402	39.91
878.836	41.46
879.269	40.06
879.702	43.51
880.135	43.86
880.569	41.46
881.002	41.16
881.435	36.61
881.868	39.56
882.301	39.46
882.734	38.21
883.167	41.36
883.601	38.51
884.034	38.11
884.467	32.31
884.899	32.51
885.332	33.11
885.765	37.76
886.198	28.06
886.631	33.71
887.064	33.01
887.497	28.81
887.929	31.06
888.362	30.81
888.795	29.76
889.228	37.46
889.66	32.56
890.093	25.26
890.526	29.66
890.958	30.31
891.391	30.11
891.823	25.56
892.256	28.91
892.688	33.86
893.121	22.71
893.553	38.06
893.985	29.51
894.418	25.46
894.85	34.66
895.282	31.31
895.715	21.36
896.147	21.71
896.579	23.26
897.011	30.66
897.444	27.31
897.876	23.41
898.308	27.21
898.74	26.86
899.172	29.96
899.604	33.86
900.036	32.26
900.468	22.51
900.9	29.51
901.332	42.91
901.764	39.16
902.196	39.81
902.628	39.36
903.06	57.21
903.491	64.61
903.923	49.86
904.355	52.56
904.787	50.31
905.218	43.31
905.65	40.81
906.082	34.16
906.513	37.06
906.945	34.51
907.376	35.56
907.808	37.11
908.239	40.76
908.671	42.81
909.102	50.91
909.534	68.41
909.965	133.26
910.397	351.71
910.828	1076.26
911.259	656.86
911.691	332.91
912.122	190.91
912.553	95.41
912.984	52.01
913.415	47.36
913.847	42.91
914.278	35.46
914.709	34.76
915.14	29.51
915.571	34.06
916.002	27.76
916.433	32.36
916.864	28.81
917.295	33.66
917.726	37.16
918.157	46.56
918.587	47.06
919.018	42.96
919.449	37.71
919.88	54.11
920.311	73.31
920.741	220.06
921.172	394.11
921.603	191.31
922.033	116.21
922.464	72.71
922.895	43.01
923.325	31.26
923.756	28.76
924.186	38.06
924.617	50.61
925.047	74.36
925.478	59.46
925.908	43.91
926.338	35.71
926.769	30.56
927.199	27.81
927.629	20.76
928.06	29.06
928.49	27.76
928.92	26.21
929.35	22.11
929.78	17.51
930.21	20.61
930.641	13.21
931.071	20.31
931.501	16.56
931.931	13.71
932.361	16.11
932.791	20.76
933.221	18.96
933.651	29.61
934.08	49.41
934.51	27.96
934.94	20.66
935.37	15.26
935.8	15.06
936.229	9.96
936.659	12.36
937.089	27.16
937.519	39.66
937.948	56.31
938.378	30.96
938.807	17.71
939.237	12.66
939.666	14.96
940.096	9.51
940.525	4.96
940.955	12.66
941.384	10.71
941.814	7.86
942.243	4.96
942.672	3.46
943.102	-0.19
943.531	8.06
943.96	7.06
944.39	6.31
944.819	8.06
945.248	7.56
945.677	6.66
946.106	7.76
946.535	8.06
946.964	8.11
947.393	6.71
947.822	5.61
948.251	9.51
948.68	7.91
949.109	6.31
949.538	5.96
949.967	8.76
950.396	7.71
950.825	7.41
951.254	8.11
951.682	2.71
952.111	2.66
952.54	6.66
952.969	3.01
953.397	3.41
953.826	4.41
954.254	6.01
954.683	8.41
955.112	5.36
955.54	8.36
955.969	9.51
956.397	9.91
956.826	3.16
957.254	3.96
957.682	6.56
958.111	3.81
958.539	9.21
958.967	8.36
959.396	8.71
959.824	4.11
960.252	7.96
960.68	6.46
961.109	8.06
961.537	6.91
961.965	-0.39
962.393	5.11
962.821	5.86
963.249	8.46
963.677	13.36
964.105	67.01
964.533	113.16
964.961	53.01
965.389	33.21
965.817	17.31
966.245	10.01
966.672	7.16
967.1	8.21
967.528	1.66
967.956	5.26
968.383	10.01
968.811	7.36
969.239	4.46
969.666	3.11
970.094	5.71
970.522	0.66
970.949	0.26
971.377	-3.29
971.804	2.91
972.232	-1.69
972.659	1.31
973.087	5.16
973.514	1.96
973.941	3.26
974.369	-1.54
974.796	3.71
975.223	-0.89
975.651	5.56
976.078	4.81
976.505	9.86
976.932	28.86
977.359	33.46
977.786	18.41
978.214	13.66
978.641	5.06
979.068	5.31
979.495	-2.04
979.922	7.16
980.349	2.61
980.776	5.31
981.202	1.96
981.629	6.96
982.056	5.11
982.483	-0.49
982.91	5.11
983.337	-2.34
983.763	7.56
984.19	2.76
984.617	3.76
985.043	2.21
985.47	5.11
985.897	2.11
986.323	3.66
986.75	0.86
987.176	3.21
987.603	2.01
988.029	0.96
988.456	7.26
988.882	-2.74
989.308	0.56
989.735	1.46
990.161	0.76
990.587	1.66
991.014	1.26
991.44	6.91
991.866	0.71
992.292	1.96
992.719	0.51
993.145	3.31
993.571	6.36
993.997	8.21
994.423	3.71
994.849	-2.59
995.275	1.21
995.701	0.01
996.127	-2.64
996.553	1.31
996.979	1.11
997.405	6.21
997.83	-1.19
998.256	5.91
998.682	-0.49
999.108	2.81
999.534	-0.29
999.959	1.66
1000.385	7.26
1000.811	-1.54
1001.236	-4.89
1001.662	0.86
1002.087	6.96
1002.513	4.06
1002.938	-1.49
1003.364	1.41
1003.789	3.96
1004.215	-0.29
1004.64	-1.59
1005.066	5.06
1005.491	6.36
1005.916	3.36
1006.342	-0.04
1006.767	2.21
1007.192	2.71
1007.617	4.61
1008.042	1.76
1008.468	1.51
1008.893	5.46
1009.318	8.76
1009.743	9.06
1010.168	20.96
1010.593	18.56
1011.018	9.46
1011.443	3.96
1011.868	5.61
1012.293	4.76
1012.718	4.66
1013.143	3.21
1013.567	6.46
1013.992	3.51
1014.417	3.91
1014.842	-0.84
1015.267	-2.04
1015.691	4.31
1016.116	1.11
1016.541	1.76
1016.965	5.36
1017.39	5.81
1017.814	-0.74
1018.239	-0.24
1018.663	-7.94
1019.088	-2.74
1019.512	3.76
1019.937	-1.04
1020.361	4.01
1020.785	1.01
1021.21	-1.24
1021.634	4.26
1022.058	-0.14
1022.483	-3.49
1022.907	-1.09
1023.331	3.21
1023.755	2.81
1024.179	3.61
1024.604	-4.84
1025.028	4.21
1025.452	8.96
1025.876	2.41
1026.3	0.46
1026.724	-2.79
1027.148	2.61
1027.572	-3.04
1027.996	4.06
1028.42	2.51
1028.843	1.36
1029.267	1.46
1029.691	4.56
1030.115	-3.84
1030.539	1.91
1030.962	-6.54
1031.386	-0.24
1031.81	-2.69
1032.233	1.96
1032.657	-1.29
1033.08	3.11
1033.504	-1.39
1033.927	-0.29
1034.351	0.01
1034.774	-4.39
1035.198	2.21
1035.621	1.96
1036.045	0.76
1036.468	8.11
1036.891	2.56
1037.315	3.66
1037.738	-0.59
1038.161	-0.14
1038.584	2.86
1039.008	-4.49
1039.431	-0.79
1039.854	-7.99
1040.277	2.96
1040.7	-1.44
1041.123	-2.39
1041.546	-4.44
1041.969	0.21
1042.392	2.56
1042.815	-2.54
1043.238	-1.14
1043.661	1.46
1044.084	0.46
1044.507	-1.59
1044.93	0.11
1045.352	0.36
1045.775	2.01
1046.198	3.86
1046.621	2.76
1047.043	0.96
1047.466	3.16
1047.889	-4.24
1048.311	1.66
1048.734	1.96
1049.156	1.21
1049.579	-0.34
1050.001	0.61
1050.424	3.56
1050.846	-5.14
1051.269	-1.94
1051.691	-0.89
1052.113	3.06
1052.536	-2.09
1052.958	-4.84
1053.38	-1.39
1053.802	0.81
1054.225	1.41
1054.647	1.86
1055.069	0.31
1055.491	0.81
1055.913	-0.74
1056.335	-9.49
1056.757	-6.69
1057.179	-1.84
1057.601	-0.94
1058.023	1.61
1058.445	-2.94
1058.867	0.26
1059.289	0.21
1059.711	-4.99
1060.133	-1.89
1060.555	-2.74
1060.976	-1.09
1061.398	-3.19
1061.82	-0.79
1062.241	-0.49
1062.663	-0.14
1063.085	-2.94
1063.506	-5.69
1063.928	-3.44
1064.35	4.21
1064.771	-1.69
1065.193	-5.49
1065.614	-2.34
1066.035	3.46
1066.457	6.01
1066.878	-2.09
1067.3	-2.74
1067.721	-0.44
1068.142	3.61
1068.564	2.11
1068.985	1.51
1069.406	-5.89
1069.827	2.11
1070.248	-3.14
1070.67	-3.14
1071.091	-6.49
1071.512	3.06
1071.933	-5.54
1072.354	-4.49
1072.775	0.96
1073.196	-3.54
1073.617	-6.69
1074.038	-0.09
1074.459	-1.69
1074.88	-1.29
1075.3	-1.84
1075.721	3.56
1076.142	-1.89
1076.563	-4.34
1076.983	1.31
1077.404	-4.94
1077.825	1.21
1078.246	-2.64
1078.666	-4.84
1079.087	-6.29
1079.507	-2.14
1079.928	-0.59
1080.348	1.96
1080.769	-2.84
1081.189	-1.89
1081.61	-7.84
1082.03	0.51
1082.451	-1.79
1082.871	-2.89
1083.291	-3.24
1083.711	-2.79
1084.132	-4.54
1084.552	-3.74
1084.972	-5.79
1085.392	-3.89
1085.813	-0.99
1086.233	-2.89
1086.653	3.16
1087.073	-6.44
1087.493	-4.94
1087.913	0.61
1088.333	-4.74
1088.753	-2.54
1089.173	4.06
1089.593	-0.64
1090.013	-2.69
1090.433	-5.84
1090.852	0.96
1091.272	-6.39
1091.692	-4.19
1092.112	-4.14
1092.531	-6.04
1092.951	-3.79
1093.371	-1.74
1093.79	-4.94
1094.21	0.21
1094.63	1.11
1095.049	-0.14
1095.469	-9.19
1095.888	-0.84
1096.308	-0.14
1096.727	-2.14
1097.146	-5.29
1097.566	-3.14
1097.985	-4.24
1098.405	-0.99
1098.824	-3.44
1099.243	0.51
1099.662	-1.19
1100.082	-4.69
1100.501	2.76
1100.92	7.31
1101.339	0.06
1101.758	1.76
