Data from MSPlasma+Separation6_Subt14_10-12-35-369.txt Node
Date: Fri Jul 21 10:12:35 EDT 2017
User: Ender
Spectrometer: HR+D1039
Trigger mode: 0
Integration Time (sec): 6.430000E-3
Scans to average: 20
Electric dark correction enabled: true
Nonlinearity correction enabled: false
Boxcar width: 0
XAxis mode: Wavelengths
Number of Pixels in Spectrum: 2048
>>>>>Begin Spectral Data<<<<<
187.836	-0.64
188.309	-0.64
188.782	-0.64
189.255	4.91
189.728	2.66
190.201	-0.74
190.674	-2.29
191.147	-1.69
191.619	0.81
192.092	-4.29
192.565	-1.44
193.038	3.91
193.511	4.86
193.984	0.71
194.456	-1.09
194.929	-2.94
195.402	-1.54
195.874	-1.14
196.347	2.31
196.82	1.06
197.292	-4.04
197.765	-4.99
198.237	-3.64
198.71	-6.04
199.182	-0.44
199.655	2.16
200.127	-2.24
200.6	1.96
201.072	0.56
201.544	-2.39
202.017	-1.79
202.489	-0.89
202.961	-4.59
203.433	-1.54
203.906	0.16
204.378	1.76
204.85	-1.04
205.322	-2.79
205.794	0.61
206.266	-3.54
206.739	-0.99
207.211	-2.94
207.683	-0.99
208.155	0.71
208.627	1.16
209.099	4.16
209.57	0.06
210.042	1.86
210.514	0.31
210.986	0.46
211.458	-0.24
211.93	-1.44
212.402	-0.84
212.873	-4.74
213.345	-6.49
213.817	2.86
214.288	-1.34
214.76	-0.84
215.232	-3.09
215.703	-0.64
216.175	0.11
216.646	0.86
217.118	2.06
217.589	-5.04
218.061	-3.79
218.532	-5.99
219.004	-1.79
219.475	0.56
219.946	2.76
220.418	1.31
220.889	-0.99
221.36	3.46
221.832	2.76
222.303	0.06
222.774	3.16
223.245	-1.69
223.717	1.21
224.188	6.06
224.659	1.26
225.13	-0.19
225.601	-0.89
226.072	1.01
226.543	3.46
227.014	-2.99
227.485	2.66
227.956	0.56
228.427	8.71
228.898	0.71
229.369	2.81
229.839	4.21
230.31	2.51
230.781	5.06
231.252	3.06
231.722	5.86
232.193	5.11
232.664	4.26
233.135	4.46
233.605	7.31
234.076	8.76
234.546	3.41
235.017	5.86
235.487	6.56
235.958	7.01
236.428	9.46
236.899	7.61
237.369	15.41
237.84	10.91
238.31	12.16
238.78	3.21
239.251	8.01
239.721	4.31
240.191	8.91
240.662	12.11
241.132	7.41
241.602	8.11
242.072	9.76
242.542	7.66
243.013	8.76
243.483	11.16
243.953	7.86
244.423	11.91
244.893	11.51
245.363	14.36
245.833	10.86
246.303	12.91
246.773	17.91
247.243	5.01
247.712	14.66
248.182	15.81
248.652	18.11
249.122	15.01
249.592	15.46
250.061	14.36
250.531	15.21
251.001	15.91
251.471	15.66
251.94	16.81
252.41	14.36
252.879	19.41
253.349	20.41
253.818	17.91
254.288	23.61
254.757	18.26
255.227	20.31
255.696	21.26
256.166	28.81
256.635	23.71
257.105	22.21
257.574	22.11
258.043	27.26
258.513	20.31
258.982	23.56
259.451	25.76
259.92	22.61
260.389	23.76
260.859	24.81
261.328	26.76
261.797	20.41
262.266	25.61
262.735	31.16
263.204	24.26
263.673	28.01
264.142	25.06
264.611	26.66
265.08	24.46
265.549	25.11
266.018	30.21
266.487	32.61
266.955	31.51
267.424	30.46
267.893	34.21
268.362	31.76
268.83	28.66
269.299	33.51
269.768	34.51
270.236	27.11
270.705	39.21
271.174	32.51
271.642	30.86
272.111	33.26
272.579	32.91
273.048	32.61
273.516	34.86
273.985	34.91
274.453	36.96
274.922	32.21
275.39	33.01
275.858	37.96
276.327	33.16
276.795	34.41
277.263	36.26
277.731	41.16
278.2	42.81
278.668	40.46
279.136	45.66
279.604	41.81
280.072	40.56
280.54	36.11
281.008	44.36
281.477	48.41
281.945	41.01
282.413	44.61
282.881	44.86
283.348	47.96
283.816	44.71
284.284	47.66
284.752	46.26
285.22	52.11
285.688	45.11
286.156	45.11
286.623	52.16
287.091	47.61
287.559	54.06
288.026	51.71
288.494	53.06
288.962	54.86
289.429	53.86
289.897	50.71
290.364	47.36
290.832	58.01
291.3	55.21
291.767	58.66
292.234	58.51
292.702	55.81
293.169	57.21
293.637	60.71
294.104	61.21
294.571	57.21
295.039	64.61
295.506	59.06
295.973	57.81
296.44	56.16
296.908	63.21
297.375	64.76
297.842	66.51
298.309	61.76
298.776	61.86
299.243	66.41
299.71	65.26
300.177	68.01
300.644	64.71
301.111	66.11
301.578	68.71
302.045	64.46
302.512	64.26
302.979	72.26
303.446	75.71
303.913	71.61
304.379	76.26
304.846	79.41
305.313	81.11
305.78	81.31
306.246	79.56
306.713	85.66
307.18	86.81
307.646	80.86
308.113	84.91
308.579	87.51
309.046	88.46
309.512	90.21
309.979	92.31
310.445	82.81
310.912	87.46
311.378	94.51
311.845	96.91
312.311	85.31
312.777	91.31
313.244	92.31
313.71	98.81
314.176	103.36
314.642	100.06
315.109	102.86
315.575	96.91
316.041	99.81
316.507	97.61
316.973	106.16
317.439	104.26
317.905	104.26
318.371	104.41
318.837	101.66
319.303	106.76
319.769	102.36
320.235	109.56
320.701	116.51
321.167	110.41
321.633	110.06
322.099	107.21
322.564	110.11
323.03	113.56
323.496	111.46
323.962	116.46
324.427	121.81
324.893	117.91
325.359	121.36
325.824	124.16
326.29	128.51
326.755	120.71
327.221	118.91
327.686	130.21
328.152	131.16
328.617	132.96
329.083	132.06
329.548	133.81
330.014	130.71
330.479	135.71
330.944	138.26
331.41	142.36
331.875	137.51
332.34	131.91
332.805	142.06
333.271	140.71
333.736	140.01
334.201	142.51
334.666	148.36
335.131	148.81
335.596	143.61
336.061	150.01
336.526	149.41
336.991	147.21
337.456	139.61
337.921	137.36
338.386	136.01
338.851	140.11
339.316	140.41
339.781	142.21
340.246	145.21
340.711	146.86
341.175	150.06
341.64	159.76
342.105	156.56
342.569	160.91
343.034	160.11
343.499	163.46
343.963	164.26
344.428	168.71
344.893	165.86
345.357	177.56
345.822	177.21
346.286	175.36
346.751	182.91
347.215	180.11
347.679	184.51
348.144	196.86
348.608	199.86
349.073	200.41
349.537	205.01
350.001	206.26
350.465	210.36
350.93	201.96
351.394	207.56
351.858	209.36
352.322	212.31
352.786	213.76
353.25	206.91
353.715	217.46
354.179	230.11
354.643	233.51
355.107	236.86
355.571	232.86
356.035	226.96
356.498	224.61
356.962	227.21
357.426	228.06
357.89	223.21
358.354	221.16
358.818	223.06
359.281	224.01
359.745	224.46
360.209	227.11
360.673	219.96
361.136	226.91
361.6	227.81
362.064	233.01
362.527	242.41
362.991	234.11
363.454	235.31
363.918	247.16
364.381	244.86
364.845	237.66
365.308	240.11
365.772	249.16
366.235	249.76
366.698	240.56
367.162	237.66
367.625	244.96
368.088	252.06
368.552	248.81
369.015	251.76
369.478	248.91
369.941	250.61
370.404	254.91
370.867	253.71
371.331	253.51
371.794	257.61
372.257	259.06
372.72	261.71
373.183	265.31
373.646	261.51
374.109	265.76
374.572	267.86
375.035	267.36
375.497	269.31
375.96	279.91
376.423	280.41
376.886	287.21
377.349	287.21
377.811	285.01
378.274	290.16
378.737	285.06
379.199	292.06
379.662	292.61
380.125	301.36
380.587	298.66
381.05	302.81
381.512	307.81
381.975	314.06
382.437	325.81
382.9	318.51
383.362	317.66
383.825	322.96
384.287	326.26
384.75	323.16
385.212	328.31
385.674	336.91
386.136	333.41
386.599	337.76
387.061	327.31
387.523	330.61
387.985	338.46
388.447	337.46
388.91	335.91
389.372	343.21
389.834	345.91
390.296	333.96
390.758	341.71
391.22	337.41
391.682	336.86
392.144	340.16
392.606	340.76
393.068	357.31
393.529	375.96
393.991	384.31
394.453	358.36
394.915	355.16
395.377	341.06
395.838	348.46
396.3	347.86
396.762	351.86
397.224	355.41
397.685	350.01
398.147	361.41
398.608	362.26
399.07	367.91
399.531	371.66
399.993	379.41
400.454	376.06
400.916	376.11
401.377	385.96
401.839	389.11
402.3	383.66
402.762	412.81
403.223	442.91
403.684	435.41
404.145	417.26
404.607	406.26
405.068	396.41
405.529	396.31
405.99	402.21
406.451	407.81
406.913	401.21
407.374	398.26
407.835	399.61
408.296	411.66
408.757	411.71
409.218	421.66
409.679	432.96
410.14	432.36
410.601	452.61
411.062	451.36
411.522	463.41
411.983	465.26
412.444	475.81
412.905	479.86
413.366	506.31
413.826	530.66
414.287	614.11
414.748	747.46
415.208	771.71
415.669	627.71
416.13	565.06
416.59	555.16
417.051	584.21
417.511	611.01
417.972	670.01
418.432	723.41
418.893	806.11
419.353	772.61
419.814	576.21
420.274	506.11
420.734	499.61
421.195	508.91
421.655	503.11
422.115	513.71
422.576	515.01
423.036	516.11
423.496	530.61
423.956	551.71
424.416	590.16
424.876	671.21
425.336	667.86
425.797	647.26
426.257	626.36
426.717	580.96
427.177	523.66
427.637	515.71
428.097	533.21
428.556	545.21
429.016	582.41
429.476	568.71
429.936	544.66
430.396	524.71
430.856	533.46
431.315	539.76
431.775	588.56
432.235	648.16
432.694	655.01
433.154	596.96
433.614	589.56
434.073	578.21
434.533	523.11
434.993	511.81
435.452	530.21
435.912	525.36
436.371	532.56
436.83	527.66
437.29	531.06
437.749	527.71
438.209	529.81
438.668	545.16
439.127	552.66
439.587	545.81
440.046	546.81
440.505	555.36
440.964	558.51
441.424	580.81
441.883	589.11
442.342	569.61
442.801	549.41
443.26	552.11
443.719	557.36
444.178	552.21
444.637	561.21
445.096	566.11
445.555	563.91
446.014	567.56
446.473	570.06
446.932	567.81
447.391	575.41
447.849	592.36
448.308	578.36
448.767	590.01
449.226	595.76
449.685	607.76
450.143	636.06
450.602	631.41
451.061	600.01
451.519	594.31
451.978	591.91
452.436	585.21
452.895	590.36
453.353	587.81
453.812	577.31
454.27	579.81
454.729	584.31
455.187	596.51
455.646	592.36
456.104	594.31
456.562	599.61
457.021	608.21
457.479	581.71
457.937	603.96
458.395	626.21
458.854	615.01
459.312	603.71
459.77	609.26
460.228	619.41
460.686	619.51
461.144	621.26
461.602	614.56
462.06	621.66
462.518	633.86
462.976	627.11
463.434	639.51
463.892	640.86
464.35	655.06
464.808	666.76
465.266	672.81
465.724	676.71
466.181	670.26
466.639	683.56
467.097	707.06
467.555	728.81
468.012	726.41
468.47	721.96
468.928	751.61
469.385	767.66
469.843	769.51
470.3	765.41
470.758	785.06
471.215	799.56
471.673	804.41
472.13	823.86
472.588	838.36
473.045	840.36
473.503	852.06
473.96	883.11
474.417	884.51
474.875	910.31
475.332	933.56
475.789	942.51
476.246	959.91
476.704	973.76
477.161	985.36
477.618	988.66
478.075	1004.21
478.532	1037.61
478.989	1064.61
479.446	1107.96
479.903	1102.41
480.36	1123.71
480.817	1124.06
481.274	1129.21
481.731	1166.21
482.188	1178.91
482.645	1215.51
483.102	1221.01
483.558	1269.91
484.015	1282.61
484.472	1288.46
484.929	1288.51
485.385	1283.91
485.842	1293.56
486.299	1305.61
486.755	1297.11
487.212	1278.66
487.668	1236.91
488.125	1239.41
488.582	1215.36
489.038	1228.41
489.494	1246.71
489.951	1247.31
490.407	1242.16
490.864	1255.36
491.32	1248.91
491.776	1252.31
492.233	1274.66
492.689	1268.26
493.145	1252.61
493.602	1256.81
494.058	1262.51
494.514	1280.91
494.97	1285.41
495.426	1305.11
495.882	1310.16
496.338	1307.81
496.794	1316.71
497.251	1317.91
497.707	1340.56
498.163	1332.31
498.618	1347.96
499.074	1342.11
499.53	1359.01
499.986	1370.61
500.442	1369.66
500.898	1348.51
501.354	1368.21
501.809	1365.76
502.265	1378.31
502.721	1382.41
503.177	1381.96
503.632	1391.86
504.088	1394.71
504.543	1414.21
504.999	1428.76
505.455	1427.36
505.91	1405.06
506.366	1414.71
506.821	1411.81
507.277	1410.66
507.732	1419.56
508.187	1421.91
508.643	1429.21
509.098	1428.86
509.553	1437.31
510.009	1458.41
510.464	1497.61
510.919	1504.41
511.375	1522.76
511.83	1532.41
512.285	1553.41
512.74	1591.86
513.195	1617.01
513.65	1644.06
514.105	1667.66
514.56	1678.36
515.015	1704.01
515.47	1703.06
515.925	1689.11
516.38	1685.11
516.835	1699.21
517.29	1697.96
517.745	1696.46
518.2	1656.56
518.655	1627.51
519.109	1601.76
519.564	1570.01
520.019	1565.06
520.474	1550.81
520.928	1539.61
521.383	1537.51
521.838	1530.96
522.292	1510.91
522.747	1501.31
523.201	1495.41
523.656	1479.51
524.11	1481.26
524.565	1463.11
525.019	1467.01
525.474	1474.66
525.928	1454.36
526.382	1459.26
526.837	1447.31
527.291	1460.11
527.745	1453.51
528.2	1447.26
528.654	1433.31
529.108	1444.56
529.562	1428.31
530.016	1433.56
530.47	1446.71
530.925	1425.61
531.379	1426.51
531.833	1445.21
532.287	1439.36
532.741	1434.21
533.195	1439.01
533.649	1438.46
534.103	1444.21
534.556	1427.66
535.01	1431.46
535.464	1419.11
535.918	1427.16
536.372	1446.61
536.826	1439.06
537.279	1424.61
537.733	1423.66
538.187	1434.76
538.64	1434.06
539.094	1443.21
539.548	1472.66
540.001	1447.81
540.455	1456.96
540.908	1486.41
541.362	1493.86
541.815	1509.36
542.269	1532.36
542.722	1533.61
543.175	1548.16
543.629	1565.31
544.082	1581.01
544.536	1597.61
544.989	1594.71
545.442	1609.91
545.895	1597.71
546.349	1601.01
546.802	1617.66
547.255	1614.41
547.708	1625.11
548.161	1641.41
548.614	1646.11
549.067	1648.71
549.52	1639.66
549.973	1615.16
550.426	1603.56
550.879	1593.01
551.332	1595.96
551.785	1605.41
552.238	1614.56
552.691	1622.46
553.144	1646.56
553.596	1670.51
554.049	1695.06
554.502	1736.16
554.955	1775.81
555.407	1787.61
555.86	1775.91
556.313	1752.66
556.765	1727.46
557.218	1709.06
557.67	1702.26
558.123	1679.51
558.576	1665.31
559.028	1667.91
559.48	1696.16
559.933	1690.31
560.385	1626.21
560.838	1570.11
561.29	1514.41
561.742	1508.01
562.195	1465.81
562.647	1458.71
563.099	1459.41
563.551	1451.76
564.004	1470.96
564.456	1453.46
564.908	1418.81
565.36	1382.51
565.812	1352.56
566.264	1341.16
566.716	1320.06
567.168	1297.96
567.62	1303.56
568.072	1294.61
568.524	1279.96
568.976	1282.96
569.428	1259.56
569.88	1262.16
570.332	1270.21
570.784	1271.76
571.235	1264.26
571.687	1285.86
572.139	1276.36
572.59	1291.56
573.042	1311.86
573.494	1302.61
573.945	1280.86
574.397	1253.06
574.849	1247.66
575.3	1254.06
575.752	1231.96
576.203	1215.66
576.655	1221.16
577.106	1204.91
577.557	1192.21
578.009	1194.96
578.46	1197.06
578.912	1186.76
579.363	1201.96
579.814	1197.31
580.265	1185.76
580.717	1193.46
581.168	1188.41
581.619	1198.61
582.07	1206.16
582.521	1198.76
582.972	1194.46
583.423	1201.86
583.875	1206.96
584.326	1215.21
584.777	1234.86
585.227	1255.61
585.678	1266.71
586.129	1288.21
586.58	1291.91
587.031	1329.41
587.482	1367.21
587.933	1379.96
588.384	1375.71
588.834	1366.46
589.285	1360.96
589.736	1352.86
590.186	1354.66
590.637	1345.16
591.088	1314.51
591.538	1280.26
591.989	1261.76
592.439	1246.26
592.89	1240.91
593.34	1236.51
593.791	1223.31
594.241	1205.21
594.692	1203.01
595.142	1198.41
595.593	1205.41
596.043	1214.61
596.493	1218.01
596.943	1224.81
597.394	1253.21
597.844	1266.21
598.294	1302.61
598.744	1352.31
599.195	1418.21
599.645	1515.36
600.095	1591.61
600.545	1670.51
600.995	1761.86
601.445	1834.56
601.895	1937.36
602.345	2008.91
602.795	1978.01
603.245	1874.71
603.695	1759.36
604.145	1648.76
604.594	1560.76
605.044	1474.91
605.494	1367.71
605.944	1290.31
606.393	1261.76
606.843	1231.41
607.293	1238.51
607.743	1228.36
608.192	1240.36
608.642	1243.71
609.091	1244.81
609.541	1246.81
609.99	1238.01
610.44	1211.21
610.889	1196.91
611.339	1183.16
611.788	1158.56
612.238	1169.46
612.687	1165.56
613.136	1181.11
613.586	1194.71
614.035	1191.81
614.484	1198.56
614.933	1197.06
615.383	1177.41
615.832	1145.61
616.281	1134.41
616.73	1108.76
617.179	1080.11
617.628	1061.31
618.077	1043.46
618.526	1021.66
618.975	1019.31
619.424	991.91
619.873	996.81
620.322	987.31
620.771	995.46
621.22	976.01
621.669	950.76
622.118	944.36
622.567	930.21
623.015	909.46
623.464	911.46
623.913	902.36
624.361	904.41
624.81	895.11
625.259	894.01
625.707	890.91
626.156	896.71
626.604	915.96
627.053	915.16
627.501	918.51
627.95	926.26
628.398	942.16
628.847	926.41
629.295	923.76
629.744	915.61
630.192	897.01
630.64	879.31
631.089	867.61
631.537	834.26
631.985	830.26
632.433	816.61
632.881	817.36
633.33	819.11
633.778	821.76
634.226	821.16
634.674	830.06
635.122	835.06
635.57	852.16
636.018	863.76
636.466	854.76
636.914	853.26
637.362	869.36
637.81	887.46
638.258	912.81
638.705	915.36
639.153	955.71
639.601	961.86
640.049	976.11
640.497	1018.51
640.944	1037.41
641.392	979.41
641.84	893.06
642.287	842.81
642.735	816.16
643.182	795.56
643.63	789.36
644.078	785.01
644.525	781.41
644.973	794.71
645.42	794.96
645.867	796.21
646.315	801.56
646.762	801.61
647.21	795.96
647.657	805.36
648.104	796.31
648.551	759.96
648.999	762.56
649.446	754.86
649.893	753.16
650.34	764.56
650.787	785.06
651.234	814.11
651.682	874.41
652.129	959.31
652.576	1098.31
653.023	1262.81
653.47	1360.16
653.917	1424.86
654.363	1461.01
654.81	1539.66
655.257	1577.16
655.704	1243.16
656.151	965.51
656.598	849.46
657.044	777.46
657.491	767.06
657.938	742.21
658.385	727.91
658.831	735.16
659.278	723.26
659.724	714.96
660.171	709.06
660.618	688.01
661.064	678.51
661.511	681.86
661.957	679.66
662.404	685.71
662.85	691.16
663.296	700.06
663.743	695.71
664.189	698.81
664.635	711.21
665.082	703.36
665.528	699.96
665.974	684.31
666.42	680.81
666.867	676.71
667.313	639.11
667.759	634.16
668.205	640.96
668.651	640.21
669.097	643.26
669.543	647.96
669.989	655.06
670.435	651.76
670.881	671.11
671.327	698.76
671.773	749.86
672.219	827.96
672.665	882.71
673.11	930.26
673.556	952.66
674.002	980.81
674.448	1012.16
674.893	834.21
675.339	721.41
675.785	658.46
676.23	624.76
676.676	594.16
677.122	586.41
677.567	563.61
678.013	546.56
678.458	545.31
678.904	534.01
679.349	536.11
679.794	537.31
680.24	536.41
680.685	527.76
681.131	535.06
681.576	532.16
682.021	539.36
682.466	541.21
682.912	550.16
683.357	581.11
683.802	629.21
684.247	697.76
684.692	748.06
685.137	790.01
685.583	804.36
686.028	863.96
686.473	815.46
686.918	689.16
687.363	633.76
687.807	589.71
688.252	559.26
688.697	541.11
689.142	512.91
689.587	526.01
690.032	540.16
690.477	560.11
690.921	586.46
691.366	618.76
691.811	652.16
692.255	699.66
692.7	858.16
693.145	1236.96
693.589	1917.86
694.034	2328.61
694.478	2528.76
694.923	2368.71
695.367	3454.36
695.812	2053.11
696.256	819.86
696.701	585.16
697.145	535.56
697.59	510.56
698.034	508.41
698.478	502.76
698.922	504.56
699.367	522.71
699.811	552.96
700.255	606.26
700.699	658.71
701.143	723.41
701.588	774.56
702.032	805.21
702.476	841.56
702.92	871.26
703.364	1129.06
703.808	1748.76
704.252	2234.56
704.696	2424.06
705.14	2330.01
705.584	3291.01
706.027	1771.21
706.471	857.31
706.915	619.81
707.359	548.01
707.803	508.91
708.246	487.86
708.69	480.81
709.134	478.91
709.577	482.51
710.021	485.66
710.465	484.96
710.908	478.11
711.352	495.76
711.795	551.56
712.239	596.81
712.682	617.21
713.126	610.21
713.569	691.91
714.012	554.51
714.456	472.96
714.899	446.71
715.342	426.76
715.786	411.86
716.229	400.86
716.672	385.76
717.115	387.16
717.558	392.91
718.002	402.56
718.445	427.76
718.888	448.01
719.331	464.46
719.774	476.16
720.217	458.66
720.66	437.41
721.103	409.66
721.546	383.61
721.989	373.81
722.432	365.81
722.874	366.26
723.317	368.46
723.76	400.51
724.203	505.31
724.645	683.66
725.088	821.76
725.531	814.56
725.974	919.81
726.416	825.21
726.859	478.91
727.301	379.41
727.744	370.11
728.187	375.51
728.629	375.51
729.071	401.26
729.514	421.76
729.956	439.31
730.399	445.61
730.841	451.21
731.283	429.41
731.726	421.21
732.168	419.51
732.61	446.31
733.053	486.06
733.495	546.81
733.937	608.61
734.379	723.86
734.821	919.61
735.263	1451.51
735.705	2614.11
736.148	3952.81
736.59	4081.01
737.032	4556.01
737.474	3715.26
737.916	1367.71
738.357	696.26
738.799	530.01
739.241	480.56
739.683	481.16
740.125	494.61
740.567	498.46
741.008	536.61
741.45	556.96
741.892	578.16
742.334	596.86
742.775	595.86
743.217	564.11
743.658	468.36
744.1	477.76
744.542	536.76
744.983	575.11
745.425	599.21
745.866	594.36
746.307	491.36
746.749	534.66
747.19	777.86
747.632	1518.66
748.073	2863.36
748.514	4053.41
748.956	5556.66
749.397	6582.81
749.838	4524.51
750.279	4443.11
750.72	2221.01
751.162	902.61
751.603	503.06
752.044	407.51
752.485	354.96
752.926	334.56
753.367	316.16
753.808	305.31
754.249	302.11
754.69	298.26
755.131	297.31
755.572	294.01
756.013	290.86
756.453	291.61
756.894	301.16
757.335	298.41
757.776	303.36
758.216	325.11
758.657	340.96
759.098	375.61
759.538	449.06
759.979	652.46
760.42	1312.06
760.86	3384.41
761.301	7282.76
761.741	8955.56
762.182	10747.46
762.622	6796.56
763.063	2333.96
763.503	928.66
763.943	536.81
764.384	421.56
764.824	363.01
765.264	331.16
765.705	312.51
766.145	294.06
766.585	284.91
767.025	274.36
767.465	272.76
767.906	274.91
768.346	301.76
768.786	347.01
769.226	509.66
769.666	1049.61
770.106	2386.06
770.546	3552.31
770.986	4183.91
771.426	3185.81
771.866	1266.36
772.306	551.41
772.745	332.66
773.185	278.16
773.625	262.91
774.065	279.66
774.505	384.76
774.944	667.56
775.384	967.46
775.824	1139.21
776.263	958.36
776.703	489.81
777.142	289.76
777.582	215.81
778.021	202.86
778.461	193.21
778.9	194.51
779.34	188.91
779.779	183.31
780.219	179.66
780.658	174.96
781.097	176.76
781.537	167.46
781.976	175.56
782.415	169.81
782.855	168.06
783.294	167.21
783.733	158.46
784.172	169.71
784.611	164.21
785.05	171.01
785.489	179.31
785.928	180.66
786.367	188.11
786.806	201.26
787.245	216.91
787.684	223.61
788.123	230.46
788.562	211.96
789.001	203.91
789.44	193.46
789.879	196.46
790.317	195.66
790.756	213.76
791.195	242.16
791.634	328.91
792.072	599.46
792.511	1495.61
792.95	2878.71
793.388	3650.61
793.827	2369.81
794.265	1035.26
794.704	479.91
795.142	289.96
795.581	239.36
796.019	215.66
796.458	214.76
796.896	220.96
797.334	253.06
797.773	343.91
798.211	660.56
798.649	1425.31
799.087	2455.71
799.526	3490.86
799.964	3699.86
800.402	2573.76
800.84	1112.91
801.278	534.06
801.716	313.86
802.154	249.36
802.592	239.91
803.03	238.26
803.468	248.06
803.906	243.61
804.344	240.96
804.782	231.71
805.22	230.41
805.658	239.11
806.096	256.51
806.533	285.96
806.971	376.46
807.409	552.36
807.847	1092.91
808.284	2820.86
808.722	5151.86
809.16	7242.21
809.597	9673.86
810.035	12510.51
810.472	8226.91
810.91	3340.06
811.347	1477.16
811.785	688.26
812.222	430.06
812.66	329.71
813.097	275.86
813.535	242.81
813.972	212.96
814.409	200.01
814.846	186.11
815.284	178.76
815.721	179.06
816.158	194.91
816.595	256.71
817.032	331.76
817.47	298.66
817.907	217.96
818.344	194.41
818.781	181.81
819.218	222.36
819.655	345.16
820.092	462.16
820.529	415.66
820.966	325.06
821.403	218.66
821.839	188.71
822.276	210.56
822.713	257.56
823.15	237.21
823.587	254.16
824.023	452.61
824.46	1169.46
824.897	2164.71
825.333	1720.66
825.77	755.01
826.206	382.86
826.643	220.86
827.08	162.46
827.516	141.21
827.953	130.46
828.389	126.16
828.825	120.31
829.262	109.31
829.698	107.96
830.135	102.86
830.571	103.96
831.007	106.11
831.443	106.86
831.88	106.76
832.316	107.21
832.752	106.36
833.188	112.61
833.624	112.66
834.06	112.41
834.497	115.61
834.933	112.36
835.369	135.11
835.805	136.21
836.241	135.76
836.677	151.41
837.112	179.01
837.548	221.81
837.984	340.06
838.42	722.36
838.856	2059.16
839.292	4270.96
839.727	3214.26
840.163	2059.51
840.599	3100.06
841.034	5038.66
841.47	2520.96
841.906	1167.81
842.341	605.16
842.777	424.91
843.212	435.51
843.648	276.46
844.083	185.76
844.519	139.06
844.954	117.36
845.39	108.46
845.825	100.71
846.261	100.41
846.696	94.76
847.131	88.31
847.566	90.66
848.002	90.36
848.437	101.51
848.872	103.51
849.307	137.11
849.742	246.91
850.177	674.41
850.613	1524.31
851.048	1119.31
851.483	485.71
851.918	258.91
852.353	139.16
852.788	99.71
853.223	92.86
853.657	82.11
854.092	79.26
854.527	76.86
854.962	82.21
855.397	86.01
855.832	75.01
856.266	67.06
856.701	69.56
857.136	70.06
857.57	87.46
858.005	105.51
858.44	88.51
858.874	82.06
859.309	86.81
859.743	86.91
860.178	80.31
860.612	93.46
861.047	119.36
861.481	170.56
861.915	108.71
862.35	82.76
862.784	70.46
863.218	65.41
863.653	72.36
864.087	86.81
864.521	110.51
864.955	190.71
865.39	354.36
865.824	255.66
866.258	302.56
866.692	470.86
867.126	339.61
867.56	179.31
867.994	115.71
868.428	94.61
868.862	123.41
869.296	104.01
869.73	132.01
870.164	112.76
870.598	99.71
871.031	70.91
871.465	64.91
871.899	48.61
872.333	43.21
872.766	47.81
873.2	45.26
873.634	47.71
874.067	53.31
874.501	51.46
874.935	50.36
875.368	53.16
875.802	44.81
876.235	44.71
876.669	42.36
877.102	37.36
877.535	38.71
877.969	36.36
878.402	41.06
878.836	35.51
879.269	37.81
879.702	39.26
880.135	39.66
880.569	39.01
881.002	30.71
881.435	37.21
881.868	37.81
882.301	30.86
882.734	28.76
883.167	34.31
883.601	31.71
884.034	32.46
884.467	30.11
884.899	33.56
885.332	21.31
885.765	29.41
886.198	32.81
886.631	32.11
887.064	34.26
887.497	26.26
887.929	31.61
888.362	24.46
888.795	22.96
889.228	32.26
889.66	28.21
890.093	28.91
890.526	29.96
890.958	31.76
891.391	28.41
891.823	26.56
892.256	31.01
892.688	28.86
893.121	24.71
893.553	29.86
893.985	24.41
894.418	26.11
894.85	28.61
895.282	24.71
895.715	27.66
896.147	22.31
896.579	23.56
897.011	26.16
897.444	26.61
897.876	21.01
898.308	22.96
898.74	24.51
899.172	24.11
899.604	25.51
900.036	27.41
900.468	19.46
900.9	30.41
901.332	37.86
901.764	41.21
902.196	36.56
902.628	32.41
903.06	55.81
903.491	56.01
903.923	42.16
904.355	50.46
904.787	53.56
905.218	38.66
905.65	39.96
906.082	31.71
906.513	29.46
906.945	33.21
907.376	28.56
907.808	32.96
908.239	32.86
908.671	42.51
909.102	44.41
909.534	64.01
909.965	128.51
910.397	343.86
910.828	1034.76
911.259	629.81
911.691	328.81
912.122	182.76
912.553	94.71
912.984	47.56
913.415	40.81
913.847	36.21
914.278	34.01
914.709	33.51
915.14	25.16
915.571	29.56
916.002	31.66
916.433	25.21
916.864	26.96
917.295	29.01
917.726	34.46
918.157	48.41
918.587	44.01
919.018	42.21
919.449	37.61
919.88	43.71
920.311	71.81
920.741	208.51
921.172	381.31
921.603	185.36
922.033	112.71
922.464	73.86
922.895	45.11
923.325	26.41
923.756	22.91
924.186	35.31
924.617	43.11
925.047	71.21
925.478	65.71
925.908	44.81
926.338	31.81
926.769	24.51
927.199	30.46
927.629	23.96
928.06	26.11
928.49	27.76
928.92	21.36
929.35	22.16
929.78	15.76
930.21	20.01
930.641	12.36
931.071	15.96
931.501	11.46
931.931	14.41
932.361	16.21
932.791	16.26
933.221	20.51
933.651	26.76
934.08	52.11
934.51	29.11
934.94	19.61
935.37	17.16
935.8	15.61
936.229	12.61
936.659	11.26
937.089	22.36
937.519	33.91
937.948	56.56
938.378	27.31
938.807	15.51
939.237	8.21
939.666	7.91
940.096	4.56
940.525	2.31
940.955	9.36
941.384	4.21
941.814	8.76
942.243	7.76
942.672	-0.34
943.102	6.16
943.531	6.16
943.96	7.76
944.39	5.51
944.819	8.96
945.248	3.81
945.677	6.11
946.106	5.06
946.535	5.81
946.964	6.26
947.393	0.41
947.822	4.81
948.251	6.76
948.68	8.16
949.109	5.26
949.538	2.01
949.967	4.36
950.396	6.21
950.825	7.56
951.254	5.31
951.682	-0.79
952.111	-1.69
952.54	4.56
952.969	1.66
953.397	-1.89
953.826	4.91
954.254	6.16
954.683	4.36
955.112	9.31
955.54	3.61
955.969	-1.94
956.397	5.11
956.826	3.71
957.254	1.06
957.682	0.56
958.111	3.11
958.539	5.91
958.967	7.46
959.396	10.26
959.824	1.16
960.252	5.91
960.68	2.36
961.109	4.41
961.537	9.41
961.965	-1.54
962.393	7.06
962.821	3.36
963.249	2.96
963.677	8.11
964.105	58.91
964.533	107.96
964.961	48.96
965.389	26.36
965.817	15.41
966.245	5.91
966.672	4.61
967.1	2.41
967.528	-2.09
967.956	3.41
968.383	7.26
968.811	0.21
969.239	2.91
969.666	5.11
970.094	4.06
970.522	-0.99
970.949	2.71
971.377	-5.69
971.804	3.76
972.232	-1.24
972.659	3.56
973.087	1.06
973.514	1.21
973.941	-1.84
974.369	-1.84
974.796	1.01
975.223	-5.14
975.651	-1.24
976.078	2.46
976.505	6.01
976.932	23.56
977.359	32.61
977.786	20.11
978.214	10.81
978.641	1.86
979.068	1.66
979.495	-3.39
979.922	2.21
980.349	1.06
980.776	2.91
981.202	3.56
981.629	3.21
982.056	4.66
982.483	-5.34
982.91	4.06
983.337	1.31
983.763	-1.04
984.19	3.86
984.617	0.71
985.043	3.81
985.47	0.21
985.897	2.61
986.323	8.76
986.75	-0.94
987.176	0.21
987.603	2.66
988.029	3.21
988.456	5.26
988.882	-1.39
989.308	-1.34
989.735	-0.89
990.161	3.71
990.587	0.66
991.014	3.76
991.44	1.86
991.866	3.21
992.292	-2.79
992.719	-2.34
993.145	5.81
993.571	4.71
993.997	3.06
994.423	4.01
994.849	-5.89
995.275	1.66
995.701	3.46
996.127	-4.44
996.553	-1.39
996.979	-1.54
997.405	4.46
997.83	0.06
998.256	2.31
998.682	-0.24
999.108	0.31
999.534	-6.39
999.959	-3.24
1000.385	4.01
1000.811	0.76
1001.236	-7.34
1001.662	0.01
1002.087	4.96
1002.513	0.16
1002.938	-4.84
1003.364	1.11
1003.789	3.76
1004.215	-1.89
1004.64	0.96
1005.066	5.01
1005.491	4.11
1005.916	-2.99
1006.342	2.11
1006.767	2.61
1007.192	5.91
1007.617	-1.49
1008.042	4.26
1008.468	0.81
1008.893	4.16
1009.318	6.41
1009.743	8.96
1010.168	19.96
1010.593	15.86
1011.018	5.16
1011.443	0.41
1011.868	6.16
1012.293	5.16
1012.718	-2.34
1013.143	-0.29
1013.567	6.86
1013.992	-0.04
1014.417	0.51
1014.842	4.26
1015.267	-0.89
1015.691	5.41
1016.116	-0.59
1016.541	4.01
1016.965	3.91
1017.39	1.91
1017.814	-2.84
1018.239	0.56
1018.663	-7.14
1019.088	-2.89
1019.512	2.36
1019.937	0.61
1020.361	2.41
1020.785	-5.29
1021.21	-5.69
1021.634	-1.19
1022.058	6.56
1022.483	-6.14
1022.907	-0.19
1023.331	-5.79
1023.755	-2.74
1024.179	-1.39
1024.604	-0.09
1025.028	-3.04
1025.452	3.66
1025.876	4.01
1026.3	-3.64
1026.724	-2.99
1027.148	3.66
1027.572	0.31
1027.996	2.01
1028.42	-1.54
1028.843	-3.34
1029.267	-4.64
1029.691	3.36
1030.115	-2.99
1030.539	0.36
1030.962	-3.09
1031.386	-0.59
1031.81	-1.99
1032.233	-1.14
1032.657	-5.54
1033.08	-1.69
1033.504	-1.49
1033.927	-1.54
1034.351	-1.89
1034.774	-3.89
1035.198	-2.74
1035.621	-1.29
1036.045	-2.94
1036.468	4.26
1036.891	1.41
1037.315	0.21
1037.738	-1.69
1038.161	3.01
1038.584	0.66
1039.008	-3.39
1039.431	-2.84
1039.854	-5.09
1040.277	-1.69
1040.7	-1.94
1041.123	-2.69
1041.546	-5.29
1041.969	0.61
1042.392	0.86
1042.815	-10.99
1043.238	-5.29
1043.661	-2.89
1044.084	-8.29
1044.507	-4.29
1044.93	-0.74
1045.352	-1.39
1045.775	-1.19
1046.198	-1.94
1046.621	2.61
1047.043	-4.59
1047.466	-1.99
1047.889	-3.94
1048.311	0.96
1048.734	-1.84
1049.156	-4.69
1049.579	-1.14
1050.001	-3.84
1050.424	-2.59
1050.846	-5.64
1051.269	-3.39
1051.691	-2.19
1052.113	-2.84
1052.536	-1.89
1052.958	-6.89
1053.38	-4.34
1053.802	-1.84
1054.225	-3.94
1054.647	2.66
1055.069	-0.99
1055.491	-1.79
1055.913	-1.44
1056.335	-4.99
1056.757	-9.54
1057.179	-0.19
1057.601	-4.24
1058.023	-0.44
1058.445	-7.09
1058.867	1.16
1059.289	0.51
1059.711	-4.19
1060.133	-2.14
1060.555	-5.89
1060.976	-2.64
1061.398	-7.54
1061.82	-1.04
1062.241	-2.49
1062.663	0.66
1063.085	-4.09
1063.506	-8.59
1063.928	-5.19
1064.35	-1.44
1064.771	-1.79
1065.193	-2.09
1065.614	-4.99
1066.035	0.71
1066.457	2.36
1066.878	0.26
1067.3	-2.04
1067.721	-0.64
1068.142	-0.49
1068.564	0.06
1068.985	-2.64
1069.406	-6.74
1069.827	-4.94
1070.248	-4.54
1070.67	-3.39
1071.091	-8.24
1071.512	-0.19
1071.933	-7.19
1072.354	-7.19
1072.775	-2.64
1073.196	-3.04
1073.617	-4.79
1074.038	-7.19
1074.459	-7.04
1074.88	-5.59
1075.3	-1.14
1075.721	-2.79
1076.142	-2.24
1076.563	-6.44
1076.983	-1.74
1077.404	-9.09
1077.825	-3.69
1078.246	-6.54
1078.666	-0.69
1079.087	-3.54
1079.507	-2.74
1079.928	2.06
1080.348	-3.34
1080.769	-3.44
1081.189	-5.49
1081.61	-7.39
1082.03	-0.69
1082.451	-0.99
1082.871	-8.59
1083.291	-6.99
1083.711	-4.44
1084.132	-4.94
1084.552	-3.84
1084.972	-8.69
1085.392	-3.99
1085.813	-5.59
1086.233	-2.64
1086.653	-3.39
1087.073	-5.19
1087.493	-1.69
1087.913	-6.14
1088.333	-4.09
1088.753	-0.94
1089.173	0.41
1089.593	2.41
1090.013	-4.14
1090.433	-5.19
1090.852	0.16
1091.272	-9.64
1091.692	-1.29
1092.112	-8.49
1092.531	-5.94
1092.951	-3.34
1093.371	-4.84
1093.79	-1.29
1094.21	-4.04
1094.63	-7.94
1095.049	-3.79
1095.469	-8.84
1095.888	-3.14
1096.308	1.91
1096.727	-3.74
1097.146	-3.54
1097.566	-6.29
1097.985	-5.84
1098.405	0.01
1098.824	-1.14
1099.243	-3.64
1099.662	-5.24
1100.082	-4.84
1100.501	-1.29
1100.92	2.16
1101.339	-3.89
1101.758	4.26
