Data from MSPlasma+Separation6_Subt14_10-12-33-251.txt Node
Date: Fri Jul 21 10:12:33 EDT 2017
User: Ender
Spectrometer: HR+D1039
Trigger mode: 0
Integration Time (sec): 6.430000E-3
Scans to average: 20
Electric dark correction enabled: true
Nonlinearity correction enabled: false
Boxcar width: 0
XAxis mode: Wavelengths
Number of Pixels in Spectrum: 2048
>>>>>Begin Spectral Data<<<<<
187.836	-0.32
188.309	-0.32
188.782	-0.32
189.255	-3.82
189.728	3.33
190.201	-1.12
190.674	2.88
191.147	-3.02
191.619	0.18
192.092	-0.27
192.565	-3.12
193.038	2.73
193.511	3.28
193.984	0.18
194.456	-3.82
194.929	1.53
195.402	0.13
195.874	1.28
196.347	2.68
196.82	-1.92
197.292	-3.92
197.765	-2.97
198.237	-1.52
198.71	-4.12
199.182	-2.02
199.655	-4.62
200.127	-3.07
200.6	-2.02
201.072	-0.07
201.544	-1.77
202.017	1.43
202.489	-2.27
202.961	-3.07
203.433	-0.57
203.906	-2.22
204.378	-0.92
204.85	-1.92
205.322	0.03
205.794	-1.12
206.266	-10.12
206.739	2.78
207.211	-1.72
207.683	-3.07
208.155	2.23
208.627	-0.07
209.099	3.58
209.57	1.23
210.042	1.73
210.514	-5.02
210.986	-5.42
211.458	-5.47
211.93	-0.92
212.402	0.43
212.873	-3.87
213.345	-3.77
213.817	1.48
214.288	-6.12
214.76	0.93
215.232	0.23
215.703	-0.17
216.175	-2.52
216.646	5.63
217.118	-0.77
217.589	-6.22
218.061	-0.02
218.532	-2.92
219.004	1.18
219.475	-0.72
219.946	0.08
220.418	4.93
220.889	-0.27
221.36	5.13
221.832	2.78
222.303	-2.62
222.774	2.23
223.245	-0.72
223.717	-3.17
224.188	1.78
224.659	2.18
225.13	0.93
225.601	4.48
226.072	1.38
226.543	1.73
227.014	4.38
227.485	3.33
227.956	6.13
228.427	11.43
228.898	2.58
229.369	1.48
229.839	0.58
230.31	4.78
230.781	5.83
231.252	5.03
231.722	7.93
232.193	6.38
232.664	2.68
233.135	1.08
233.605	2.18
234.076	8.28
234.546	7.03
235.017	7.03
235.487	7.63
235.958	6.13
236.428	13.58
236.899	7.33
237.369	12.08
237.84	8.03
238.31	9.68
238.78	4.43
239.251	8.88
239.721	4.33
240.191	4.73
240.662	13.28
241.132	8.23
241.602	14.33
242.072	9.83
242.542	4.93
243.013	10.13
243.483	12.08
243.953	8.58
244.423	10.68
244.893	13.48
245.363	12.23
245.833	14.78
246.303	11.88
246.773	13.23
247.243	11.73
247.712	15.08
248.182	16.83
248.652	16.13
249.122	12.33
249.592	20.33
250.061	13.68
250.531	17.03
251.001	15.78
251.471	18.18
251.94	18.58
252.41	15.98
252.879	18.58
253.349	21.88
253.818	20.18
254.288	26.58
254.757	22.23
255.227	20.08
255.696	22.23
256.166	27.13
256.635	23.38
257.105	20.38
257.574	23.48
258.043	25.18
258.513	25.48
258.982	22.78
259.451	23.83
259.92	15.78
260.389	24.08
260.859	23.33
261.328	24.98
261.797	18.63
262.266	28.83
262.735	29.63
263.204	22.53
263.673	28.03
264.142	26.28
264.611	29.98
265.08	28.73
265.549	25.28
266.018	31.83
266.487	28.93
266.955	25.88
267.424	30.83
267.893	30.63
268.362	28.73
268.83	28.58
269.299	27.38
269.768	30.13
270.236	30.48
270.705	34.28
271.174	32.48
271.642	32.73
272.111	35.03
272.579	33.23
273.048	34.63
273.516	38.38
273.985	37.33
274.453	34.83
274.922	33.28
275.39	30.33
275.858	40.83
276.327	38.28
276.795	38.58
277.263	40.23
277.731	38.18
278.2	42.23
278.668	36.18
279.136	39.23
279.604	41.23
280.072	41.93
280.54	40.48
281.008	46.83
281.477	42.88
281.945	42.98
282.413	43.78
282.881	40.78
283.348	41.08
283.816	45.38
284.284	48.58
284.752	45.63
285.22	45.78
285.688	46.58
286.156	50.68
286.623	47.03
287.091	48.13
287.559	50.38
288.026	53.23
288.494	51.18
288.962	53.58
289.429	53.73
289.897	47.78
290.364	49.23
290.832	52.93
291.3	53.48
291.767	52.88
292.234	57.68
292.702	53.28
293.169	56.28
293.637	57.08
294.104	56.28
294.571	55.98
295.039	60.53
295.506	57.88
295.973	62.98
296.44	56.58
296.908	65.48
297.375	57.58
297.842	68.78
298.309	60.18
298.776	58.58
299.243	62.53
299.71	65.33
300.177	68.23
300.644	65.83
301.111	67.98
301.578	73.23
302.045	68.58
302.512	70.63
302.979	70.73
303.446	74.58
303.913	74.68
304.379	78.88
304.846	74.18
305.313	78.83
305.78	81.98
306.246	79.83
306.713	79.33
307.18	80.78
307.646	77.83
308.113	80.18
308.579	89.38
309.046	86.03
309.512	85.78
309.979	90.13
310.445	87.13
310.912	86.38
311.378	94.93
311.845	93.43
312.311	91.68
312.777	89.58
313.244	92.58
313.71	90.43
314.176	95.18
314.642	99.03
315.109	95.53
315.575	97.93
316.041	99.38
316.507	97.78
316.973	107.73
317.439	105.38
317.905	103.48
318.371	104.93
318.837	104.78
319.303	104.78
319.769	103.68
320.235	109.68
320.701	111.33
321.167	108.98
321.633	111.23
322.099	107.13
322.564	107.78
323.03	113.28
323.496	110.28
323.962	117.63
324.427	120.53
324.893	116.63
325.359	123.28
325.824	122.03
326.29	125.13
326.755	122.78
327.221	123.33
327.686	125.98
328.152	126.23
328.617	134.93
329.083	131.58
329.548	129.38
330.014	131.18
330.479	134.63
330.944	137.28
331.41	142.58
331.875	133.38
332.34	133.58
332.805	134.38
333.271	135.13
333.736	136.83
334.201	138.03
334.666	146.93
335.131	144.63
335.596	145.03
336.061	144.78
336.526	144.93
336.991	139.93
337.456	139.78
337.921	140.38
338.386	139.28
338.851	141.63
339.316	142.88
339.781	144.33
340.246	147.48
340.711	146.78
341.175	149.38
341.64	155.13
342.105	153.63
342.569	159.68
343.034	160.78
343.499	157.58
343.963	173.28
344.428	171.73
344.893	164.73
345.357	172.28
345.822	175.78
346.286	174.58
346.751	179.18
347.215	181.83
347.679	188.78
348.144	197.48
348.608	197.23
349.073	199.68
349.537	209.23
350.001	204.08
350.465	204.08
350.93	203.13
351.394	207.03
351.858	202.18
352.322	213.38
352.786	210.03
353.25	211.98
353.715	220.98
354.179	228.88
354.643	233.48
355.107	231.43
355.571	229.48
356.035	224.43
356.498	225.43
356.962	226.63
357.426	223.23
357.89	222.43
358.354	215.13
358.818	219.13
359.281	218.98
359.745	225.08
360.209	224.18
360.673	221.73
361.136	220.63
361.6	227.93
362.064	231.43
362.527	239.88
362.991	234.83
363.454	226.58
363.918	238.48
364.381	236.68
364.845	238.58
365.308	239.78
365.772	242.23
366.235	244.13
366.698	243.98
367.162	237.78
367.625	242.73
368.088	248.78
368.552	246.88
369.015	243.53
369.478	249.83
369.941	251.73
370.404	252.23
370.867	248.83
371.331	255.33
371.794	259.08
372.257	262.48
372.72	256.28
373.183	261.08
373.646	265.38
374.109	265.88
374.572	261.08
375.035	266.98
375.497	272.63
375.96	275.68
376.423	278.68
376.886	278.38
377.349	288.83
377.811	285.93
378.274	290.38
378.737	285.73
379.199	287.08
379.662	287.98
380.125	297.88
380.587	296.03
381.05	300.78
381.512	299.23
381.975	315.43
382.437	324.78
382.9	322.98
383.362	314.63
383.825	316.58
384.287	321.98
384.75	321.58
385.212	330.98
385.674	325.88
386.136	330.53
386.599	326.23
387.061	331.08
387.523	332.38
387.985	337.78
388.447	335.63
388.91	334.53
389.372	337.18
389.834	339.23
390.296	333.18
390.758	338.78
391.22	338.98
391.682	338.83
392.144	335.43
392.606	345.43
393.068	349.33
393.529	375.73
393.991	383.38
394.453	363.68
394.915	349.73
395.377	338.33
395.838	340.83
396.3	347.73
396.762	352.18
397.224	349.53
397.685	352.18
398.147	353.13
398.608	357.53
399.07	360.68
399.531	364.93
399.993	374.08
400.454	379.53
400.916	372.43
401.377	384.38
401.839	389.03
402.3	388.98
402.762	407.98
403.223	440.98
403.684	436.28
404.145	414.58
404.607	404.13
405.068	389.18
405.529	397.33
405.99	396.58
406.451	402.43
406.913	396.53
407.374	403.53
407.835	397.03
408.296	404.63
408.757	409.13
409.218	420.73
409.679	434.18
410.14	433.48
410.601	448.03
411.062	446.03
411.522	453.93
411.983	458.58
412.444	467.73
412.905	480.13
413.366	506.83
413.826	528.83
414.287	606.08
414.748	743.88
415.208	763.48
415.669	616.28
416.13	558.73
416.59	552.83
417.051	580.38
417.511	612.28
417.972	658.08
418.432	716.78
418.893	802.13
419.353	766.83
419.814	577.18
420.274	506.43
420.734	489.88
421.195	506.33
421.655	504.93
422.115	512.18
422.576	512.53
423.036	513.63
423.496	531.63
423.956	549.58
424.416	590.23
424.876	666.28
425.336	665.83
425.797	639.93
426.257	630.58
426.717	574.73
427.177	513.93
427.637	509.73
428.097	524.93
428.556	541.43
429.016	577.48
429.476	573.48
429.936	534.68
430.396	522.38
430.856	529.28
431.315	542.23
431.775	583.98
432.235	637.28
432.694	651.08
433.154	597.68
433.614	579.23
434.073	573.53
434.533	524.13
434.993	515.73
435.452	524.93
435.912	517.73
436.371	524.68
436.83	525.18
437.29	523.98
437.749	517.53
438.209	525.03
438.668	532.68
439.127	549.28
439.587	544.83
440.046	537.78
440.505	554.33
440.964	557.58
441.424	575.73
441.883	581.83
442.342	561.88
442.801	540.58
443.26	556.78
443.719	551.13
444.178	541.93
444.637	554.13
445.096	557.08
445.555	569.08
446.014	565.28
446.473	566.13
446.932	556.98
447.391	569.43
447.849	573.03
448.308	579.33
448.767	573.98
449.226	586.78
449.685	600.48
450.143	630.93
450.602	624.53
451.061	587.18
451.519	589.13
451.978	577.63
452.436	579.83
452.895	579.03
453.353	578.98
453.812	574.63
454.27	570.03
454.729	577.63
455.187	586.98
455.646	582.18
456.104	585.93
456.562	592.58
457.021	600.23
457.479	583.03
457.937	591.43
458.395	618.98
458.854	608.03
459.312	595.68
459.77	598.53
460.228	605.13
460.686	619.13
461.144	619.38
461.602	616.33
462.06	614.93
462.518	623.23
462.976	622.48
463.434	639.58
463.892	637.63
464.35	644.98
464.808	656.18
465.266	668.43
465.724	673.03
466.181	671.23
466.639	667.78
467.097	690.73
467.555	717.43
468.012	711.18
468.47	719.73
468.928	737.88
469.385	758.38
469.843	757.23
470.3	757.03
470.758	773.68
471.215	788.53
471.673	795.28
472.13	811.13
472.588	827.08
473.045	831.53
473.503	833.88
473.96	874.58
474.417	878.98
474.875	900.73
475.332	926.93
475.789	922.83
476.246	937.88
476.704	965.88
477.161	968.08
477.618	970.38
478.075	985.73
478.532	1026.08
478.989	1045.53
479.446	1095.98
479.903	1082.88
480.36	1114.23
480.817	1104.88
481.274	1115.28
481.731	1146.98
482.188	1168.28
482.645	1189.93
483.102	1207.18
483.558	1244.88
484.015	1264.18
484.472	1263.83
484.929	1268.78
485.385	1270.38
485.842	1279.53
486.299	1292.18
486.755	1281.83
487.212	1253.33
487.668	1228.08
488.125	1220.23
488.582	1213.48
489.038	1219.18
489.494	1226.78
489.951	1219.38
490.407	1228.63
490.864	1234.33
491.32	1228.43
491.776	1240.98
492.233	1252.28
492.689	1255.73
493.145	1243.18
493.602	1232.48
494.058	1264.23
494.514	1258.23
494.97	1261.58
495.426	1285.38
495.882	1284.38
496.338	1293.98
496.794	1305.83
497.251	1295.83
497.707	1318.38
498.163	1326.88
498.618	1322.43
499.074	1321.88
499.53	1346.58
499.986	1355.13
500.442	1347.78
500.898	1329.48
501.354	1346.68
501.809	1349.03
502.265	1347.53
502.721	1359.83
503.177	1362.28
503.632	1370.73
504.088	1385.78
504.543	1394.98
504.999	1402.93
505.455	1400.53
505.91	1388.48
506.366	1385.53
506.821	1398.78
507.277	1391.73
507.732	1389.58
508.187	1397.58
508.643	1410.33
509.098	1402.08
509.553	1423.78
510.009	1440.38
510.464	1459.93
510.919	1475.58
511.375	1486.53
511.83	1501.88
512.285	1536.43
512.74	1570.23
513.195	1589.83
513.65	1623.03
514.105	1639.73
514.56	1646.48
515.015	1677.23
515.47	1678.08
515.925	1669.78
516.38	1665.13
516.835	1670.63
517.29	1664.93
517.745	1664.78
518.2	1624.08
518.655	1599.48
519.109	1570.68
519.564	1545.13
520.019	1531.08
520.474	1525.03
520.928	1516.83
521.383	1513.38
521.838	1503.73
522.292	1495.18
522.747	1480.38
523.201	1469.58
523.656	1449.18
524.11	1451.38
524.565	1442.73
525.019	1445.98
525.474	1455.13
525.928	1430.73
526.382	1428.13
526.837	1435.83
527.291	1437.18
527.745	1430.38
528.2	1423.88
528.654	1407.03
529.108	1409.63
529.562	1417.18
530.016	1406.33
530.47	1417.33
530.925	1404.43
531.379	1403.68
531.833	1413.48
532.287	1411.18
532.741	1412.63
533.195	1410.58
533.649	1412.73
534.103	1410.08
534.556	1392.53
535.01	1419.58
535.464	1402.08
535.918	1405.88
536.372	1416.73
536.826	1408.98
537.279	1398.48
537.733	1405.93
538.187	1397.23
538.64	1401.23
539.094	1417.98
539.548	1430.83
540.001	1432.38
540.455	1444.58
540.908	1454.18
541.362	1469.63
541.815	1472.13
542.269	1511.03
542.722	1503.08
543.175	1520.23
543.629	1532.98
544.082	1550.23
544.536	1561.13
544.989	1570.78
545.442	1585.83
545.895	1583.63
546.349	1570.78
546.802	1591.18
547.255	1579.98
547.708	1594.88
548.161	1606.93
548.614	1605.23
549.067	1609.58
549.52	1604.38
549.973	1592.48
550.426	1579.43
550.879	1560.08
551.332	1564.73
551.785	1581.53
552.238	1595.13
552.691	1594.73
553.144	1616.73
553.596	1650.48
554.049	1672.38
554.502	1708.53
554.955	1733.13
555.407	1760.38
555.86	1739.83
556.313	1705.63
556.765	1692.03
557.218	1675.33
557.67	1664.63
558.123	1640.63
558.576	1640.48
559.028	1648.38
559.48	1669.68
559.933	1663.28
560.385	1601.18
560.838	1540.33
561.29	1490.43
561.742	1481.38
562.195	1448.48
562.647	1436.68
563.099	1429.08
563.551	1428.98
564.004	1440.08
564.456	1431.93
564.908	1389.73
565.36	1360.43
565.812	1331.13
566.264	1310.68
566.716	1311.13
567.168	1284.63
567.62	1288.53
568.072	1270.03
568.524	1257.33
568.976	1253.88
569.428	1252.08
569.88	1241.33
570.332	1258.73
570.784	1255.23
571.235	1240.68
571.687	1252.33
572.139	1257.98
572.59	1279.73
573.042	1284.53
573.494	1280.28
573.945	1252.73
574.397	1225.48
574.849	1222.78
575.3	1229.83
575.752	1205.08
576.203	1204.63
576.655	1208.03
577.106	1184.28
577.557	1172.88
578.009	1164.78
578.46	1172.83
578.912	1168.63
579.363	1169.98
579.814	1165.28
580.265	1161.98
580.717	1175.53
581.168	1171.28
581.619	1173.38
582.07	1184.18
582.521	1177.98
582.972	1173.33
583.423	1172.68
583.875	1182.23
584.326	1194.68
584.777	1210.53
585.227	1237.28
585.678	1242.68
586.129	1262.88
586.58	1273.33
587.031	1295.73
587.482	1339.33
587.933	1354.58
588.384	1356.08
588.834	1346.83
589.285	1336.83
589.736	1345.73
590.186	1343.58
590.637	1327.78
591.088	1280.18
591.538	1250.88
591.989	1245.98
592.439	1224.38
592.89	1217.88
593.34	1204.63
593.791	1201.38
594.241	1186.78
594.692	1183.23
595.142	1180.98
595.593	1181.98
596.043	1187.93
596.493	1204.98
596.943	1201.03
597.394	1237.08
597.844	1243.33
598.294	1278.53
598.744	1324.28
599.195	1397.08
599.645	1475.68
600.095	1573.63
600.545	1648.13
600.995	1720.03
601.445	1786.48
601.895	1895.53
602.345	1958.23
602.795	1929.33
603.245	1840.18
603.695	1720.38
604.145	1609.13
604.594	1533.88
605.044	1445.53
605.494	1341.63
605.944	1268.23
606.393	1234.03
606.843	1213.78
607.293	1223.08
607.743	1197.68
608.192	1219.43
608.642	1223.23
609.091	1228.18
609.541	1224.13
609.99	1222.73
610.44	1189.23
610.889	1174.58
611.339	1167.48
611.788	1132.48
612.238	1142.53
612.687	1146.03
613.136	1154.83
613.586	1167.78
614.035	1166.28
614.484	1176.38
614.933	1174.13
615.383	1150.78
615.832	1128.73
616.281	1113.28
616.73	1087.78
617.179	1064.93
617.628	1037.48
618.077	1026.48
618.526	1006.18
618.975	996.08
619.424	982.73
619.873	986.53
620.322	973.53
620.771	972.58
621.22	960.43
621.669	932.98
622.118	923.58
622.567	914.73
623.015	897.28
623.464	894.48
623.913	884.53
624.361	890.33
624.81	883.38
625.259	882.08
625.707	874.58
626.156	883.73
626.604	899.83
627.053	899.83
627.501	901.03
627.95	908.13
628.398	930.38
628.847	909.28
629.295	910.23
629.744	899.93
630.192	877.73
630.64	862.93
631.089	844.78
631.537	813.48
631.985	806.38
632.433	811.13
632.881	792.88
633.33	801.78
633.778	801.08
634.226	813.48
634.674	819.38
635.122	819.48
635.57	840.88
636.018	852.48
636.466	846.73
636.914	846.73
637.362	852.63
637.81	875.83
638.258	900.73
638.705	908.53
639.153	936.78
639.601	937.93
640.049	960.53
640.497	986.83
640.944	1018.83
641.392	961.43
641.84	887.13
642.287	838.23
642.735	800.43
643.182	786.13
643.63	781.13
644.078	772.03
644.525	774.28
644.973	785.03
645.42	782.98
645.867	783.08
646.315	780.03
646.762	788.63
647.21	786.58
647.657	785.63
648.104	779.03
648.551	754.63
648.999	748.28
649.446	734.03
649.893	738.98
650.34	745.48
650.787	762.48
651.234	797.83
651.682	867.48
652.129	942.08
652.576	1076.03
653.023	1241.98
653.47	1338.48
653.917	1392.98
654.363	1437.78
654.81	1504.43
655.257	1546.08
655.704	1223.23
656.151	950.28
656.598	839.93
657.044	769.43
657.491	750.13
657.938	727.58
658.385	717.13
658.831	716.13
659.278	711.58
659.724	708.58
660.171	692.13
660.618	676.58
661.064	652.08
661.511	671.13
661.957	675.58
662.404	673.78
662.85	686.33
663.296	688.43
663.743	686.63
664.189	688.58
664.635	693.23
665.082	687.68
665.528	684.28
665.974	678.93
666.42	672.38
666.867	666.53
667.313	628.88
667.759	628.18
668.205	622.38
668.651	633.83
669.097	625.78
669.543	639.48
669.989	646.48
670.435	645.43
670.881	651.13
671.327	689.38
671.773	737.13
672.219	807.08
672.665	867.28
673.11	903.98
673.556	929.98
674.002	968.98
674.448	984.28
674.893	822.28
675.339	706.08
675.785	646.03
676.23	611.68
676.676	585.58
677.122	577.88
677.567	553.58
678.013	537.33
678.458	535.08
678.904	535.13
679.349	528.28
679.794	524.33
680.24	521.03
680.685	513.63
681.131	518.93
681.576	520.63
682.021	526.48
682.466	536.63
682.912	543.53
683.357	569.98
683.802	612.73
684.247	678.38
684.692	737.18
685.137	780.73
685.583	795.78
686.028	854.18
686.473	798.53
686.918	675.18
687.363	607.48
687.807	578.53
688.252	550.68
688.697	525.88
689.142	507.73
689.587	515.38
690.032	528.13
690.477	543.38
690.921	570.98
691.366	610.83
691.811	637.88
692.255	689.63
692.7	852.03
693.145	1213.63
693.589	1888.38
694.034	2274.43
694.478	2487.43
694.923	2321.83
695.367	3395.63
695.812	2013.13
696.256	809.53
696.701	572.53
697.145	530.08
697.59	502.03
698.034	501.93
698.478	498.28
698.922	496.78
699.367	507.48
699.811	530.33
700.255	586.33
700.699	643.03
701.143	706.93
701.588	754.73
702.032	799.53
702.476	818.18
702.92	855.23
703.364	1108.88
703.808	1722.38
704.252	2197.53
704.696	2368.63
705.14	2284.28
705.584	3222.73
706.027	1745.83
706.471	834.08
706.915	608.23
707.359	537.93
707.803	504.38
708.246	477.78
708.69	478.98
709.134	474.08
709.577	477.98
710.021	478.73
710.465	477.13
710.908	474.78
711.352	490.88
711.795	541.43
712.239	582.03
712.682	602.28
713.126	602.08
713.569	676.03
714.012	541.88
714.456	462.38
714.899	440.43
715.342	423.83
715.786	401.88
716.229	392.68
716.672	385.33
717.115	384.78
717.558	385.98
718.002	399.08
718.445	415.73
718.888	449.08
719.331	457.73
719.774	459.68
720.217	453.18
720.66	427.08
721.103	401.13
721.546	375.33
721.989	368.78
722.432	357.98
722.874	360.63
723.317	368.18
723.76	399.68
724.203	493.48
724.645	667.78
725.088	813.23
725.531	810.18
725.974	903.28
726.416	805.43
726.859	476.03
727.301	380.73
727.744	356.68
728.187	360.28
728.629	373.03
729.071	390.93
729.514	406.33
729.956	433.83
730.399	436.83
730.841	436.98
731.283	424.88
731.726	413.03
732.168	420.08
732.61	439.23
733.053	475.43
733.495	533.33
733.937	598.33
734.379	704.88
734.821	900.93
735.263	1425.43
735.705	2570.48
736.148	3861.33
736.59	3995.48
737.032	4463.18
737.474	3647.73
737.916	1357.38
738.357	687.53
738.799	517.33
739.241	476.88
739.683	474.53
740.125	486.83
740.567	495.98
741.008	532.18
741.45	551.48
741.892	576.68
742.334	582.08
742.775	584.38
743.217	557.03
743.658	465.68
744.1	464.58
744.542	526.98
744.983	561.93
745.425	587.18
745.866	586.08
746.307	483.63
746.749	521.08
747.19	756.98
747.632	1490.98
748.073	2828.98
748.514	4000.58
748.956	5450.48
749.397	6452.08
749.838	4405.18
750.279	4333.98
750.72	2172.28
751.162	885.53
751.603	492.58
752.044	395.48
752.485	349.88
752.926	326.83
753.367	310.83
753.808	300.43
754.249	295.23
754.69	294.58
755.131	284.58
755.572	286.33
756.013	283.33
756.453	276.83
756.894	293.73
757.335	292.03
757.776	300.53
758.216	306.83
758.657	331.88
759.098	371.28
759.538	441.43
759.979	640.23
760.42	1291.98
760.86	3322.48
761.301	7145.93
761.741	8751.23
762.182	10516.23
762.622	6654.23
763.063	2293.48
763.503	907.63
763.943	525.88
764.384	413.13
764.824	357.63
765.264	319.58
765.705	307.83
766.145	286.93
766.585	281.28
767.025	269.83
767.465	271.73
767.906	275.38
768.346	293.88
768.786	341.18
769.226	502.93
769.666	1021.53
770.106	2337.13
770.546	3479.48
770.986	4098.68
771.426	3093.43
771.866	1237.08
772.306	536.43
772.745	324.63
773.185	267.88
773.625	265.73
774.065	272.43
774.505	377.08
774.944	660.68
775.384	960.28
775.824	1123.78
776.263	942.08
776.703	490.98
777.142	283.23
777.582	212.28
778.021	203.43
778.461	189.68
778.9	188.93
779.34	184.98
779.779	185.43
780.219	174.08
780.658	172.23
781.097	170.78
781.537	163.63
781.976	163.73
782.415	170.63
782.855	165.33
783.294	164.38
783.733	157.13
784.172	164.13
784.611	161.53
785.05	172.53
785.489	175.93
785.928	175.88
786.367	188.48
786.806	195.98
787.245	212.13
787.684	220.38
788.123	218.43
788.562	205.58
789.001	196.13
789.44	195.38
789.879	189.23
790.317	193.58
790.756	210.13
791.195	233.18
791.634	324.93
792.072	587.98
792.511	1471.48
792.95	2816.63
793.388	3575.53
793.827	2318.88
794.265	1019.33
794.704	475.43
795.142	288.18
795.581	236.13
796.019	204.88
796.458	205.73
796.896	216.43
797.334	245.83
797.773	342.23
798.211	660.58
798.649	1408.53
799.087	2399.33
799.526	3425.93
799.964	3612.73
800.402	2527.23
800.84	1101.83
801.278	516.23
801.716	310.93
802.154	249.98
802.592	232.43
803.03	236.48
803.468	237.08
803.906	241.83
804.344	236.38
804.782	223.23
805.22	231.13
805.658	237.33
806.096	252.83
806.533	288.23
806.971	364.68
807.409	536.58
807.847	1064.73
808.284	2771.88
808.722	5057.13
809.16	7103.98
809.597	9474.78
810.035	12260.88
810.472	8033.78
810.91	3283.93
811.347	1451.63
811.785	677.38
812.222	424.83
812.66	319.38
813.097	273.28
813.535	239.53
813.972	207.43
814.409	197.18
814.846	185.98
815.284	175.13
815.721	181.08
816.158	190.18
816.595	255.18
817.032	326.83
817.47	306.08
817.907	210.83
818.344	185.18
818.781	186.03
819.218	221.23
819.655	338.18
820.092	446.28
820.529	406.48
820.966	314.83
821.403	222.33
821.839	186.03
822.276	205.93
822.713	250.03
823.15	235.98
823.587	249.93
824.023	449.13
824.46	1158.33
824.897	2112.98
825.333	1677.58
825.77	744.43
826.206	376.93
826.643	211.58
827.08	160.98
827.516	141.68
827.953	127.93
828.389	118.28
828.825	116.68
829.262	113.68
829.698	101.53
830.135	102.28
830.571	101.93
831.007	101.33
831.443	101.03
831.88	102.58
832.316	111.03
832.752	105.53
833.188	106.93
833.624	109.48
834.06	109.53
834.497	109.03
834.933	117.03
835.369	123.98
835.805	130.88
836.241	136.08
836.677	151.03
837.112	178.83
837.548	222.98
837.984	334.78
838.42	708.68
838.856	2014.48
839.292	4180.43
839.727	3155.98
840.163	2018.23
840.599	3039.43
841.034	4910.83
841.47	2467.28
841.906	1145.18
842.341	600.03
842.777	418.78
843.212	429.73
843.648	268.88
844.083	180.98
844.519	138.08
844.954	119.23
845.39	102.58
845.825	96.78
846.261	98.98
846.696	94.83
847.131	87.63
847.566	93.38
848.002	92.18
848.437	104.93
848.872	104.08
849.307	133.68
849.742	243.98
850.177	669.48
850.613	1483.18
851.048	1087.03
851.483	476.98
851.918	254.33
852.353	136.03
852.788	93.13
853.223	88.88
853.657	78.83
854.092	77.18
854.527	79.13
854.962	78.58
855.397	87.83
855.832	76.08
856.266	65.98
856.701	69.08
857.136	67.08
857.57	81.18
858.005	101.93
858.44	87.78
858.874	82.13
859.309	85.33
859.743	86.88
860.178	84.28
860.612	91.23
861.047	119.58
861.481	163.43
861.915	110.93
862.35	83.28
862.784	66.08
863.218	62.58
863.653	69.58
864.087	85.48
864.521	107.38
864.955	184.33
865.39	343.83
865.824	247.38
866.258	293.53
866.692	456.38
867.126	331.33
867.56	175.18
867.994	109.53
868.428	96.18
868.862	118.83
869.296	108.78
869.73	130.53
870.164	112.38
870.598	104.53
871.031	72.38
871.465	64.68
871.899	53.48
872.333	45.73
872.766	46.23
873.2	47.38
873.634	50.48
874.067	57.63
874.501	49.53
874.935	50.18
875.368	53.43
875.802	45.78
876.235	37.13
876.669	41.18
877.102	40.93
877.535	37.48
877.969	39.08
878.402	39.23
878.836	36.73
879.269	36.33
879.702	34.98
880.135	38.53
880.569	42.88
881.002	31.93
881.435	36.08
881.868	38.48
882.301	37.63
882.734	33.98
883.167	39.58
883.601	35.88
884.034	34.43
884.467	33.13
884.899	31.78
885.332	28.68
885.765	30.73
886.198	30.53
886.631	31.78
887.064	29.48
887.497	27.53
887.929	33.48
888.362	27.18
888.795	27.58
889.228	29.43
889.66	34.98
890.093	28.23
890.526	30.83
890.958	26.23
891.391	31.33
891.823	28.98
892.256	28.83
892.688	31.43
893.121	28.93
893.553	30.23
893.985	29.48
894.418	24.63
894.85	30.48
895.282	30.13
895.715	28.43
896.147	24.73
896.579	24.63
897.011	27.73
897.444	27.93
897.876	19.53
898.308	18.73
898.74	28.73
899.172	27.38
899.604	29.78
900.036	26.48
900.468	20.68
900.9	30.98
901.332	34.63
901.764	39.18
902.196	32.68
902.628	33.13
903.06	51.78
903.491	56.73
903.923	47.83
904.355	44.88
904.787	46.43
905.218	36.83
905.65	39.93
906.082	33.38
906.513	27.63
906.945	32.98
907.376	32.58
907.808	32.18
908.239	35.03
908.671	40.83
909.102	49.23
909.534	66.28
909.965	125.68
910.397	333.68
910.828	1010.73
911.259	621.43
911.691	321.43
912.122	182.08
912.553	86.78
912.984	46.38
913.415	43.93
913.847	35.93
914.278	38.13
914.709	31.08
915.14	26.63
915.571	34.68
916.002	29.23
916.433	26.03
916.864	25.58
917.295	31.03
917.726	33.03
918.157	43.88
918.587	43.18
919.018	37.83
919.449	35.43
919.88	41.08
920.311	68.03
920.741	203.48
921.172	373.48
921.603	182.13
922.033	108.63
922.464	69.58
922.895	46.63
923.325	26.68
923.756	21.43
924.186	31.33
924.617	45.93
925.047	70.38
925.478	61.43
925.908	45.98
926.338	33.53
926.769	26.08
927.199	28.08
927.629	22.48
928.06	29.63
928.49	27.78
928.92	21.48
929.35	20.28
929.78	17.98
930.21	18.98
930.641	13.48
931.071	17.03
931.501	13.98
931.931	13.03
932.361	12.48
932.791	21.43
933.221	16.13
933.651	26.63
934.08	46.28
934.51	25.13
934.94	25.48
935.37	15.33
935.8	10.03
936.229	12.93
936.659	14.73
937.089	21.88
937.519	35.18
937.948	52.63
938.378	33.53
938.807	19.33
939.237	10.48
939.666	9.08
940.096	6.43
940.525	5.43
940.955	11.73
941.384	6.08
941.814	7.68
942.243	6.98
942.672	3.23
943.102	-0.57
943.531	3.88
943.96	1.88
944.39	6.83
944.819	6.03
945.248	8.48
945.677	3.08
946.106	7.43
946.535	10.78
946.964	2.83
947.393	3.78
947.822	0.68
948.251	9.73
948.68	3.33
949.109	2.33
949.538	6.68
949.967	5.18
950.396	3.48
950.825	3.53
951.254	5.43
951.682	-1.12
952.111	2.53
952.54	1.43
952.969	1.68
953.397	-1.42
953.826	-1.37
954.254	3.23
954.683	6.18
955.112	7.33
955.54	2.78
955.969	3.23
956.397	5.53
956.826	2.83
957.254	2.43
957.682	2.13
958.111	8.03
958.539	5.93
958.967	5.48
959.396	5.43
959.824	6.28
960.252	1.73
960.68	0.13
961.109	5.63
961.537	6.53
961.965	4.28
962.393	3.03
962.821	4.43
963.249	7.68
963.677	9.03
964.105	61.78
964.533	109.68
964.961	50.53
965.389	27.28
965.817	16.13
966.245	3.28
966.672	2.23
967.1	5.43
967.528	-0.77
967.956	3.63
968.383	2.88
968.811	2.78
969.239	5.43
969.666	7.38
970.094	2.13
970.522	-0.47
970.949	2.03
971.377	-3.77
971.804	0.68
972.232	4.08
972.659	3.48
973.087	3.13
973.514	0.03
973.941	-0.32
974.369	-1.82
974.796	-0.67
975.223	2.48
975.651	2.83
976.078	5.48
976.505	10.48
976.932	21.58
977.359	35.98
977.786	13.23
978.214	9.33
978.641	-0.72
979.068	6.68
979.495	2.68
979.922	4.28
980.349	3.68
980.776	3.03
981.202	-0.07
981.629	7.08
982.056	3.78
982.483	-5.17
982.91	3.83
983.337	-1.17
983.763	4.48
984.19	4.08
984.617	1.53
985.043	5.38
985.47	0.73
985.897	3.88
986.323	2.88
986.75	1.68
987.176	-0.27
987.603	3.48
988.029	3.98
988.456	6.78
988.882	1.98
989.308	-3.07
989.735	0.83
990.161	1.68
990.587	0.23
991.014	0.63
991.44	3.78
991.866	3.68
992.292	-0.32
992.719	-1.17
993.145	6.93
993.571	3.03
993.997	3.43
994.423	1.88
994.849	-3.07
995.275	2.28
995.701	-0.07
996.127	-2.72
996.553	-0.22
996.979	0.03
997.405	4.13
997.83	-0.32
998.256	4.88
998.682	1.08
999.108	-0.92
999.534	-3.07
999.959	-0.67
1000.385	1.48
1000.811	-3.27
1001.236	-4.82
1001.662	-0.37
1002.087	6.18
1002.513	4.38
1002.938	-2.72
1003.364	2.03
1003.789	1.58
1004.215	-4.17
1004.64	-1.57
1005.066	1.88
1005.491	0.68
1005.916	1.58
1006.342	4.98
1006.767	1.13
1007.192	3.03
1007.617	0.58
1008.042	0.13
1008.468	1.13
1008.893	7.73
1009.318	4.28
1009.743	9.58
1010.168	16.93
1010.593	13.38
1011.018	8.93
1011.443	4.63
1011.868	6.33
1012.293	4.38
1012.718	0.78
1013.143	1.13
1013.567	6.83
1013.992	-0.77
1014.417	1.38
1014.842	-0.62
1015.267	-1.27
1015.691	3.53
1016.116	1.48
1016.541	3.03
1016.965	0.28
1017.39	1.48
1017.814	-2.72
1018.239	-1.87
1018.663	-9.92
1019.088	-6.27
1019.512	1.23
1019.937	-6.82
1020.361	1.73
1020.785	-1.62
1021.21	-3.67
1021.634	-0.12
1022.058	0.13
1022.483	-3.22
1022.907	-5.97
1023.331	-4.07
1023.755	-0.42
1024.179	1.53
1024.604	-1.82
1025.028	-1.07
1025.452	3.48
1025.876	1.43
1026.3	-1.27
1026.724	-5.22
1027.148	1.13
1027.572	-2.52
1027.996	1.93
1028.42	2.23
1028.843	-4.27
1029.267	-2.57
1029.691	5.38
1030.115	-0.77
1030.539	-1.17
1030.962	1.03
1031.386	0.88
1031.81	1.73
1032.233	-1.47
1032.657	-8.07
1033.08	2.88
1033.504	-7.62
1033.927	-2.12
1034.351	-2.57
1034.774	-1.42
1035.198	-4.82
1035.621	2.93
1036.045	0.73
1036.468	3.43
1036.891	3.68
1037.315	2.18
1037.738	3.03
1038.161	-2.17
1038.584	-0.32
1039.008	-4.57
1039.431	-2.47
1039.854	-4.47
1040.277	0.88
1040.7	-3.37
1041.123	4.23
1041.546	-0.47
1041.969	2.73
1042.392	2.28
1042.815	-9.92
1043.238	-3.62
1043.661	-1.97
1044.084	-2.27
1044.507	-3.72
1044.93	-1.37
1045.352	0.23
1045.775	3.48
1046.198	4.48
1046.621	2.13
1047.043	-0.62
1047.466	2.63
1047.889	-0.17
1048.311	3.58
1048.734	-4.77
1049.156	-2.72
1049.579	-0.47
1050.001	-2.32
1050.424	-2.12
1050.846	-3.87
1051.269	-3.47
1051.691	-2.57
1052.113	3.83
1052.536	-5.57
1052.958	-5.37
1053.38	-3.72
1053.802	4.78
1054.225	-0.32
1054.647	1.13
1055.069	-3.82
1055.491	2.88
1055.913	2.38
1056.335	-9.67
1056.757	-3.22
1057.179	-3.87
1057.601	-1.17
1058.023	-1.32
1058.445	-2.67
1058.867	1.33
1059.289	-3.07
1059.711	-0.22
1060.133	-0.12
1060.555	0.08
1060.976	2.98
1061.398	-3.52
1061.82	-2.22
1062.241	-3.62
1062.663	-1.42
1063.085	-4.07
1063.506	-5.07
1063.928	-4.57
1064.35	-1.77
1064.771	-4.32
1065.193	-5.82
1065.614	-3.17
1066.035	1.88
1066.457	-1.17
1066.878	-1.67
1067.3	-7.37
1067.721	-0.47
1068.142	0.33
1068.564	0.18
1068.985	-2.87
1069.406	-8.32
1069.827	0.43
1070.248	-3.22
1070.67	-4.32
1071.091	-5.97
1071.512	-1.62
1071.933	-2.52
1072.354	-7.32
1072.775	-5.62
1073.196	-0.87
1073.617	-4.77
1074.038	-4.77
1074.459	-6.72
1074.88	-1.57
1075.3	-1.02
1075.721	-0.82
1076.142	-6.72
1076.563	-8.67
1076.983	2.48
1077.404	-5.32
1077.825	0.98
1078.246	-4.72
1078.666	-4.72
1079.087	-2.47
1079.507	-2.22
1079.928	-1.17
1080.348	-4.07
1080.769	-2.37
1081.189	-2.67
1081.61	-7.87
1082.03	2.73
1082.451	-0.77
1082.871	-5.57
1083.291	-3.17
1083.711	-2.57
1084.132	-5.67
1084.552	-7.22
1084.972	-9.02
1085.392	-4.07
1085.813	-0.07
1086.233	-4.62
1086.653	0.88
1087.073	-1.77
1087.493	-2.42
1087.913	-7.77
1088.333	-3.22
1088.753	-3.02
1089.173	2.88
1089.593	-2.97
1090.013	-1.42
1090.433	-3.72
1090.852	0.23
1091.272	-3.42
1091.692	-3.17
1092.112	-3.72
1092.531	-4.22
1092.951	-4.22
1093.371	-3.77
1093.79	-2.82
1094.21	-7.02
1094.63	0.63
1095.049	-2.27
1095.469	-10.42
1095.888	-2.32
1096.308	-3.12
1096.727	-4.72
1097.146	-4.72
1097.566	-3.92
1097.985	-0.62
1098.405	1.53
1098.824	-3.07
1099.243	-3.67
1099.662	-1.27
1100.082	-3.02
1100.501	-2.87
1100.92	3.63
1101.339	-2.12
1101.758	1.53
