Data from MSPlasma+Separation6_Subt14_10-13-10-530.txt Node
Date: Fri Jul 21 10:13:10 EDT 2017
User: Ender
Spectrometer: HR+D1039
Trigger mode: 0
Integration Time (sec): 6.430000E-3
Scans to average: 20
Electric dark correction enabled: true
Nonlinearity correction enabled: false
Boxcar width: 0
XAxis mode: Wavelengths
Number of Pixels in Spectrum: 2048
>>>>>Begin Spectral Data<<<<<
187.836	1.35
188.309	1.35
188.782	1.35
189.255	-2.1
189.728	3.35
190.201	-1.85
190.674	-0
191.147	-2.15
191.619	-2.7
192.092	-3.4
192.565	-1.5
193.038	3.4
193.511	2.3
193.984	0.7
194.456	-1.4
194.929	1.55
195.402	1.65
195.874	0.85
196.347	3.3
196.82	1.55
197.292	-0.8
197.765	-3.5
198.237	-0.9
198.71	-4.95
199.182	0.1
199.655	2.45
200.127	3.55
200.6	7.45
201.072	-3.25
201.544	-1.7
202.017	3.1
202.489	1.05
202.961	1.55
203.433	-5.3
203.906	0.65
204.378	5.85
204.85	0.45
205.322	-0.45
205.794	-0.6
206.266	-4.9
206.739	9.45
207.211	-0.2
207.683	-0.4
208.155	5.1
208.627	6.45
209.099	5.4
209.57	1.85
210.042	3.35
210.514	-1.2
210.986	1.8
211.458	1.65
211.93	2
212.402	4.2
212.873	-0.85
213.345	1.35
213.817	2.8
214.288	0.6
214.76	3.3
215.232	1.6
215.703	2.6
216.175	4
216.646	2.9
217.118	4.1
217.589	-0.55
218.061	4.05
218.532	3.3
219.004	8.75
219.475	6.3
219.946	6.8
220.418	9.5
220.889	5
221.36	10.15
221.832	10.8
222.303	9.85
222.774	9.45
223.245	8.75
223.717	7.5
224.188	10.5
224.659	2.9
225.13	3.65
225.601	8.65
226.072	6.2
226.543	9.75
227.014	6.15
227.485	7.7
227.956	10.95
228.427	16.05
228.898	11.95
229.369	12.95
229.839	10.15
230.31	17.95
230.781	9.3
231.252	18.9
231.722	14.45
232.193	14.4
232.664	12.95
233.135	10.85
233.605	11.6
234.076	19.35
234.546	15
235.017	10.75
235.487	16
235.958	19.25
236.428	15.85
236.899	10.9
237.369	19.45
237.84	24.45
238.31	27.1
238.78	26.4
239.251	17.85
239.721	15.6
240.191	17.4
240.662	18.95
241.132	18.8
241.602	22.8
242.072	23
242.542	17.95
243.013	20.7
243.483	25.3
243.953	19.7
244.423	25.25
244.893	22.9
245.363	30.35
245.833	25.45
246.303	26.15
246.773	31.75
247.243	27.3
247.712	36.25
248.182	31.6
248.652	41.4
249.122	26.3
249.592	32.45
250.061	28.85
250.531	27.4
251.001	31.2
251.471	32.75
251.94	30.9
252.41	31.3
252.879	31.6
253.349	37.35
253.818	35.95
254.288	48.3
254.757	40.85
255.227	41.35
255.696	44.1
256.166	43.85
256.635	42.4
257.105	39.45
257.574	35
258.043	39.65
258.513	38.25
258.982	39.25
259.451	49.1
259.92	37.35
260.389	45.65
260.859	39.05
261.328	45.45
261.797	37.15
262.266	43.05
262.735	42.05
263.204	37
263.673	40.9
264.142	39.7
264.611	51.05
265.08	48.35
265.549	48.85
266.018	51.5
266.487	47.65
266.955	44.3
267.424	48.45
267.893	44.7
268.362	54.5
268.83	55.1
269.299	54.8
269.768	56.2
270.236	49.2
270.705	60.65
271.174	58.55
271.642	50.35
272.111	47.7
272.579	48.85
273.048	55.8
273.516	54.05
273.985	54.1
274.453	50.35
274.922	53.05
275.39	60.65
275.858	61
276.327	60.95
276.795	57.4
277.263	60.3
277.731	53.1
278.2	60.6
278.668	58.8
279.136	66.75
279.604	62.35
280.072	57.45
280.54	62.05
281.008	64.2
281.477	66.15
281.945	60.35
282.413	65.65
282.881	62.9
283.348	66.15
283.816	67.5
284.284	69
284.752	65.85
285.22	68.85
285.688	69.1
286.156	66
286.623	71.95
287.091	63.4
287.559	72.1
288.026	74.15
288.494	76.75
288.962	75.15
289.429	73.75
289.897	74.45
290.364	69.65
290.832	75
291.3	73.35
291.767	79.25
292.234	80.55
292.702	80.8
293.169	83.6
293.637	77.2
294.104	84.4
294.571	80.4
295.039	85.3
295.506	76.1
295.973	83.05
296.44	78.6
296.908	88.85
297.375	81.95
297.842	86.5
298.309	89.35
298.776	82.6
299.243	90.45
299.71	91.35
300.177	87.75
300.644	89.95
301.111	97.95
301.578	94.25
302.045	91.95
302.512	93.4
302.979	95.95
303.446	97.55
303.913	101.6
304.379	105.7
304.846	101.75
305.313	105.45
305.78	108.25
306.246	106.5
306.713	111.55
307.18	105.25
307.646	109.7
308.113	107.95
308.579	115.2
309.046	110.15
309.512	117.85
309.979	118.9
310.445	106.15
310.912	121.25
311.378	119.3
311.845	119.25
312.311	116.9
312.777	119.7
313.244	125.25
313.71	130.6
314.176	136.95
314.642	125.25
315.109	127.85
315.575	120.75
316.041	125.15
316.507	130.75
316.973	137.95
317.439	137
317.905	138.65
318.371	135.1
318.837	135.95
319.303	142.4
319.769	133.3
320.235	141.75
320.701	135.75
321.167	139.15
321.633	142.15
322.099	139.3
322.564	148.75
323.03	142.45
323.496	147.35
323.962	149.95
324.427	156.4
324.893	145.7
325.359	154.15
325.824	151.5
326.29	155.6
326.755	152.4
327.221	155.35
327.686	164.6
328.152	161.9
328.617	172.65
329.083	166.45
329.548	174.1
330.014	168.65
330.479	170.9
330.944	173.45
331.41	179.8
331.875	167.5
332.34	164.15
332.805	176.5
333.271	174.3
333.736	178.05
334.201	178
334.666	185.85
335.131	185.7
335.596	181.45
336.061	182.4
336.526	181.75
336.991	181.75
337.456	173.8
337.921	174.2
338.386	171.55
338.851	171.65
339.316	179.75
339.781	183.6
340.246	184.75
340.711	180.55
341.175	188.7
341.64	192.95
342.105	195.5
342.569	201.6
343.034	193.45
343.499	199
343.963	208.65
344.428	208.4
344.893	205.75
345.357	212.85
345.822	214.15
346.286	217.45
346.751	218.5
347.215	223.35
347.679	228.9
348.144	241.5
348.608	236.85
349.073	243.5
349.537	246.6
350.001	249.4
350.465	247.55
350.93	252.85
351.394	251.2
351.858	253
352.322	252.3
352.786	251.4
353.25	250.75
353.715	256.9
354.179	278.2
354.643	284.2
355.107	285.9
355.571	276.9
356.035	278.8
356.498	276.55
356.962	273.75
357.426	270.3
357.89	270.7
358.354	268.2
358.818	270.85
359.281	270.35
359.745	272.6
360.209	277.2
360.673	274.3
361.136	277.85
361.6	275.2
362.064	279.95
362.527	282.7
362.991	291.2
363.454	289.8
363.918	287.45
364.381	292.3
364.845	288.4
365.308	287.4
365.772	290.7
366.235	289.85
366.698	286.45
367.162	283.7
367.625	297.45
368.088	304.8
368.552	298.7
369.015	292.6
369.478	304.05
369.941	305.9
370.404	312.3
370.867	298.05
371.331	302.55
371.794	318.05
372.257	315.3
372.72	318.3
373.183	321.15
373.646	319.55
374.109	322.6
374.572	319.65
375.035	323
375.497	326.45
375.96	333.9
376.423	339.65
376.886	346.55
377.349	346.7
377.811	349.1
378.274	347
378.737	348.55
379.199	352.7
379.662	350.7
380.125	362.5
380.587	362
381.05	366.8
381.512	367.75
381.975	382.45
382.437	384.7
382.9	386.95
383.362	382.75
383.825	386.4
384.287	395.45
384.75	384.9
385.212	394.45
385.674	389
386.136	399.85
386.599	396.45
387.061	394.05
387.523	400.8
387.985	399.25
388.447	409.45
388.91	402.25
389.372	412.8
389.834	412.65
390.296	402.6
390.758	404.25
391.22	401.7
391.682	404.9
392.144	410.45
392.606	413.25
393.068	422.9
393.529	449.1
393.991	457.55
394.453	432.9
394.915	418.35
395.377	404.4
395.838	416.8
396.3	409.6
396.762	425.15
397.224	428.9
397.685	423.75
398.147	426.9
398.608	438.6
399.07	436.65
399.531	440.2
399.993	459.55
400.454	452.5
400.916	458.45
401.377	457.6
401.839	467.45
402.3	469.65
402.762	485.1
403.223	522.05
403.684	516.95
404.145	488.6
404.607	479.3
405.068	474.6
405.529	466.45
405.99	483.4
406.451	494.9
406.913	476.1
407.374	476.15
407.835	474.1
408.296	488.3
408.757	492.8
409.218	508.85
409.679	514.8
410.14	518.35
410.601	533.3
411.062	543.7
411.522	546.45
411.983	553.25
412.444	562.9
412.905	579.45
413.366	604.8
413.826	633.6
414.287	720.1
414.748	879.4
415.208	903.5
415.669	746.15
416.13	665.3
416.59	664.5
417.051	686.45
417.511	719.55
417.972	778.4
418.432	841.3
418.893	940.75
419.353	900
419.814	683.2
420.274	604.75
420.734	597.75
421.195	611.35
421.655	611.05
422.115	616.95
422.576	612.7
423.036	612.95
423.496	635.3
423.956	660.45
424.416	707.7
424.876	798.7
425.336	786.05
425.797	768.55
426.257	755.3
426.717	693.05
427.177	628.35
427.637	624.1
428.097	646.65
428.556	656.45
429.016	699.8
429.476	683.35
429.936	648.15
430.396	637.3
430.856	653.65
431.315	661.55
431.775	709.85
432.235	766.05
432.694	779.25
433.154	725.1
433.614	707.45
434.073	694.5
434.533	636.55
434.993	619.6
435.452	639.45
435.912	635.35
436.371	650.6
436.83	647.65
437.29	642.35
437.749	635
438.209	638.4
438.668	646.9
439.127	665.8
439.587	662.7
440.046	653.5
440.505	674.65
440.964	676.95
441.424	708.15
441.883	712.15
442.342	686.9
442.801	660
443.26	671.25
443.719	660.75
444.178	663.6
444.637	677.9
445.096	677.75
445.555	694.15
446.014	692.4
446.473	687.5
446.932	681.45
447.391	692.9
447.849	705.5
448.308	695.45
448.767	703.05
449.226	715.45
449.685	730.9
450.143	758.55
450.602	751.95
451.061	719.7
451.519	719.15
451.978	706.9
452.436	700.6
452.895	720.6
453.353	710.05
453.812	701.4
454.27	699.65
454.729	705.35
455.187	711.95
455.646	717.1
456.104	719.3
456.562	724.25
457.021	732.95
457.479	705.45
457.937	728.05
458.395	742.75
458.854	738.85
459.312	732.2
459.77	732.4
460.228	748.15
460.686	759.7
461.144	765.25
461.602	746.7
462.06	753.7
462.518	763.55
462.976	769.55
463.434	781.75
463.892	789.55
464.35	802.8
464.808	807.65
465.266	825
465.724	831.1
466.181	827.9
466.639	823.4
467.097	864.85
467.555	886
468.012	872.15
468.47	883.1
468.928	917.3
469.385	939.45
469.843	942.05
470.3	938.4
470.758	962.2
471.215	972.8
471.673	985.8
472.13	1007.3
472.588	1022.75
473.045	1015.65
473.503	1026
473.96	1066.85
474.417	1081.7
474.875	1122.1
475.332	1143.5
475.789	1149.75
476.246	1169.55
476.704	1187.8
477.161	1196.5
477.618	1202
478.075	1229.25
478.532	1274.9
478.989	1305.95
479.446	1370.85
479.903	1364.25
480.36	1387.45
480.817	1389.8
481.274	1402.4
481.731	1453.35
482.188	1470.45
482.645	1506.85
483.102	1526.65
483.558	1582.1
484.015	1609.65
484.472	1602.15
484.929	1610.7
485.385	1610.75
485.842	1605
486.299	1623.2
486.755	1618.15
487.212	1581.1
487.668	1537.05
488.125	1528.45
488.582	1507.15
489.038	1533.65
489.494	1541.55
489.951	1549.65
490.407	1545.45
490.864	1545.6
491.32	1547.5
491.776	1556.95
492.233	1575.9
492.689	1564.65
493.145	1542.5
493.602	1537.25
494.058	1573.3
494.514	1577.9
494.97	1589
495.426	1615.3
495.882	1631.2
496.338	1632
496.794	1645.7
497.251	1648.9
497.707	1668.35
498.163	1680
498.618	1688.5
499.074	1680.9
499.53	1698.85
499.986	1710.15
500.442	1708.2
500.898	1672.3
501.354	1696.65
501.809	1699
502.265	1701.55
502.721	1711.75
503.177	1718.6
503.632	1722.6
504.088	1738.8
504.543	1764.35
504.999	1775.4
505.455	1772.75
505.91	1755
506.366	1761.9
506.821	1769
507.277	1749.05
507.732	1755.7
508.187	1749.1
508.643	1772.4
509.098	1771.05
509.553	1798.9
510.009	1821
510.464	1859.45
510.919	1863.5
511.375	1880.65
511.83	1910.3
512.285	1946.85
512.74	1976.45
513.195	2011.4
513.65	2037.8
514.105	2076.3
514.56	2076.1
515.015	2122.4
515.47	2130.4
515.925	2099.15
516.38	2106.95
516.835	2120.35
517.29	2106.95
517.745	2113.05
518.2	2075.9
518.655	2034.5
519.109	2015.1
519.564	1975.3
520.019	1972.7
520.474	1945.85
520.928	1933.5
521.383	1925.1
521.838	1901.5
522.292	1894.25
522.747	1874.85
523.201	1869.25
523.656	1838.4
524.11	1845.9
524.565	1824.7
525.019	1842.9
525.474	1846.15
525.928	1819.6
526.382	1837.45
526.837	1830.55
527.291	1829
527.745	1813.2
528.2	1830.25
528.654	1789.65
529.108	1796.9
529.562	1802.4
530.016	1806.55
530.47	1812.1
530.925	1802.25
531.379	1811.05
531.833	1817.8
532.287	1820.6
532.741	1812.1
533.195	1820.25
533.649	1825.65
534.103	1826.2
534.556	1812.8
535.01	1816.1
535.464	1803.9
535.918	1817.15
536.372	1835
536.826	1809.45
537.279	1800.25
537.733	1797.75
538.187	1819.7
538.64	1812.9
539.094	1823.65
539.548	1851.55
540.001	1843.95
540.455	1857.3
540.908	1863.3
541.362	1880.75
541.815	1891.75
542.269	1923.9
542.722	1933.9
543.175	1945
543.629	1958.7
544.082	1976.3
544.536	1992.35
544.989	1994.65
545.442	2016.15
545.895	2012.6
546.349	2018.1
546.802	2015.95
547.255	2014.95
547.708	2035.5
548.161	2049.8
548.614	2054.25
549.067	2075
549.52	2065.55
549.973	2033.4
550.426	2018.35
550.879	2027.65
551.332	2022.75
551.785	2021.3
552.238	2043.3
552.691	2061
553.144	2086.95
553.596	2118.5
554.049	2152.75
554.502	2202.7
554.955	2246.2
555.407	2264.75
555.86	2242.05
556.313	2209
556.765	2188.25
557.218	2167.2
557.67	2146.65
558.123	2123.3
558.576	2113.4
559.028	2110.85
559.48	2134.7
559.933	2130.15
560.385	2060.65
560.838	1990.15
561.29	1933.55
561.742	1919.1
562.195	1871.75
562.647	1857.45
563.099	1853.6
563.551	1844.15
564.004	1853.7
564.456	1833.7
564.908	1797.75
565.36	1755.15
565.812	1719.6
566.264	1697.5
566.716	1682.45
567.168	1653.15
567.62	1651.1
568.072	1646.1
568.524	1632.75
568.976	1623.35
569.428	1607.25
569.88	1600.85
570.332	1624.95
570.784	1618.9
571.235	1608.3
571.687	1636.95
572.139	1645.7
572.59	1659.6
573.042	1659.15
573.494	1663.75
573.945	1640.1
574.397	1598.55
574.849	1592.7
575.3	1599.5
575.752	1573.85
576.203	1553.9
576.655	1575.45
577.106	1545.9
577.557	1525
578.009	1518.85
578.46	1528.45
578.912	1517.05
579.363	1529.7
579.814	1520.6
580.265	1519.05
580.717	1527.85
581.168	1520.4
581.619	1533.65
582.07	1548.55
582.521	1529.45
582.972	1521.7
583.423	1527.85
583.875	1540.1
584.326	1559.55
584.777	1580.95
585.227	1608.3
585.678	1619.7
586.129	1638.55
586.58	1654.4
587.031	1680.05
587.482	1731.85
587.933	1752.35
588.384	1749.3
588.834	1742.85
589.285	1721.55
589.736	1722.9
590.186	1729.25
590.637	1711.75
591.088	1670.65
591.538	1643.25
591.989	1608.5
592.439	1603.75
592.89	1584.6
593.34	1578.75
593.791	1565.25
594.241	1550.7
594.692	1544.85
595.142	1553.05
595.593	1544.45
596.043	1548.55
596.493	1567.75
596.943	1558.65
597.394	1607.8
597.844	1634.25
598.294	1672.15
598.744	1729.25
599.195	1802.65
599.645	1914.05
600.095	2016.5
600.545	2126.15
600.995	2215.75
601.445	2294.5
601.895	2411
602.345	2504.25
602.795	2469.5
603.245	2362.9
603.695	2212.6
604.145	2095.8
604.594	1981.7
605.044	1885.75
605.494	1749.3
605.944	1657.9
606.393	1618.1
606.843	1584.25
607.293	1592.25
607.743	1576.3
608.192	1587
608.642	1588.85
609.091	1583.1
609.541	1583.6
609.99	1588.55
610.44	1545.1
610.889	1524.3
611.339	1506.45
611.788	1488.2
612.238	1507.6
612.687	1505.85
613.136	1524.5
613.586	1534.55
614.035	1527.45
614.484	1549
614.933	1540.9
615.383	1518.7
615.832	1477.8
616.281	1456.9
616.73	1425.35
617.179	1389.85
617.628	1363.1
618.077	1340.7
618.526	1311.4
618.975	1310.8
619.424	1273.7
619.873	1287.8
620.322	1273.35
620.771	1271.3
621.22	1245.35
621.669	1218.1
622.118	1205.7
622.567	1189.65
623.015	1173.1
623.464	1180.7
623.913	1159.45
624.361	1156.4
624.81	1151.45
625.259	1146.8
625.707	1155.65
626.156	1150.55
626.604	1169.9
627.053	1176.7
627.501	1159.3
627.95	1183.4
628.398	1195.1
628.847	1174.55
629.295	1178.55
629.744	1165.3
630.192	1149.4
630.64	1128.65
631.089	1105.7
631.537	1077.45
631.985	1062.05
632.433	1052.8
632.881	1051.1
633.33	1052.2
633.778	1056.6
634.226	1061.5
634.674	1063.2
635.122	1081.25
635.57	1093.5
636.018	1114.65
636.466	1110
636.914	1097.25
637.362	1116.95
637.81	1140.2
638.258	1166.8
638.705	1174.75
639.153	1221.5
639.601	1237.4
640.049	1248.8
640.497	1294.15
640.944	1326.6
641.392	1256.35
641.84	1174.25
642.287	1109.25
642.735	1067.75
643.182	1041.85
643.63	1036.3
644.078	1033.7
644.525	1033.45
644.973	1048.35
645.42	1053.55
645.867	1061.6
646.315	1055.35
646.762	1070.95
647.21	1067.8
647.657	1084.45
648.104	1060.55
648.551	1016.65
648.999	1011.45
649.446	1003.45
649.893	995.1
650.34	1011.35
650.787	1045.3
651.234	1089.15
651.682	1185.9
652.129	1313.45
652.576	1534.3
653.023	1792.8
653.47	1956.6
653.917	2049
654.363	2100.4
654.81	2199.35
655.257	2252.5
655.704	1757.25
656.151	1335.75
656.598	1146.5
657.044	1047.45
657.491	1013.35
657.938	978.65
658.385	961.35
658.831	948.55
659.278	938.85
659.724	932.95
660.171	925.75
660.618	899.85
661.064	880.2
661.511	892.45
661.957	892.85
662.404	906
662.85	922.3
663.296	927.45
663.743	921.3
664.189	925.95
664.635	922.45
665.082	911.35
665.528	916.75
665.974	880.05
666.42	884.5
666.867	874.3
667.313	834.85
667.759	830.1
668.205	829.1
668.651	835.95
669.097	837.55
669.543	848.25
669.989	852.55
670.435	862.85
670.881	871.4
671.327	917.75
671.773	981.9
672.219	1055.7
672.665	1136.8
673.11	1179.9
673.556	1204.4
674.002	1246.85
674.448	1272.95
674.893	1069.95
675.339	918.2
675.785	851.45
676.23	810.5
676.676	777.9
677.122	751.7
677.567	729.65
678.013	706.75
678.458	704.5
678.904	703.1
679.349	696.6
679.794	697.25
680.24	694.15
680.685	684.85
681.131	694.2
681.576	694
682.021	690.8
682.466	700.8
682.912	713.4
683.357	752.15
683.802	810.45
684.247	886.7
684.692	945.85
685.137	994.45
685.583	1025.8
686.028	1078.45
686.473	1023.4
686.918	877.9
687.363	800.5
687.807	760.55
688.252	718.55
688.697	698.8
689.142	673.3
689.587	679.5
690.032	692.6
690.477	715.65
690.921	755.85
691.366	804.2
691.811	830.15
692.255	889.8
692.7	1097.45
693.145	1568.75
693.589	2409.1
694.034	2924.55
694.478	3170.9
694.923	2945.7
695.367	4251.8
695.812	2534.75
696.256	1040.25
696.701	754.25
697.145	690.85
697.59	671.6
698.034	654.25
698.478	649.8
698.922	649
699.367	670.1
699.811	698.5
700.255	768
700.699	839.85
701.143	914.6
701.588	973.7
702.032	1013.7
702.476	1045.75
702.92	1100
703.364	1433.75
703.808	2215.35
704.252	2791.55
704.696	3010.95
705.14	2890.65
705.584	4033
706.027	2185.3
706.471	1073.65
706.915	788
707.359	703.4
707.803	651.5
708.246	621.25
708.69	627.9
709.134	612.35
709.577	608.85
710.021	625.5
710.465	619.55
710.908	613.2
711.352	641.8
711.795	710
712.239	767.65
712.682	780.05
713.126	779.35
713.569	875.6
714.012	707.15
714.456	618.2
714.899	577.1
715.342	547.25
715.786	526
716.229	521.25
716.672	502.95
717.115	502.7
717.558	508.4
718.002	519.05
718.445	542.8
718.888	577.35
719.331	590.35
719.774	598.3
720.217	588.1
720.66	556.15
721.103	523.6
721.546	488.8
721.989	481.5
722.432	474.3
722.874	471.8
723.317	474.95
723.76	522
724.203	647.55
724.645	868.65
725.088	1029.1
725.531	1025.55
725.974	1137.25
726.416	1013.9
726.859	610.5
727.301	500.7
727.744	472.95
728.187	475.3
728.629	489.05
729.071	505.6
729.514	535.2
729.956	557.75
730.399	568.6
730.841	570.25
731.283	555.4
731.726	535.9
732.168	543.8
732.61	568.25
733.053	620.55
733.495	693.55
733.937	771.6
734.379	906.85
734.821	1152.85
735.263	1831
735.705	3302.7
736.148	4923.9
736.59	5026.05
737.032	5572.25
737.474	4554.6
737.916	1706.45
738.357	885.3
738.799	675.35
739.241	628.5
739.683	639.5
740.125	663.1
740.567	675.4
741.008	715.4
741.45	767.4
741.892	795.9
742.334	812.65
742.775	810.05
743.217	776.45
743.658	636.55
744.1	656.65
744.542	771.4
744.983	815
745.425	870.9
745.866	842.1
746.307	657.75
746.749	689.8
747.19	977.95
747.632	1924.75
748.073	3609.15
748.514	5065.2
748.956	6846.75
749.397	8051.55
749.838	5559.3
750.279	5391.4
750.72	2719.9
751.162	1131.75
751.603	640.8
752.044	503.7
752.485	457.55
752.926	427.3
753.367	407.7
753.808	398.5
754.249	395.55
754.69	381.9
755.131	374.6
755.572	379.05
756.013	374.85
756.453	378.45
756.894	385.35
757.335	384.35
757.776	393.15
758.216	410.7
758.657	432.55
759.098	474.3
759.538	575.75
759.979	824.65
760.42	1660.8
760.86	4283.9
761.301	9055.05
761.741	10982.25
762.182	12890.85
762.622	8249.8
763.063	2861.05
763.503	1157.45
763.943	675.75
764.384	532.05
764.824	455.75
765.264	424.55
765.705	400.55
766.145	378.45
766.585	366.7
767.025	352.3
767.465	356.2
767.906	361.15
768.346	387.7
768.786	445.2
769.226	654.4
769.666	1324.3
770.106	2995.75
770.546	4398.05
770.986	5108.3
771.426	3856.65
771.866	1561.2
772.306	693.95
772.745	425.75
773.185	359.4
773.625	348.95
774.065	381
774.505	559.85
774.944	1017.75
775.384	1513.4
775.824	1757.75
776.263	1461.9
776.703	742.45
777.142	406.55
777.582	302.45
778.021	274.85
778.461	257.6
778.9	250.55
779.34	245.85
779.779	237.8
780.219	227.45
780.658	231.7
781.097	228.75
781.537	219.85
781.976	219.6
782.415	217.7
782.855	215.85
783.294	216
783.733	205.5
784.172	216.5
784.611	214
785.05	227.45
785.489	228.25
785.928	235.55
786.367	249.8
786.806	254.65
787.245	283.75
787.684	287.9
788.123	282.4
788.562	277.95
789.001	268.9
789.44	260.35
789.879	260.25
790.317	259.55
790.756	274.65
791.195	313.85
791.634	425.15
792.072	757.7
792.511	1889.1
792.95	3582.3
793.388	4473.55
793.827	2912.85
794.265	1299.05
794.704	602.65
795.142	372.35
795.581	309.9
796.019	280
796.458	275.35
796.896	286.9
797.334	326.95
797.773	439.3
798.211	840.1
798.649	1768.75
799.087	3036.15
799.526	4318.65
799.964	4512
800.402	3131.7
800.84	1369.35
801.278	664.05
801.716	405.85
802.154	326.3
802.592	303.95
803.03	301.5
803.468	308.65
803.906	315.95
804.344	308.35
804.782	293.8
805.22	295.35
805.658	308.75
806.096	335.85
806.533	365.45
806.971	471.5
807.409	682.45
807.847	1375.7
808.284	3515.6
808.722	6356.55
809.16	8891.55
809.597	11891.75
810.035	14859.2
810.472	9965.45
810.91	4113.7
811.347	1825.9
811.785	854.7
812.222	544.05
812.66	414.95
813.097	352.4
813.535	304.85
813.972	275.15
814.409	257.45
814.846	245.85
815.284	229.6
815.721	238.9
816.158	268.1
816.595	383.15
817.032	504.05
817.47	455.75
817.907	319.2
818.344	270.25
818.781	265.55
819.218	328.75
819.655	522.8
820.092	715.8
820.529	642
820.966	494.95
821.403	321.1
821.839	269.25
822.276	300.4
822.713	373.05
823.15	339.85
823.587	337.2
824.023	578.9
824.46	1456.15
824.897	2630.85
825.333	2084.1
825.77	934.05
826.206	474.55
826.643	279.8
827.08	209.55
827.516	179.65
827.953	170.2
828.389	163.6
828.825	154.45
829.262	145.95
829.698	143.1
830.135	134.05
830.571	134.95
831.007	139.15
831.443	136.2
831.88	139.25
832.316	142.75
832.752	143.85
833.188	143.1
833.624	146.2
834.06	148.4
834.497	149.3
834.933	150
835.369	165.05
835.805	173.45
836.241	182.6
836.677	200.1
837.112	227.05
837.548	283.25
837.984	429.65
838.42	906.05
838.856	2551.75
839.292	5207.5
839.727	3905.45
840.163	2527.9
840.599	3833.85
841.034	6102.5
841.47	3048.7
841.906	1437.65
842.341	766.4
842.777	577.35
843.212	625.5
843.648	388.6
844.083	259.2
844.519	189.15
844.954	157.05
845.39	133.95
845.825	133.55
846.261	126.3
846.696	126
847.131	115.05
847.566	122.1
848.002	125.2
848.437	134.4
848.872	136.8
849.307	173.9
849.742	312.4
850.177	835.15
850.613	1836.35
851.048	1344.05
851.483	597.05
851.918	323.65
852.353	180.35
852.788	125.95
853.223	116.1
853.657	108.95
854.092	104.7
854.527	102.35
854.962	111.25
855.397	124.25
855.832	104.3
856.266	95.4
856.701	94.8
857.136	102.5
857.57	119.75
858.005	153.4
858.44	129.1
858.874	111.2
859.309	119.9
859.743	111.35
860.178	109.5
860.612	125
861.047	175.75
861.481	264.4
861.915	175.1
862.35	123
862.784	97.55
863.218	93.55
863.653	100.1
864.087	124.8
864.521	152.55
864.955	254.65
865.39	436.65
865.824	343
866.258	463.25
866.692	746
867.126	540.05
867.56	278.7
867.994	176.15
868.428	142.75
868.862	191.45
869.296	166.85
869.73	206
870.164	178.85
870.598	160
871.031	106.6
871.465	98.05
871.899	75
872.333	65.3
872.766	69.65
873.2	66.65
873.634	61.95
874.067	72.75
874.501	64.1
874.935	71.3
875.368	69.15
875.802	63.1
876.235	58.75
876.669	60.2
877.102	50.65
877.535	51.65
877.969	52.5
878.402	51.3
878.836	55.45
879.269	46.9
879.702	49.9
880.135	51.45
880.569	61.45
881.002	52.55
881.435	51.45
881.868	50.65
882.301	44.7
882.734	43.75
883.167	50.35
883.601	49.35
884.034	46.55
884.467	42.25
884.899	48.3
885.332	41.9
885.765	48.45
886.198	40.25
886.631	41.75
887.064	38.5
887.497	40.1
887.929	39.4
888.362	38.85
888.795	40.35
889.228	42.3
889.66	40.35
890.093	34.05
890.526	41.5
890.958	40.95
891.391	40.9
891.823	36.6
892.256	40.35
892.688	44.7
893.121	36.6
893.553	48.9
893.985	34.55
894.418	37.5
894.85	39.75
895.282	44.4
895.715	33.8
896.147	31.05
896.579	29.5
897.011	37.15
897.444	39.7
897.876	33.25
898.308	35.1
898.74	36.85
899.172	39.9
899.604	38.95
900.036	35.25
900.468	35.85
900.9	41.45
901.332	58.7
901.764	55.5
902.196	53.95
902.628	54.25
903.06	89
903.491	93.1
903.923	73.85
904.355	70.05
904.787	76.2
905.218	59.75
905.65	52.6
906.082	45.2
906.513	47.5
906.945	45.7
907.376	48.2
907.808	46.95
908.239	45.65
908.671	53
909.102	59.4
909.534	79.8
909.965	166.65
910.397	419.75
910.828	1246.5
911.259	760.75
911.691	399.8
912.122	235.7
912.553	115.3
912.984	63.75
913.415	62.3
913.847	48.75
914.278	48.9
914.709	39.1
915.14	41.35
915.571	45.3
916.002	40.75
916.433	37.2
916.864	35.3
917.295	44.1
917.726	49.45
918.157	58.9
918.587	56.4
919.018	56
919.449	51.3
919.88	63.75
920.311	95.2
920.741	266.25
921.172	460.9
921.603	227.65
922.033	142.1
922.464	91.45
922.895	62.75
923.325	43.75
923.756	39.6
924.186	48.1
924.617	75.5
925.047	110
925.478	99.65
925.908	66.85
926.338	55.3
926.769	42.05
927.199	39.75
927.629	40.05
928.06	38.45
928.49	37.3
928.92	29.65
929.35	29.5
929.78	26.15
930.21	21
930.641	17.95
931.071	23.5
931.501	22.9
931.931	16.05
932.361	20.3
932.791	29.9
933.221	28
933.651	39.2
934.08	60.05
934.51	38.9
934.94	29.75
935.37	27.95
935.8	21.05
936.229	23.85
936.659	23.7
937.089	39.05
937.519	63.85
937.948	77.35
938.378	49.8
938.807	29.4
939.237	17.35
939.666	17.55
940.096	8.35
940.525	10
940.955	12.25
941.384	9.9
941.814	8.5
942.243	11.55
942.672	5.95
943.102	9.75
943.531	10.8
943.96	8.8
944.39	11.2
944.819	17.75
945.248	12.4
945.677	13.1
946.106	11.05
946.535	11.65
946.964	8.75
947.393	5.55
947.822	10.35
948.251	12.4
948.68	14.4
949.109	11.8
949.538	8.65
949.967	11.35
950.396	8.15
950.825	11.3
951.254	6.55
951.682	5.85
952.111	4.95
952.54	4.1
952.969	6.7
953.397	-0.6
953.826	7.75
954.254	8.95
954.683	10.85
955.112	10.15
955.54	8.7
955.969	7.2
956.397	7.6
956.826	6
957.254	5.5
957.682	11.1
958.111	3.35
958.539	8.05
958.967	3.5
959.396	9.45
959.824	9.4
960.252	10.75
960.68	9.05
961.109	8.3
961.537	15.1
961.965	4.9
962.393	8.4
962.821	9
963.249	8.65
963.677	20.4
964.105	76.35
964.533	139.9
964.961	64.15
965.389	36.2
965.817	18.95
966.245	13.15
966.672	7.45
967.1	10.7
967.528	6.45
967.956	6.8
968.383	10
968.811	5.7
969.239	10.8
969.666	7
970.094	4.7
970.522	4.35
970.949	8.45
971.377	-0.6
971.804	2.95
972.232	5.35
972.659	7.4
973.087	5.15
973.514	-0.95
973.941	3.2
974.369	1.85
974.796	6.1
975.223	5.1
975.651	5.85
976.078	10.05
976.505	10.85
976.932	34.3
977.359	41
977.786	24
978.214	19.25
978.641	4.75
979.068	10.65
979.495	4.95
979.922	8.4
980.349	4.8
980.776	10.95
981.202	2
981.629	11.2
982.056	6.5
982.483	0.4
982.91	9.35
983.337	1.8
983.763	7.5
984.19	2.8
984.617	0.75
985.043	8.65
985.47	8.15
985.897	7.25
986.323	5.2
986.75	4.9
987.176	5.85
987.603	5.2
988.029	5.15
988.456	9.7
988.882	-0.6
989.308	4.45
989.735	2.6
990.161	5.2
990.587	4.3
991.014	5.9
991.44	8.15
991.866	6.9
992.292	-0.15
992.719	4.15
993.145	8.55
993.571	4.55
993.997	4.7
994.423	9.75
994.849	-2.15
995.275	6.55
995.701	3.1
996.127	-0.15
996.553	2.05
996.979	1.4
997.405	3.9
997.83	5.95
998.256	4.3
998.682	3.95
999.108	7.4
999.534	-7.2
999.959	4.2
1000.385	7.2
1000.811	0.65
1001.236	0.65
1001.662	0.55
1002.087	7.2
1002.513	5.4
1002.938	2
1003.364	9.85
1003.789	9.95
1004.215	3.85
1004.64	3.05
1005.066	5.9
1005.491	7.15
1005.916	8.6
1006.342	6.55
1006.767	4.35
1007.192	4.9
1007.617	6.7
1008.042	7.1
1008.468	2.65
1008.893	8.9
1009.318	11.15
1009.743	20.6
1010.168	31.35
1010.593	27.45
1011.018	15.9
1011.443	11.65
1011.868	7.9
1012.293	7.3
1012.718	3.4
1013.143	2.05
1013.567	7.7
1013.992	3.85
1014.417	5.15
1014.842	0.8
1015.267	3.25
1015.691	7.75
1016.116	5.15
1016.541	10.65
1016.965	2.9
1017.39	4.05
1017.814	1.95
1018.239	0.4
1018.663	-2.9
1019.088	-0.2
1019.512	3.9
1019.937	-2.75
1020.361	3.5
1020.785	0.55
1021.21	1.6
1021.634	4.65
1022.058	4.6
1022.483	-4.55
1022.907	0.8
1023.331	0.3
1023.755	-1.55
1024.179	-2.45
1024.604	3.2
1025.028	4.75
1025.452	4.25
1025.876	4.5
1026.3	2.15
1026.724	-0.6
1027.148	5.05
1027.572	0.8
1027.996	2.35
1028.42	1.95
1028.843	3
1029.267	1.2
1029.691	3.8
1030.115	-1.5
1030.539	-0.35
1030.962	1.45
1031.386	-0.8
1031.81	7.4
1032.233	-2.45
1032.657	-6.6
1033.08	-0
1033.504	-2.6
1033.927	-0.75
1034.351	-0.55
1034.774	2.9
1035.198	-2.2
1035.621	6.8
1036.045	-4.4
1036.468	7.45
1036.891	-0
1037.315	7.2
1037.738	-1.85
1038.161	0.6
1038.584	2
1039.008	0.7
1039.431	1
1039.854	-3.3
1040.277	4.25
1040.7	-0
1041.123	1.05
1041.546	-0.5
1041.969	1.8
1042.392	3.45
1042.815	-3.95
1043.238	-0.45
1043.661	-1
1044.084	-0.05
1044.507	3.05
1044.93	1.3
1045.352	3.25
1045.775	1.95
1046.198	1.3
1046.621	1
1047.043	1.4
1047.466	0.65
1047.889	1.75
1048.311	3.3
1048.734	-1.95
1049.156	2.2
1049.579	1.45
1050.001	-1.7
1050.424	1.3
1050.846	-0.6
1051.269	-1.8
1051.691	0.5
1052.113	3.75
1052.536	-1.55
1052.958	-3.9
1053.38	1.5
1053.802	0.5
1054.225	2.75
1054.647	5.15
1055.069	-0.9
1055.491	4.2
1055.913	-0.65
1056.335	-10.8
1056.757	-5.05
1057.179	-2.1
1057.601	0.3
1058.023	-0.5
1058.445	-1.85
1058.867	4.55
1059.289	0.15
1059.711	-3.4
1060.133	4.3
1060.555	-2.3
1060.976	3.15
1061.398	2.6
1061.82	-3.95
1062.241	0.1
1062.663	2.3
1063.085	-3.7
1063.506	-5.9
1063.928	2.2
1064.35	-0.7
1064.771	1.2
1065.193	-2.05
1065.614	-2
1066.035	5.15
1066.457	1.9
1066.878	1.45
1067.3	1.05
1067.721	2.65
1068.142	10.1
1068.564	4.45
1068.985	7
1069.406	-2.1
1069.827	1.85
1070.248	-6.2
1070.67	-0.55
1071.091	-2.85
1071.512	-1.6
1071.933	1.3
1072.354	-8.8
1072.775	0.25
1073.196	-0.7
1073.617	-0.55
1074.038	-1.9
1074.459	-1.8
1074.88	-2
1075.3	-0.25
1075.721	-4.2
1076.142	-1.15
1076.563	0.65
1076.983	-0.5
1077.404	-2.3
1077.825	3.35
1078.246	-1.4
1078.666	-4.75
1079.087	-5
1079.507	-2.55
1079.928	-1.05
1080.348	1.5
1080.769	-3.25
1081.189	-2.4
1081.61	-2.75
1082.03	5
1082.451	-1.45
1082.871	-10.7
1083.291	-5.05
1083.711	-2.45
1084.132	-6.9
1084.552	-5.2
1084.972	-4.5
1085.392	-7.35
1085.813	2.8
1086.233	-1.85
1086.653	-1.75
1087.073	-1
1087.493	-2.05
1087.913	-3.4
1088.333	0.35
1088.753	1.1
1089.173	-1.65
1089.593	4.25
1090.013	-2.9
1090.433	-2.3
1090.852	3.95
1091.272	-7.25
1091.692	-1.65
1092.112	-5.65
1092.531	1.25
1092.951	-4.25
1093.371	0.35
1093.79	1.85
1094.21	-4
1094.63	0.1
1095.049	0.7
1095.469	-7.2
1095.888	-1.65
1096.308	2.5
1096.727	-4.05
1097.146	-5.1
1097.566	2.3
1097.985	-2.95
1098.405	1.45
1098.824	2.25
1099.243	-1.6
1099.662	-2.95
1100.082	2.3
1100.501	2.8
1100.92	4.15
1101.339	2
1101.758	1.2
