Data from MSPlasma+Separation6_Subt14_10-12-37-426.txt Node
Date: Fri Jul 21 10:12:37 EDT 2017
User: Ender
Spectrometer: HR+D1039
Trigger mode: 0
Integration Time (sec): 6.430000E-3
Scans to average: 20
Electric dark correction enabled: true
Nonlinearity correction enabled: false
Boxcar width: 0
XAxis mode: Wavelengths
Number of Pixels in Spectrum: 2048
>>>>>Begin Spectral Data<<<<<
187.836	-1.52
188.309	-1.52
188.782	-1.52
189.255	0.33
189.728	4.48
190.201	-1.57
190.674	1.88
191.147	-0.52
191.619	-2.87
192.092	2.58
192.565	-5.37
193.038	1.73
193.511	2.48
193.984	2.08
194.456	-1.17
194.929	1.63
195.402	-4.82
195.874	0.73
196.347	6.98
196.82	0.73
197.292	-4.42
197.765	-0.97
198.237	-3.37
198.71	-2.12
199.182	1.13
199.655	1.53
200.127	1.68
200.6	-1.22
201.072	1.08
201.544	-1.57
202.017	3.13
202.489	6.88
202.961	4.18
203.433	-3.42
203.906	0.58
204.378	2.93
204.85	-0.17
205.322	-1.42
205.794	1.08
206.266	-6.27
206.739	3.78
207.211	-2.97
207.683	-3.42
208.155	2.38
208.627	2.13
209.099	5.08
209.57	-0.17
210.042	-2.77
210.514	0.68
210.986	-1.77
211.458	-2.47
211.93	2.58
212.402	0.48
212.873	-3.42
213.345	-6.57
213.817	1.88
214.288	-2.02
214.76	1.98
215.232	-1.17
215.703	-4.32
216.175	-1.67
216.646	-2.02
217.118	-3.82
217.589	-4.07
218.061	0.13
218.532	-3.42
219.004	3.28
219.475	-0.62
219.946	2.33
220.418	3.43
220.889	0.68
221.36	3.43
221.832	7.48
222.303	1.83
222.774	4.73
223.245	-2.07
223.717	-2.52
224.188	3.18
224.659	1.98
225.13	3.28
225.601	3.03
226.072	7.53
226.543	4.98
227.014	-0.62
227.485	4.28
227.956	3.18
228.427	6.28
228.898	3.38
229.369	3.23
229.839	2.73
230.31	9.88
230.781	7.53
231.252	5.83
231.722	4.43
232.193	2.83
232.664	8.08
233.135	3.78
233.605	7.58
234.076	9.73
234.546	7.13
235.017	9.23
235.487	7.43
235.958	6.33
236.428	8.23
236.899	4.83
237.369	14.83
237.84	8.63
238.31	12.28
238.78	5.53
239.251	5.48
239.721	8.33
240.191	5.53
240.662	9.88
241.132	5.03
241.602	8.83
242.072	5.48
242.542	7.83
243.013	9.03
243.483	15.73
243.953	7.68
244.423	8.63
244.893	9.68
245.363	12.33
245.833	10.53
246.303	13.98
246.773	13.53
247.243	10.48
247.712	13.68
248.182	14.18
248.652	14.53
249.122	13.28
249.592	17.58
250.061	9.43
250.531	13.03
251.001	12.93
251.471	12.98
251.94	18.18
252.41	11.43
252.879	16.83
253.349	18.83
253.818	15.23
254.288	20.13
254.757	23.28
255.227	22.58
255.696	21.53
256.166	23.73
256.635	22.98
257.105	18.78
257.574	19.73
258.043	22.53
258.513	19.48
258.982	22.23
259.451	24.83
259.92	21.08
260.389	22.13
260.859	23.13
261.328	23.68
261.797	18.33
262.266	24.33
262.735	25.03
263.204	21.23
263.673	28.93
264.142	21.78
264.611	24.98
265.08	25.63
265.549	27.63
266.018	28.58
266.487	30.83
266.955	24.33
267.424	33.08
267.893	26.13
268.362	27.93
268.83	25.08
269.299	27.43
269.768	30.98
270.236	26.68
270.705	33.38
271.174	28.23
271.642	30.88
272.111	31.53
272.579	29.63
273.048	34.43
273.516	32.88
273.985	28.28
274.453	34.28
274.922	34.78
275.39	29.78
275.858	37.63
276.327	32.93
276.795	34.68
277.263	36.78
277.731	38.53
278.2	36.63
278.668	32.78
279.136	36.73
279.604	40.78
280.072	36.33
280.54	39.38
281.008	44.58
281.477	40.88
281.945	35.78
282.413	36.08
282.881	36.78
283.348	38.73
283.816	38.33
284.284	47.23
284.752	41.88
285.22	48.18
285.688	46.43
286.156	45.78
286.623	45.33
287.091	44.23
287.559	46.68
288.026	55.58
288.494	49.58
288.962	50.13
289.429	48.33
289.897	45.68
290.364	46.48
290.832	46.28
291.3	47.58
291.767	44.48
292.234	48.13
292.702	50.68
293.169	50.58
293.637	54.43
294.104	54.03
294.571	51.88
295.039	54.38
295.506	49.03
295.973	56.38
296.44	54.58
296.908	62.43
297.375	55.68
297.842	58.18
298.309	58.43
298.776	57.43
299.243	58.88
299.71	59.08
300.177	57.93
300.644	58.58
301.111	60.18
301.578	66.03
302.045	59.13
302.512	66.88
302.979	67.23
303.446	68.03
303.913	67.68
304.379	69.33
304.846	70.78
305.313	69.48
305.78	78.73
306.246	75.23
306.713	74.73
307.18	76.13
307.646	77.83
308.113	75.38
308.579	75.68
309.046	82.68
309.512	80.83
309.979	85.48
310.445	81.98
310.912	76.48
311.378	85.68
311.845	85.88
312.311	81.98
312.777	83.18
313.244	89.63
313.71	89.53
314.176	88.03
314.642	90.98
315.109	88.68
315.575	86.28
316.041	90.88
316.507	87.13
316.973	94.73
317.439	95.73
317.905	95.38
318.371	95.43
318.837	91.38
319.303	97.93
319.769	92.38
320.235	98.33
320.701	102.28
321.167	94.83
321.633	98.73
322.099	99.13
322.564	101.08
323.03	104.03
323.496	102.53
323.962	105.03
324.427	111.18
324.893	102.58
325.359	108.68
325.824	116.48
326.29	117.78
326.755	107.88
327.221	111.13
327.686	120.58
328.152	119.68
328.617	121.43
329.083	121.33
329.548	121.03
330.014	118.78
330.479	124.28
330.944	127.08
331.41	131.98
331.875	122.28
332.34	121.58
332.805	124.58
333.271	125.88
333.736	125.48
334.201	125.18
334.666	141.18
335.131	134.13
335.596	137.58
336.061	133.28
336.526	129.83
336.991	130.63
337.456	133.58
337.921	126.23
338.386	126.73
338.851	125.43
339.316	130.58
339.781	128.53
340.246	136.33
340.711	133.13
341.175	134.73
341.64	139.18
342.105	141.93
342.569	157.13
343.034	140.13
343.499	145.18
343.963	153.58
344.428	153.88
344.893	150.33
345.357	159.53
345.822	157.53
346.286	161.38
346.751	162.98
347.215	167.38
347.679	176.08
348.144	183.03
348.608	183.38
349.073	181.48
349.537	187.93
350.001	185.83
350.465	186.28
350.93	186.73
351.394	187.43
351.858	191.58
352.322	197.53
352.786	194.88
353.25	196.58
353.715	191.63
354.179	207.03
354.643	212.98
355.107	209.78
355.571	205.88
356.035	205.88
356.498	210.78
356.962	206.33
357.426	199.83
357.89	203.28
358.354	199.78
358.818	198.58
359.281	208.43
359.745	204.63
360.209	199.93
360.673	200.88
361.136	200.78
361.6	201.88
362.064	210.68
362.527	216.13
362.991	212.18
363.454	213.78
363.918	217.68
364.381	220.38
364.845	220.63
365.308	217.03
365.772	218.58
366.235	217.73
366.698	216.33
367.162	210.23
367.625	220.78
368.088	228.18
368.552	222.93
369.015	227.18
369.478	232.08
369.941	225.63
370.404	235.38
370.867	232.18
371.331	236.73
371.794	234.03
372.257	240.78
372.72	237.63
373.183	236.93
373.646	244.43
374.109	240.23
374.572	241.83
375.035	245.38
375.497	247.98
375.96	253.63
376.423	258.23
376.886	266.38
377.349	265.38
377.811	260.23
378.274	264.88
378.737	261.58
379.199	266.28
379.662	264.78
380.125	265.98
380.587	271.03
381.05	276.78
381.512	281.18
381.975	285.68
382.437	292.33
382.9	288.48
383.362	289.63
383.825	294.13
384.287	293.13
384.75	288.08
385.212	300.08
385.674	301.88
386.136	305.23
386.599	305.33
387.061	304.13
387.523	300.58
387.985	306.63
388.447	314.03
388.91	309.33
389.372	309.83
389.834	319.78
390.296	310.13
390.758	309.03
391.22	306.28
391.682	304.88
392.144	305.93
392.606	314.78
393.068	320.98
393.529	346.03
393.991	345.98
394.453	332.28
394.915	319.48
395.377	315.03
395.838	315.88
396.3	313.03
396.762	323.08
397.224	318.53
397.685	325.13
398.147	329.83
398.608	330.53
399.07	342.08
399.531	330.78
399.993	343.43
400.454	348.38
400.916	345.43
401.377	356.63
401.839	358.98
402.3	354.08
402.762	377.83
403.223	406.03
403.684	400.03
404.145	384.53
404.607	366.73
405.068	351.98
405.529	363.23
405.99	367.03
406.451	370.93
406.913	362.38
407.374	365.68
407.835	366.13
408.296	379.08
408.757	377.28
409.218	387.13
409.679	389.23
410.14	395.38
410.601	409.88
411.062	422.33
411.522	425.93
411.983	428.13
412.444	431.33
412.905	441.93
413.366	464.93
413.826	488.38
414.287	566.93
414.748	686.38
415.208	699.33
415.669	570.33
416.13	515.58
416.59	506.43
417.051	532.13
417.511	555.13
417.972	609.03
418.432	669.23
418.893	736.23
419.353	699.53
419.814	524.08
420.274	462.83
420.734	455.93
421.195	464.68
421.655	461.93
422.115	468.43
422.576	468.13
423.036	468.18
423.496	486.33
423.956	508.93
424.416	540.68
424.876	614.88
425.336	605.73
425.797	590.68
426.257	571.73
426.717	523.68
427.177	473.28
427.637	471.33
428.097	487.63
428.556	493.68
429.016	527.28
429.476	523.63
429.936	492.18
430.396	494.08
430.856	489.18
431.315	496.68
431.775	537.83
432.235	586.98
432.694	598.93
433.154	548.58
433.614	537.93
434.073	525.98
434.533	480.68
434.993	475.18
435.452	481.43
435.912	478.53
436.371	487.08
436.83	483.98
437.29	486.13
437.749	481.23
438.209	487.53
438.668	493.38
439.127	502.43
439.587	508.08
440.046	497.58
440.505	511.53
440.964	516.18
441.424	530.48
441.883	543.08
442.342	523.58
442.801	496.83
443.26	509.78
443.719	512.18
444.178	512.88
444.637	522.98
445.096	524.83
445.555	519.33
446.014	527.73
446.473	521.58
446.932	522.68
447.391	530.63
447.849	541.73
448.308	532.08
448.767	533.93
449.226	551.13
449.685	562.38
450.143	581.98
450.602	573.33
451.061	543.78
451.519	550.88
451.978	537.68
452.436	539.23
452.895	539.68
453.353	534.73
453.812	528.68
454.27	531.38
454.729	540.53
455.187	537.58
455.646	543.58
456.104	541.58
456.562	546.83
457.021	553.73
457.479	530.13
457.937	553.88
458.395	570.63
458.854	562.63
459.312	549.38
459.77	554.63
460.228	564.88
460.686	572.73
461.144	577.93
461.602	571.88
462.06	566.93
462.518	583.58
462.976	578.38
463.434	595.93
463.892	597.88
464.35	599.03
464.808	607.73
465.266	616.78
465.724	628.08
466.181	627.98
466.639	629.08
467.097	648.78
467.555	670.43
468.012	660.48
468.47	665.28
468.928	691.33
469.385	703.33
469.843	707.68
470.3	705.63
470.758	721.53
471.215	734.63
471.673	738.88
472.13	760.48
472.588	774.43
473.045	764.88
473.503	779.73
473.96	804.78
474.417	816.23
474.875	844.08
475.332	858.63
475.789	860.53
476.246	882.08
476.704	898.53
477.161	901.28
477.618	905.78
478.075	927.93
478.532	955.68
478.989	982.28
479.446	1021.98
479.903	1012.58
480.36	1040.33
480.817	1023.33
481.274	1029.38
481.731	1068.88
482.188	1097.03
482.645	1117.48
483.102	1126.68
483.558	1167.53
484.015	1184.83
484.472	1180.88
484.929	1194.98
485.385	1190.73
485.842	1195.13
486.299	1204.18
486.755	1192.58
487.212	1172.38
487.668	1141.88
488.125	1141.68
488.582	1122.83
489.038	1142.58
489.494	1145.38
489.951	1147.28
490.407	1158.73
490.864	1155.93
491.32	1151.33
491.776	1153.73
492.233	1172.12
492.689	1174.23
493.145	1164.68
493.602	1151.48
494.058	1174.03
494.514	1173.88
494.97	1183.33
495.426	1201.98
495.882	1203.62
496.338	1205.03
496.794	1217.33
497.251	1214.33
497.707	1234.48
498.163	1239.48
498.618	1245.03
499.074	1251.93
499.53	1258.58
499.986	1255.43
500.442	1257.53
500.898	1240.68
501.354	1257.62
501.809	1268.18
502.265	1257.33
502.721	1273.28
503.177	1277.18
503.632	1285.08
504.088	1293.68
504.543	1309.23
504.999	1318.72
505.455	1314.88
505.91	1297.78
506.366	1298.68
506.821	1305.18
507.277	1296.12
507.732	1304.33
508.187	1298.98
508.643	1317.68
509.098	1317.38
509.553	1328.28
510.009	1351.33
510.464	1373.53
510.919	1384.08
511.375	1399.63
511.83	1419.88
512.285	1440.33
512.74	1471.68
513.195	1488.68
513.65	1514.58
514.105	1545.23
514.56	1554.97
515.015	1577.38
515.47	1564.58
515.925	1554.58
516.38	1559.28
516.835	1557.47
517.29	1558.08
517.745	1556.58
518.2	1533.48
518.655	1502.83
519.109	1477.63
519.564	1463.08
520.019	1438.88
520.474	1434.22
520.928	1426.28
521.383	1419.33
521.838	1416.88
522.292	1406.62
522.747	1396.88
523.201	1384.13
523.656	1368.12
524.11	1359.83
524.565	1363.83
525.019	1340.93
525.474	1355.62
525.928	1344.48
526.382	1347.38
526.837	1353.58
527.291	1353.23
527.745	1337.53
528.2	1334.18
528.654	1318.93
529.108	1329.12
529.562	1325.03
530.016	1324.88
530.47	1317.43
530.925	1323.43
531.379	1320.18
531.833	1334.38
532.287	1337.03
532.741	1324.18
533.195	1328.83
533.649	1325.78
534.103	1334.88
534.556	1312.53
535.01	1331.73
535.464	1323.13
535.918	1327.03
536.372	1327.03
536.826	1319.03
537.279	1310.53
537.733	1311.68
538.187	1323.62
538.64	1330.68
539.094	1339.98
539.548	1349.18
540.001	1355.08
540.455	1363.18
540.908	1371.53
541.362	1392.98
541.815	1389.88
542.269	1425.68
542.722	1415.58
543.175	1427.83
543.629	1436.83
544.082	1462.23
544.536	1474.47
544.989	1472.83
545.442	1485.12
545.895	1492.23
546.349	1485.53
546.802	1486.63
547.255	1493.72
547.708	1509.63
548.161	1525.08
548.614	1519.93
549.067	1521.23
549.52	1513.98
549.973	1498.73
550.426	1489.13
550.879	1479.83
551.332	1477.83
551.785	1492.38
552.238	1508.48
552.691	1496.13
553.144	1528.23
553.596	1551.48
554.049	1578.58
554.502	1608.68
554.955	1639.18
555.407	1661.93
555.86	1628.48
556.313	1617.08
556.765	1605.98
557.218	1584.88
557.67	1575.83
558.123	1551.18
558.576	1544.68
559.028	1544.93
559.48	1571.12
559.933	1565.58
560.385	1506.33
560.838	1453.03
561.29	1407.62
561.742	1406.93
562.195	1366.68
562.647	1354.78
563.099	1347.73
563.551	1344.53
564.004	1358.33
564.456	1346.98
564.908	1308.18
565.36	1275.78
565.812	1255.28
566.264	1245.28
566.716	1225.08
567.168	1205.48
567.62	1212.08
568.072	1200.18
568.524	1192.18
568.976	1176.58
569.428	1163.88
569.88	1172.03
570.332	1186.78
570.784	1181.88
571.235	1174.88
571.687	1182.78
572.139	1190.93
572.59	1201.43
573.042	1210.53
573.494	1200.78
573.945	1186.53
574.397	1165.38
574.849	1157.88
575.3	1158.58
575.752	1140.73
576.203	1131.73
576.655	1148.08
577.106	1122.38
577.557	1115.68
578.009	1099.48
578.46	1112.48
578.912	1106.23
579.363	1109.18
579.814	1106.98
580.265	1110.03
580.717	1106.58
581.168	1106.38
581.619	1110.13
582.07	1124.58
582.521	1110.08
582.972	1107.98
583.423	1107.33
583.875	1122.38
584.326	1130.43
584.777	1148.68
585.227	1169.58
585.678	1182.88
586.129	1191.93
586.58	1205.68
587.031	1231.18
587.482	1268.68
587.933	1279.73
588.384	1279.88
588.834	1267.88
589.285	1258.53
589.736	1260.33
590.186	1268.08
590.637	1244.38
591.088	1215.63
591.538	1193.73
591.989	1167.38
592.439	1158.18
592.89	1149.93
593.34	1139.93
593.791	1130.63
594.241	1123.63
594.692	1119.43
595.142	1114.73
595.593	1126.08
596.043	1124.88
596.493	1137.28
596.943	1135.48
597.394	1164.63
597.844	1182.63
598.294	1204.78
598.744	1259.58
599.195	1325.53
599.645	1401.73
600.095	1489.83
600.545	1566.83
600.995	1633.12
601.445	1704.68
601.895	1793.88
602.345	1857.38
602.795	1828.28
603.245	1728.98
603.695	1625.93
604.145	1530.83
604.594	1446.68
605.044	1369.38
605.494	1270.43
605.944	1202.28
606.393	1167.48
606.843	1150.68
607.293	1146.78
607.743	1153.03
608.192	1156.08
608.642	1167.18
609.091	1152.23
609.541	1153.38
609.99	1160.48
610.44	1133.03
610.889	1112.53
611.339	1092.03
611.788	1077.53
612.238	1086.13
612.687	1091.78
613.136	1092.68
613.586	1106.58
614.035	1101.83
614.484	1110.53
614.933	1116.63
615.383	1085.78
615.832	1066.48
616.281	1047.78
616.73	1024.93
617.179	1007.68
617.628	988.08
618.077	973.28
618.526	949.78
618.975	954.48
619.424	932.23
619.873	938.73
620.322	933.03
620.771	928.38
621.22	907.53
621.669	892.53
622.118	878.23
622.567	866.78
623.015	846.03
623.464	847.28
623.913	832.28
624.361	835.88
624.81	831.73
625.259	831.93
625.707	831.98
626.156	838.08
626.604	848.58
627.053	861.48
627.501	852.03
627.95	862.63
628.398	879.78
628.847	856.13
629.295	859.68
629.744	846.93
630.192	831.58
630.64	809.48
631.089	800.58
631.537	778.33
631.985	771.53
632.433	757.68
632.881	756.08
633.33	761.63
633.778	761.23
634.226	773.88
634.674	774.78
635.122	786.53
635.57	797.18
636.018	803.58
636.466	806.03
636.914	798.23
637.362	807.98
637.81	826.33
638.258	860.18
638.705	863.83
639.153	895.83
639.601	892.78
640.049	908.98
640.497	935.43
640.944	964.58
641.392	918.58
641.84	836.68
642.287	794.23
642.735	761.93
643.182	746.13
643.63	733.93
644.078	727.38
644.525	727.73
644.973	741.73
645.42	739.43
645.867	735.68
646.315	737.58
646.762	743.78
647.21	742.78
647.657	752.93
648.104	739.63
648.551	712.53
648.999	716.38
649.446	706.73
649.893	704.93
650.34	711.38
650.787	729.68
651.234	760.13
651.682	814.78
652.129	900.38
652.576	1028.93
653.023	1195.48
653.47	1283.48
653.917	1332.73
654.363	1367.08
654.81	1439.08
655.257	1474.22
655.704	1163.33
656.151	903.08
656.598	790.83
657.044	728.48
657.491	718.48
657.938	696.83
658.385	677.93
658.831	680.98
659.278	676.93
659.724	674.38
660.171	665.03
660.618	638.48
661.064	631.43
661.511	632.98
661.957	644.93
662.404	644.43
662.85	654.08
663.296	656.38
663.743	652.83
664.189	665.23
664.635	658.38
665.082	652.33
665.528	655.13
665.974	636.48
666.42	634.88
666.867	628.98
667.313	597.53
667.759	591.63
668.205	598.68
668.651	601.03
669.097	604.98
669.543	607.98
669.989	612.88
670.435	612.18
670.881	615.13
671.327	653.23
671.773	708.98
672.219	764.53
672.665	826.88
673.11	860.23
673.556	887.38
674.002	911.28
674.448	933.33
674.893	780.38
675.339	677.43
675.785	614.38
676.23	581.68
676.676	554.48
677.122	544.03
677.567	529.78
678.013	512.98
678.458	506.58
678.904	510.48
679.349	505.63
679.794	496.28
680.24	506.48
680.685	490.88
681.131	500.08
681.576	497.38
682.021	501.38
682.466	508.78
682.912	512.88
683.357	543.08
683.802	590.68
684.247	654.03
684.692	699.68
685.137	734.88
685.583	750.53
686.028	800.18
686.473	751.78
686.918	643.18
687.363	582.98
687.807	549.93
688.252	522.73
688.697	503.13
689.142	480.33
689.587	489.88
690.032	502.08
690.477	520.63
690.921	543.33
691.366	580.98
691.811	608.03
692.255	657.48
692.7	811.13
693.145	1168.88
693.589	1801.53
694.034	2178.03
694.478	2360.32
694.923	2196.83
695.367	3161.33
695.812	1893.98
696.256	758.43
696.701	543.53
697.145	498.58
697.59	471.53
698.034	470.48
698.478	463.03
698.922	471.33
699.367	483.68
699.811	514.28
700.255	561.13
700.699	626.98
701.143	676.28
701.588	716.83
702.032	753.53
702.476	785.03
702.92	817.33
703.364	1059.18
703.808	1647.68
704.252	2089.82
704.696	2264.73
705.14	2160.97
705.584	3006.18
706.027	1632.88
706.471	796.23
706.915	579.13
707.359	511.03
707.803	471.13
708.246	454.38
708.69	451.48
709.134	446.68
709.577	442.73
710.021	453.78
710.465	447.23
710.908	442.18
711.352	461.78
711.795	518.38
712.239	556.33
712.682	575.78
713.126	566.83
713.569	641.53
714.012	517.03
714.456	437.08
714.899	415.38
715.342	396.03
715.786	384.98
716.229	377.13
716.672	364.73
717.115	357.68
717.558	367.68
718.002	378.43
718.445	401.78
718.888	430.48
719.331	435.63
719.774	444.23
720.217	434.33
720.66	412.98
721.103	381.33
721.546	354.63
721.989	351.78
722.432	343.68
722.874	342.23
723.317	346.48
723.76	376.63
724.203	468.18
724.645	639.88
725.088	767.73
725.531	756.78
725.974	855.03
726.416	752.63
726.859	448.58
727.301	364.88
727.744	340.58
728.187	343.53
728.629	352.68
729.071	374.28
729.514	395.63
729.956	410.28
730.399	422.98
730.841	422.73
731.283	409.08
731.726	390.33
732.168	395.18
732.61	427.08
733.053	449.43
733.495	505.98
733.937	564.48
734.379	679.88
734.821	860.88
735.263	1360.38
735.705	2446.68
736.148	3666.68
736.59	3768.97
737.032	4144.77
737.474	3409.62
737.916	1273.53
738.357	649.28
738.799	487.18
739.241	452.03
739.683	454.03
740.125	466.98
740.567	467.03
741.008	498.68
741.45	521.43
741.892	542.78
742.334	553.78
742.775	546.33
743.217	525.78
743.658	439.38
744.1	444.48
744.542	507.98
744.983	530.73
745.425	568.88
745.866	553.08
746.307	460.38
746.749	493.53
747.19	727.68
747.632	1431.78
748.073	2688.93
748.514	3789.97
748.956	5119.47
749.397	6096.57
749.838	4159.72
750.279	4024.58
750.72	2051.02
751.162	846.23
751.603	476.18
752.044	378.43
752.485	331.88
752.926	314.18
753.367	293.33
753.808	289.33
754.249	283.78
754.69	280.13
755.131	277.68
755.572	273.13
756.013	272.78
756.453	273.68
756.894	282.18
757.335	280.73
757.776	284.63
758.216	300.63
758.657	317.98
759.098	348.48
759.538	427.98
759.979	616.48
760.42	1238.23
760.86	3183.48
761.301	6820.07
761.741	8270.18
762.182	9789.03
762.622	6236.68
763.063	2162.08
763.503	868.58
763.943	493.83
764.384	393.83
764.824	336.18
765.264	309.18
765.705	292.08
766.145	276.63
766.585	269.23
767.025	260.18
767.465	255.38
767.906	263.53
768.346	281.18
768.786	327.28
769.226	483.08
769.666	979.43
770.106	2239.43
770.546	3297.38
770.986	3823.23
771.426	2908.63
771.866	1176.93
772.306	516.68
772.745	312.33
773.185	258.88
773.625	245.23
774.065	260.33
774.505	363.33
774.944	631.68
775.384	922.88
775.824	1065.88
776.263	892.58
776.703	467.43
777.142	275.33
777.582	210.58
778.021	189.33
778.461	188.23
778.9	182.08
779.34	181.33
779.779	165.63
780.219	167.93
780.658	165.68
781.097	167.78
781.537	160.13
781.976	160.23
782.415	156.58
782.855	158.93
783.294	154.53
783.733	155.13
784.172	159.28
784.611	157.63
785.05	156.48
785.489	169.23
785.928	162.03
786.367	180.88
786.806	189.18
787.245	201.68
787.684	212.93
788.123	212.63
788.562	201.13
789.001	187.63
789.44	190.48
789.879	184.13
790.317	185.73
790.756	194.18
791.195	228.33
791.634	310.18
792.072	564.13
792.511	1411.18
792.95	2669.32
793.388	3349.62
793.827	2182.58
794.265	963.63
794.704	451.33
795.142	277.93
795.581	223.13
796.019	200.13
796.458	199.93
796.896	207.08
797.334	237.93
797.773	322.28
798.211	626.43
798.649	1335.38
799.087	2268.83
799.526	3217.73
799.964	3392.08
800.402	2367.23
800.84	1042.08
801.278	494.58
801.716	295.88
802.154	233.13
802.592	220.93
803.03	223.43
803.468	227.28
803.906	231.78
804.344	222.43
804.782	214.53
805.22	218.63
805.658	222.78
806.096	241.98
806.533	267.93
806.971	344.98
807.409	509.08
807.847	1022.68
808.284	2627.48
808.722	4770.18
809.16	6699.43
809.597	8982.43
810.035	11521.78
810.472	7525.97
810.91	3089.48
811.347	1381.58
811.785	638.58
812.222	395.53
812.66	307.13
813.097	258.93
813.535	231.53
813.972	203.53
814.409	183.98
814.846	174.48
815.284	167.08
815.721	171.38
816.158	186.78
816.595	246.78
817.032	314.78
817.47	282.08
817.907	208.63
818.344	181.93
818.781	178.08
819.218	210.73
819.655	320.18
820.092	426.83
820.529	389.38
820.966	300.13
821.403	203.08
821.839	179.53
822.276	199.63
822.713	238.43
823.15	224.03
823.587	236.73
824.023	423.18
824.46	1101.78
824.897	1986.08
825.333	1576.73
825.77	695.58
826.206	357.43
826.643	205.43
827.08	151.33
827.516	133.93
827.953	124.98
828.389	119.58
828.825	112.43
829.262	110.58
829.698	99.53
830.135	96.18
830.571	94.58
831.007	95.93
831.443	96.73
831.88	101.63
832.316	108.08
832.752	100.38
833.188	100.43
833.624	100.38
834.06	108.23
834.497	109.23
834.933	107.38
835.369	118.33
835.805	126.33
836.241	133.93
836.677	146.78
837.112	170.38
837.548	210.53
837.984	315.88
838.42	676.53
838.856	1911.83
839.292	3924.92
839.727	2947.83
840.163	1914.28
840.599	2872.77
841.034	4600.43
841.47	2319.07
841.906	1085.43
842.341	560.48
842.777	401.28
843.212	403.63
843.648	252.73
844.083	178.48
844.519	136.78
844.954	113.18
845.39	98.38
845.825	99.23
846.261	95.53
846.696	88.28
847.131	84.03
847.566	89.08
848.002	89.98
848.437	95.28
848.872	94.83
849.307	130.08
849.742	233.78
850.177	626.48
850.613	1390.63
851.048	1022.43
851.483	450.43
851.918	238.93
852.353	129.58
852.788	95.43
853.223	81.63
853.657	74.18
854.092	74.13
854.527	70.78
854.962	77.73
855.397	85.48
855.832	72.08
856.266	64.73
856.701	65.58
857.136	67.83
857.57	80.38
858.005	98.08
858.44	86.08
858.874	79.93
859.309	80.88
859.743	82.18
860.178	78.98
860.612	89.03
861.047	119.78
861.481	164.53
861.915	104.93
862.35	74.83
862.784	62.88
863.218	60.53
863.653	70.18
864.087	84.73
864.521	107.63
864.955	180.03
865.39	327.03
865.824	236.83
866.258	279.43
866.692	437.33
867.126	312.83
867.56	167.28
867.994	103.73
868.428	93.33
868.862	109.23
869.296	101.93
869.73	126.38
870.164	110.18
870.598	98.18
871.031	71.33
871.465	62.28
871.899	49.98
872.333	45.73
872.766	46.53
873.2	48.33
873.634	41.63
874.067	47.18
874.501	47.68
874.935	53.83
875.368	48.88
875.802	45.98
876.235	41.23
876.669	38.18
877.102	38.03
877.535	40.53
877.969	34.98
878.402	40.83
878.836	35.43
879.269	34.73
879.702	35.18
880.135	41.48
880.569	41.28
881.002	33.33
881.435	37.98
881.868	37.83
882.301	33.83
882.734	31.53
883.167	37.43
883.601	34.13
884.034	33.33
884.467	29.93
884.899	36.53
885.332	26.88
885.765	29.08
886.198	29.18
886.631	31.38
887.064	28.68
887.497	29.58
887.929	32.83
888.362	28.18
888.795	28.08
889.228	32.88
889.66	29.58
890.093	25.03
890.526	30.48
890.958	28.13
891.391	28.28
891.823	27.58
892.256	26.33
892.688	26.98
893.121	23.38
893.553	31.83
893.985	27.63
894.418	23.48
894.85	27.53
895.282	27.53
895.715	25.43
896.147	17.18
896.579	23.63
897.011	28.73
897.444	20.53
897.876	18.53
898.308	23.53
898.74	25.43
899.172	28.78
899.604	25.83
900.036	30.83
900.468	22.48
900.9	30.23
901.332	34.73
901.764	34.48
902.196	33.48
902.628	31.53
903.06	52.03
903.491	54.78
903.923	46.93
904.355	43.23
904.787	48.38
905.218	34.28
905.65	37.88
906.082	34.48
906.513	28.93
906.945	30.18
907.376	30.48
907.808	32.53
908.239	36.78
908.671	35.78
909.102	43.03
909.534	60.98
909.965	116.03
910.397	318.58
910.828	943.08
911.259	578.53
911.691	303.88
912.122	170.18
912.553	88.23
912.984	45.58
913.415	39.53
913.847	38.38
914.278	32.58
914.709	30.58
915.14	28.08
915.571	31.78
916.002	29.93
916.433	30.03
916.864	28.13
917.295	27.18
917.726	33.48
918.157	40.43
918.587	39.43
919.018	36.88
919.449	33.88
919.88	43.48
920.311	65.63
920.741	197.98
921.172	354.88
921.603	168.68
922.033	107.13
922.464	69.23
922.895	41.73
923.325	29.83
923.756	24.48
924.186	36.63
924.617	50.78
925.047	68.63
925.478	62.43
925.908	44.03
926.338	29.38
926.769	26.03
927.199	25.73
927.629	26.13
928.06	31.28
928.49	27.53
928.92	23.88
929.35	20.23
929.78	17.98
930.21	14.13
930.641	15.18
931.071	14.78
931.501	10.63
931.931	10.08
932.361	12.13
932.791	16.88
933.221	18.83
933.651	27.53
934.08	46.93
934.51	24.43
934.94	25.68
935.37	21.43
935.8	12.38
936.229	9.48
936.659	13.08
937.089	21.68
937.519	36.73
937.948	48.13
938.378	27.73
938.807	17.48
939.237	11.38
939.666	11.78
940.096	5.13
940.525	1.43
940.955	10.88
941.384	4.43
941.814	7.03
942.243	7.48
942.672	4.78
943.102	7.63
943.531	0.83
943.96	4.73
944.39	5.73
944.819	7.38
945.248	9.83
945.677	8.43
946.106	6.18
946.535	4.13
946.964	7.18
947.393	6.13
947.822	1.78
948.251	9.43
948.68	11.88
949.109	2.58
949.538	6.13
949.967	7.38
950.396	4.23
950.825	6.18
951.254	4.83
951.682	0.28
952.111	-0.97
952.54	7.28
952.969	3.63
953.397	-1.27
953.826	0.28
954.254	9.63
954.683	7.28
955.112	10.38
955.54	3.48
955.969	5.83
956.397	5.83
956.826	0.83
957.254	4.53
957.682	8.03
958.111	5.53
958.539	7.03
958.967	5.38
959.396	7.23
959.824	7.13
960.252	7.28
960.68	3.43
961.109	5.88
961.537	9.38
961.965	-1.32
962.393	1.13
962.821	10.23
963.249	4.48
963.677	10.28
964.105	54.93
964.533	95.03
964.961	50.03
965.389	27.68
965.817	15.73
966.245	7.13
966.672	5.98
967.1	5.13
967.528	-3.97
967.956	1.73
968.383	9.38
968.811	4.88
969.239	3.98
969.666	4.33
970.094	4.18
970.522	1.03
970.949	1.93
971.377	-0.27
971.804	3.53
972.232	-2.07
972.659	-1.32
973.087	0.23
973.514	0.78
973.941	4.33
974.369	2.13
974.796	2.38
975.223	3.53
975.651	5.78
976.078	1.98
976.505	8.98
976.932	21.03
977.359	29.53
977.786	20.73
978.214	14.93
978.641	3.23
979.068	1.93
979.495	0.28
979.922	5.13
980.349	4.23
980.776	2.58
981.202	2.63
981.629	7.08
982.056	6.58
982.483	-3.77
982.91	7.93
983.337	-1.62
983.763	2.48
984.19	4.08
984.617	2.58
985.043	1.88
985.47	5.38
985.897	4.03
986.323	5.78
986.75	3.38
987.176	4.48
987.603	0.13
988.029	3.88
988.456	5.13
988.882	3.08
989.308	-0.37
989.735	1.53
990.161	5.18
990.587	0.68
991.014	3.58
991.44	7.08
991.866	3.93
992.292	-1.17
992.719	1.53
993.145	8.68
993.571	3.43
993.997	4.43
994.423	6.43
994.849	-4.32
995.275	4.23
995.701	3.48
996.127	-2.42
996.553	0.13
996.979	1.03
997.405	9.13
997.83	4.88
998.256	1.43
998.682	1.53
999.108	4.58
999.534	-5.62
999.959	-1.22
1000.385	5.73
1000.811	4.03
1001.236	0.13
1001.662	-0.72
1002.087	8.48
1002.513	3.58
1002.938	2.08
1003.364	6.68
1003.789	4.58
1004.215	1.63
1004.64	-3.62
1005.066	5.83
1005.491	4.13
1005.916	5.08
1006.342	0.63
1006.767	1.43
1007.192	4.28
1007.617	3.08
1008.042	1.38
1008.468	5.43
1008.893	2.53
1009.318	7.58
1009.743	8.48
1010.168	20.03
1010.593	17.23
1011.018	10.58
1011.443	2.78
1011.868	6.38
1012.293	4.28
1012.718	3.88
1013.143	-1.47
1013.567	5.53
1013.992	4.03
1014.417	1.33
1014.842	0.73
1015.267	1.88
1015.691	5.13
1016.116	0.18
1016.541	0.93
1016.965	0.68
1017.39	3.58
1017.814	-1.77
1018.239	-2.52
1018.663	-7.37
1019.088	-1.02
1019.512	8.83
1019.937	-2.57
1020.361	0.03
1020.785	2.58
1021.21	-2.37
1021.634	-0.87
1022.058	2.78
1022.483	-4.02
1022.907	0.03
1023.331	-0.62
1023.755	2.38
1024.179	1.68
1024.604	0.83
1025.028	-0.27
1025.452	5.38
1025.876	2.03
1026.3	0.33
1026.724	-6.67
1027.148	2.68
1027.572	3.18
1027.996	4.53
1028.42	0.48
1028.843	0.83
1029.267	1.58
1029.691	3.18
1030.115	-0.67
1030.539	-2.07
1030.962	-2.27
1031.386	3.83
1031.81	0.18
1032.233	2.68
1032.657	-3.12
1033.08	0.28
1033.504	-2.97
1033.927	-0.32
1034.351	-0.02
1034.774	-3.32
1035.198	-2.97
1035.621	2.68
1036.045	3.08
1036.468	7.68
1036.891	-0.42
1037.315	0.08
1037.738	-0.67
1038.161	5.23
1038.584	-1.12
1039.008	-4.87
1039.431	0.58
1039.854	-5.37
1040.277	3.43
1040.7	0.88
1041.123	0.48
1041.546	-2.62
1041.969	2.28
1042.392	4.83
1042.815	-7.72
1043.238	-0.97
1043.661	-3.22
1044.084	-3.37
1044.507	-0.47
1044.93	-0.62
1045.352	-2.97
1045.775	2.58
1046.198	4.93
1046.621	5.08
1047.043	-1.72
1047.466	1.28
1047.889	-1.07
1048.311	4.53
1048.734	-1.42
1049.156	-1.22
1049.579	-1.67
1050.001	-4.67
1050.424	0.38
1050.846	-6.67
1051.269	-3.42
1051.691	-0.57
1052.113	-2.17
1052.536	-0.32
1052.958	-6.47
1053.38	0.33
1053.802	-1.97
1054.225	1.68
1054.647	0.98
1055.069	-3.52
1055.491	0.33
1055.913	2.58
1056.335	-6.32
1056.757	-5.07
1057.179	-3.32
1057.601	-1.77
1058.023	2.68
1058.445	-5.87
1058.867	1.28
1059.289	1.13
1059.711	-3.62
1060.133	3.78
1060.555	-2.77
1060.976	2.33
1061.398	2.33
1061.82	1.23
1062.241	0.58
1062.663	-1.27
1063.085	-3.42
1063.506	-6.12
1063.928	1.13
1064.35	3.73
1064.771	-0.27
1065.193	1.38
1065.614	-2.82
1066.035	2.43
1066.457	4.38
1066.878	-3.57
1067.3	-3.97
1067.721	1.13
1068.142	-1.32
1068.564	2.13
1068.985	-2.92
1069.406	-6.67
1069.827	-1.17
1070.248	-2.02
1070.67	-2.67
1071.091	-4.37
1071.512	-0.82
1071.933	-2.12
1072.354	-4.27
1072.775	-0.82
1073.196	0.38
1073.617	-2.02
1074.038	-0.57
1074.459	-1.57
1074.88	-1.67
1075.3	0.78
1075.721	-3.52
1076.142	-6.77
1076.563	-4.72
1076.983	-0.32
1077.404	-1.37
1077.825	-2.12
1078.246	-6.92
1078.666	-4.02
1079.087	-1.72
1079.507	-3.12
1079.928	-1.82
1080.348	-3.32
1080.769	1.78
1081.189	-2.62
1081.61	-4.82
1082.03	3.98
1082.451	4.18
1082.871	-3.77
1083.291	-2.37
1083.711	-0.97
1084.132	-2.32
1084.552	-5.77
1084.972	-6.97
1085.392	-2.77
1085.813	3.18
1086.233	-2.57
1086.653	-0.82
1087.073	-2.27
1087.493	-0.72
1087.913	-4.77
1088.333	-2.67
1088.753	5.03
1089.173	-0.02
1089.593	3.53
1090.013	1.28
1090.433	-4.07
1090.852	1.98
1091.272	-5.37
1091.692	0.13
1092.112	-6.32
1092.531	-3.27
1092.951	-5.77
1093.371	-0.27
1093.79	-3.07
1094.21	-4.52
1094.63	-2.47
1095.049	-1.42
1095.469	-6.62
1095.888	-0.87
1096.308	-6.42
1096.727	-6.07
1097.146	-7.52
1097.566	-2.72
1097.985	-0.52
1098.405	-0.42
1098.824	4.68
1099.243	-5.22
1099.662	-3.17
1100.082	-2.27
1100.501	-2.62
1100.92	3.78
1101.339	1.98
1101.758	2.68
