Data from MSPlasma+Separation6_Subt14_10-12-50-799.txt Node
Date: Fri Jul 21 10:12:50 EDT 2017
User: Ender
Spectrometer: HR+D1039
Trigger mode: 0
Integration Time (sec): 6.430000E-3
Scans to average: 20
Electric dark correction enabled: true
Nonlinearity correction enabled: false
Boxcar width: 0
XAxis mode: Wavelengths
Number of Pixels in Spectrum: 2048
>>>>>Begin Spectral Data<<<<<
187.836	0.6
188.309	0.6
188.782	0.6
189.255	0.65
189.728	2.9
190.201	1.1
190.674	2.4
191.147	-1.45
191.619	-1.6
192.092	-2.85
192.565	-4.15
193.038	4
193.511	1.55
193.984	2.8
194.456	2.1
194.929	-3.6
195.402	-2.85
195.874	-1.55
196.347	1.8
196.82	0.95
197.292	-1.8
197.765	-1
198.237	-3.3
198.71	-4.95
199.182	-2.65
199.655	2.35
200.127	2.75
200.6	-1.7
201.072	-0.65
201.544	-4.75
202.017	-2.85
202.489	-0.1
202.961	-2.6
203.433	-5.45
203.906	-0.3
204.378	-1.25
204.85	1.05
205.322	-0.45
205.794	1.05
206.266	-5.2
206.739	0.55
207.211	2.6
207.683	2
208.155	4.4
208.627	2.05
209.099	1.35
209.57	-0.3
210.042	0.3
210.514	-0.5
210.986	1.25
211.458	0.85
211.93	-2.05
212.402	1.4
212.873	-3.55
213.345	-1.6
213.817	0.95
214.288	-5.2
214.76	1.4
215.232	0.95
215.703	3
216.175	3.85
216.646	-0
217.118	7
217.589	-4.5
218.061	-1.15
218.532	-5.75
219.004	5.6
219.475	-0.85
219.946	1.3
220.418	7.85
220.889	5.75
221.36	7.8
221.832	2.2
222.303	3.15
222.774	2.8
223.245	-0.55
223.717	-1.75
224.188	3.05
224.659	-1.25
225.13	-1.3
225.601	2.85
226.072	2.15
226.543	6.2
227.014	2.9
227.485	2.45
227.956	1.8
228.427	9.1
228.898	6.15
229.369	5.5
229.839	-1.45
230.31	8.75
230.781	3.75
231.252	4.45
231.722	3.1
232.193	9.35
232.664	7
233.135	6.95
233.605	6.65
234.076	10.55
234.546	3.35
235.017	7.15
235.487	5.5
235.958	7.45
236.428	17.15
236.899	9.2
237.369	12.75
237.84	9.85
238.31	13.5
238.78	6.5
239.251	7.3
239.721	7.15
240.191	8.8
240.662	10.85
241.132	10.4
241.602	8.75
242.072	9.65
242.542	7.05
243.013	8.95
243.483	17.6
243.953	11.55
244.423	11.6
244.893	9.2
245.363	13.5
245.833	11.45
246.303	13.05
246.773	15.6
247.243	13.25
247.712	14.8
248.182	17.45
248.652	19.35
249.122	16.15
249.592	15.1
250.061	18.75
250.531	15.4
251.001	15.9
251.471	20.95
251.94	16.7
252.41	20.8
252.879	17.65
253.349	20.15
253.818	15.85
254.288	19.3
254.757	16.95
255.227	25.65
255.696	19.7
256.166	24.45
256.635	25.9
257.105	22.3
257.574	23.15
258.043	22
258.513	21.45
258.982	23.2
259.451	23.9
259.92	22.35
260.389	26.5
260.859	23.25
261.328	29.05
261.797	23.05
262.266	29.75
262.735	27.35
263.204	23.15
263.673	28.2
264.142	22.15
264.611	28.1
265.08	24.95
265.549	25.35
266.018	25.15
266.487	29.35
266.955	26.5
267.424	33.6
267.893	32.2
268.362	33.25
268.83	34.25
269.299	29.5
269.768	29.25
270.236	31.45
270.705	36.85
271.174	32.65
271.642	30.7
272.111	32.6
272.579	33.5
273.048	30.8
273.516	33.4
273.985	36
274.453	35.85
274.922	38.7
275.39	33.5
275.858	38.7
276.327	38.9
276.795	35.8
277.263	37.65
277.731	39.7
278.2	38.5
278.668	37.9
279.136	44.75
279.604	43.05
280.072	39.4
280.54	38.9
281.008	45.85
281.477	41.55
281.945	43
282.413	44.6
282.881	49
283.348	43.35
283.816	42.55
284.284	43.45
284.752	46.7
285.22	50.5
285.688	47.1
286.156	51.2
286.623	46.8
287.091	43.95
287.559	51.15
288.026	50.95
288.494	49.25
288.962	49.85
289.429	53.3
289.897	48.35
290.364	49.05
290.832	55.85
291.3	52
291.767	49.85
292.234	60.15
292.702	54.5
293.169	54.45
293.637	58.55
294.104	59.5
294.571	59.8
295.039	61.3
295.506	57.55
295.973	61
296.44	58.1
296.908	65.1
297.375	61.15
297.842	62.7
298.309	61.75
298.776	60
299.243	62.9
299.71	65.25
300.177	65.55
300.644	68.9
301.111	64.85
301.578	72
302.045	60.5
302.512	72
302.979	72
303.446	73.7
303.913	71
304.379	76.05
304.846	72.9
305.313	76.9
305.78	77.75
306.246	78.2
306.713	79.9
307.18	84.85
307.646	78.65
308.113	82.9
308.579	86.55
309.046	81.9
309.512	83.9
309.979	88.4
310.445	81.35
310.912	85.65
311.378	96.05
311.845	90.3
312.311	91.8
312.777	89.15
313.244	93.25
313.71	93.3
314.176	101.85
314.642	99.35
315.109	96.55
315.575	92.15
316.041	97.1
316.507	93.85
316.973	99.7
317.439	100.55
317.905	100.55
318.371	97.15
318.837	102.55
319.303	101.45
319.769	99.75
320.235	106.55
320.701	101.9
321.167	100.55
321.633	107.9
322.099	100.35
322.564	103.25
323.03	107.9
323.496	110.15
323.962	112.85
324.427	110.9
324.893	108.3
325.359	116.5
325.824	116.9
326.29	122.6
326.755	114.6
327.221	114.5
327.686	125.9
328.152	121.75
328.617	124.2
329.083	129.05
329.548	126.5
330.014	126.6
330.479	126.8
330.944	130.75
331.41	131.4
331.875	127.35
332.34	129.6
332.805	134.4
333.271	131.35
333.736	133.25
334.201	134.2
334.666	142.4
335.131	137.3
335.596	141.25
336.061	139.4
336.526	138.35
336.991	135.25
337.456	128.85
337.921	131.25
338.386	139.45
338.851	134.9
339.316	135.75
339.781	130.5
340.246	137.3
340.711	139.05
341.175	142
341.64	148.55
342.105	154.9
342.569	157.4
343.034	149.2
343.499	153.55
343.963	163.35
344.428	159.55
344.893	159.25
345.357	166.15
345.822	166.1
346.286	169.35
346.751	168.9
347.215	175.65
347.679	182.2
348.144	188.95
348.608	189.55
349.073	187.05
349.537	193.2
350.001	195.25
350.465	196.65
350.93	195.25
351.394	199.75
351.858	201.6
352.322	204
352.786	197.15
353.25	203.65
353.715	202.35
354.179	217.75
354.643	219.75
355.107	219.95
355.571	211
356.035	217.25
356.498	220.5
356.962	211.85
357.426	212.9
357.89	212.3
358.354	201.65
358.818	206.4
359.281	209.65
359.745	213.65
360.209	210.75
360.673	209.55
361.136	211.8
361.6	213.85
362.064	215.05
362.527	228.25
362.991	222.25
363.454	218.4
363.918	231.25
364.381	227.15
364.845	227.1
365.308	220.45
365.772	227.3
366.235	228.95
366.698	222.9
367.162	227.4
367.625	230.4
368.088	236.8
368.552	237.6
369.015	237.7
369.478	240.25
369.941	239
370.404	246.65
370.867	238.85
371.331	244.8
371.794	246.45
372.257	251.3
372.72	247.75
373.183	252.75
373.646	252.2
374.109	249.7
374.572	249.6
375.035	255.5
375.497	253.8
375.96	264.25
376.423	265.55
376.886	269.15
377.349	272.15
377.811	277.15
378.274	275.75
378.737	261.7
379.199	269.95
379.662	267.95
380.125	278.45
380.587	285.8
381.05	288
381.512	287.25
381.975	298.5
382.437	304.3
382.9	302.45
383.362	303.65
383.825	303.45
384.287	309.65
384.75	306.3
385.212	315.5
385.674	309.2
386.136	309.85
386.599	319.25
387.061	313.85
387.523	317.4
387.985	316.1
388.447	324.15
388.91	324.4
389.372	329.3
389.834	319.3
390.296	313.2
390.758	319.1
391.22	317.4
391.682	319.35
392.144	318.55
392.606	326.2
393.068	332.85
393.529	357.15
393.991	361.45
394.453	340.85
394.915	329.6
395.377	323.35
395.838	326.65
396.3	322.45
396.762	333.2
397.224	332.7
397.685	335
398.147	335.2
398.608	339.7
399.07	348.05
399.531	353.25
399.993	357.05
400.454	357.65
400.916	357.1
401.377	369.95
401.839	369.35
402.3	368.7
402.762	385
403.223	417.25
403.684	412.4
404.145	390.7
404.607	379.75
405.068	371.65
405.529	375.75
405.99	378.05
406.451	384.15
406.913	376.25
407.374	377.25
407.835	382.35
408.296	386.5
408.757	387.9
409.218	396.55
409.679	406.45
410.14	407.85
410.601	427.85
411.062	431.8
411.522	435.15
411.983	436.45
412.444	444.95
412.905	460.15
413.366	481
413.826	501.45
414.287	581.85
414.748	703.25
415.208	718.4
415.669	589.4
416.13	534
416.59	520.8
417.051	549.15
417.511	576.35
417.972	628.85
418.432	677.65
418.893	756.45
419.353	727.95
419.814	537.15
420.274	475.35
420.734	462.4
421.195	477.65
421.655	475.65
422.115	484.4
422.576	484.9
423.036	487.55
423.496	506.2
423.956	520.65
424.416	569.4
424.876	632.25
425.336	624
425.797	612.15
426.257	594.2
426.717	548.3
427.177	495.5
427.637	488
428.097	508.25
428.556	510.85
429.016	553.45
429.476	537.05
429.936	509.85
430.396	494.25
430.856	507.35
431.315	514.75
431.775	555.8
432.235	613.7
432.694	618.7
433.154	567.2
433.614	555.6
434.073	537.5
434.533	487.3
434.993	487.25
435.452	499.7
435.912	493.1
436.371	504.5
436.83	506.15
437.29	504.9
437.749	496.9
438.209	502.15
438.668	515.4
439.127	522
439.587	523.8
440.046	515.45
440.505	523.05
440.964	534.65
441.424	550.95
441.883	564.4
442.342	535.05
442.801	519.35
443.26	525
443.719	522.6
444.178	518.55
444.637	531.1
445.096	534.55
445.555	544.4
446.014	544.3
446.473	537.1
446.932	534.15
447.391	546.05
447.849	561.2
448.308	547.85
448.767	557.55
449.226	560.35
449.685	572.7
450.143	598.05
450.602	601.8
451.061	560.15
451.519	565
451.978	556.3
452.436	548.8
452.895	561
453.353	552.05
453.812	552.95
454.27	553.05
454.729	551.8
455.187	561.15
455.646	566.25
456.104	557.45
456.562	566.75
457.021	577.05
457.479	553.15
457.937	577.95
458.395	588.4
458.854	580.35
459.312	575.05
459.77	578.1
460.228	583.1
460.686	592.5
461.144	596.2
461.602	591.35
462.06	593.4
462.518	602.15
462.976	591.65
463.434	604.7
463.892	610.6
464.35	624.75
464.808	626.4
465.266	644.35
465.724	647.95
466.181	649.65
466.639	644.4
467.097	663.25
467.555	687.05
468.012	685.4
468.47	693.9
468.928	709.05
469.385	734.25
469.843	734.7
470.3	722.8
470.758	744.9
471.215	752.05
471.673	769.65
472.13	790.1
472.588	795.6
473.045	789.85
473.503	801.2
473.96	831.8
474.417	840.5
474.875	863.75
475.332	884.1
475.789	897.7
476.246	905.8
476.704	926.85
477.161	932.5
477.618	933.9
478.075	958.2
478.532	982.55
478.989	1013.8
479.446	1063.6
479.903	1041.55
480.36	1074.35
480.817	1065.45
481.274	1068.05
481.731	1106.55
482.188	1125.55
482.645	1157.6
483.102	1169.6
483.558	1193.15
484.015	1215.3
484.472	1213.1
484.929	1231.35
485.385	1230.2
485.842	1227.7
486.299	1234.9
486.755	1230.25
487.212	1213.6
487.668	1182.9
488.125	1187.9
488.582	1161.45
489.038	1163.05
489.494	1180.3
489.951	1184.9
490.407	1187
490.864	1195.1
491.32	1195.35
491.776	1199.7
492.233	1208.8
492.689	1211.2
493.145	1198.4
493.602	1189.8
494.058	1208.15
494.514	1218.8
494.97	1218.1
495.426	1240.15
495.882	1243.25
496.338	1248.35
496.794	1256.15
497.251	1260.6
497.707	1278.35
498.163	1283.5
498.618	1288.8
499.074	1290.35
499.53	1296.65
499.986	1307.8
500.442	1300.95
500.898	1286.85
501.354	1295.45
501.809	1313.5
502.265	1306.3
502.721	1313.9
503.177	1316.1
503.632	1331.6
504.088	1339.35
504.543	1353.4
504.999	1359.7
505.455	1366.1
505.91	1336.55
506.366	1344.1
506.821	1359.25
507.277	1352.9
507.732	1352.35
508.187	1347.25
508.643	1361.15
509.098	1363
509.553	1382.7
510.009	1394.6
510.464	1427.9
510.919	1439.95
511.375	1452.1
511.83	1464.5
512.285	1486.05
512.74	1530.4
513.195	1532.7
513.65	1561.8
514.105	1592.25
514.56	1594
515.015	1624.55
515.47	1634.65
515.925	1615.9
516.38	1616
516.835	1621.55
517.29	1613.6
517.745	1624.55
518.2	1588.8
518.655	1556.35
519.109	1524.25
519.564	1511.9
520.019	1493.15
520.474	1490.85
520.928	1481.25
521.383	1463.65
521.838	1461.9
522.292	1455.65
522.747	1434.7
523.201	1436.5
523.656	1410.1
524.11	1405.8
524.565	1402.2
525.019	1409.65
525.474	1407.05
525.928	1383.3
526.382	1387.65
526.837	1387.9
527.291	1394.7
527.745	1391.7
528.2	1385.4
528.654	1367.4
529.108	1373.8
529.562	1368.55
530.016	1372.5
530.47	1376.75
530.925	1373.2
531.379	1372.05
531.833	1383.55
532.287	1368.15
532.741	1381.4
533.195	1371.55
533.649	1384.5
534.103	1372.7
534.556	1371.8
535.01	1374.7
535.464	1367
535.918	1374.85
536.372	1380.6
536.826	1369.1
537.279	1365.8
537.733	1367.6
538.187	1385.3
538.64	1371.3
539.094	1377.35
539.548	1406.05
540.001	1406.2
540.455	1407.9
540.908	1411.3
541.362	1433.6
541.815	1439.3
542.269	1469.5
542.722	1471.2
543.175	1485.25
543.629	1497.65
544.082	1514.15
544.536	1518.4
544.989	1521.35
545.442	1542.9
545.895	1541.1
546.349	1539.9
546.802	1534.9
547.255	1542.4
547.708	1551.3
548.161	1570.75
548.614	1579.45
549.067	1580.1
549.52	1564.9
549.973	1539.7
550.426	1536.3
550.879	1528.8
551.332	1534.6
551.785	1538.7
552.238	1558.5
552.691	1545.8
553.144	1572.95
553.596	1608.6
554.049	1623.05
554.502	1669.5
554.955	1697.65
555.407	1730.55
555.86	1693.35
556.313	1673.25
556.765	1656.95
557.218	1640.7
557.67	1624.5
558.123	1615.15
558.576	1606.6
559.028	1600.6
559.48	1631.55
559.933	1633.5
560.385	1571.2
560.838	1505.25
561.29	1456.85
561.742	1450.9
562.195	1414.3
562.647	1401.6
563.099	1399.65
563.551	1384.5
564.004	1407.95
564.456	1390.85
564.908	1352.7
565.36	1327
565.812	1292.65
566.264	1291.4
566.716	1283.85
567.168	1257.1
567.62	1250.45
568.072	1244.15
568.524	1230.45
568.976	1226.2
569.428	1224.15
569.88	1204.05
570.332	1223.4
570.784	1231.3
571.235	1217.65
571.687	1227.25
572.139	1228.7
572.59	1246.05
573.042	1248.7
573.494	1255.75
573.945	1235.75
574.397	1205.8
574.849	1195.65
575.3	1197.65
575.752	1184.65
576.203	1174.95
576.655	1178.8
577.106	1157.4
577.557	1153.7
578.009	1142.3
578.46	1157.7
578.912	1133.7
579.363	1148
579.814	1149.5
580.265	1142.55
580.717	1150.85
581.168	1142.4
581.619	1147
582.07	1166.3
582.521	1154.3
582.972	1139.8
583.423	1147.65
583.875	1169.55
584.326	1170.45
584.777	1188.5
585.227	1208.85
585.678	1221.2
586.129	1231.7
586.58	1250.2
587.031	1278.25
587.482	1306.1
587.933	1325.4
588.384	1322.15
588.834	1315.9
589.285	1309.9
589.736	1314.15
590.186	1318.8
590.637	1296.75
591.088	1262.65
591.538	1230.75
591.989	1224.25
592.439	1208.45
592.89	1195.85
593.34	1189.6
593.791	1177.05
594.241	1167.3
594.692	1171.05
595.142	1151.2
595.593	1168.3
596.043	1161.6
596.493	1180
596.943	1182.05
597.394	1205.55
597.844	1231.9
598.294	1261.15
598.744	1303.75
599.195	1369.1
599.645	1447.35
600.095	1526.9
600.545	1610.5
600.995	1699.25
601.445	1764.35
601.895	1852.5
602.345	1923.35
602.795	1889.45
603.245	1803.65
603.695	1689.85
604.145	1595.5
604.594	1506.7
605.044	1421.55
605.494	1324.8
605.944	1241.5
606.393	1211.45
606.843	1191.75
607.293	1191.35
607.743	1188.4
608.192	1199.1
608.642	1196.45
609.091	1199.2
609.541	1201.75
609.99	1195
610.44	1166.95
610.889	1149.45
611.339	1132.6
611.788	1117.75
612.238	1130.45
612.687	1126.65
613.136	1129
613.586	1156.35
614.035	1139.55
614.484	1155.2
614.933	1146.5
615.383	1128.5
615.832	1100.6
616.281	1084.85
616.73	1070.15
617.179	1038.9
617.628	1021.3
618.077	1005.1
618.526	991.45
618.975	984.55
619.424	965.5
619.873	971.2
620.322	962.6
620.771	958.05
621.22	936.75
621.669	919.5
622.118	911.15
622.567	894.35
623.015	874.9
623.464	871.45
623.913	868.85
624.361	867.35
624.81	862.1
625.259	866.85
625.707	866.2
626.156	871.5
626.604	881.95
627.053	891.05
627.501	885.55
627.95	892.65
628.398	908.55
628.847	887
629.295	886.3
629.744	881.3
630.192	864.4
630.64	850.05
631.089	837.05
631.537	803.75
631.985	804.25
632.433	795.6
632.881	790.05
633.33	789.5
633.778	783.55
634.226	802.3
634.674	806.55
635.122	803.9
635.57	822.7
636.018	838.7
636.466	828.5
636.914	826.9
637.362	847.85
637.81	850.6
638.258	885.75
638.705	887.85
639.153	923.65
639.601	930.5
640.049	943.9
640.497	981.25
640.944	1000.9
641.392	946.7
641.84	871
642.287	812.7
642.735	795.55
643.182	774.2
643.63	766.65
644.078	754
644.525	757.95
644.973	757
645.42	771.05
645.867	767.45
646.315	767.75
646.762	773.65
647.21	776.25
647.657	780.65
648.104	771.75
648.551	736.6
648.999	736.85
649.446	729.5
649.893	735.85
650.34	736.95
650.787	758.05
651.234	780.05
651.682	844.75
652.129	922.55
652.576	1049.2
653.023	1218.2
653.47	1302.5
653.917	1361.25
654.363	1410.6
654.81	1472.35
655.257	1504.25
655.704	1192.6
656.151	930.15
656.598	816.35
657.044	756.25
657.491	736.35
657.938	724.5
658.385	701.3
658.831	704.25
659.278	698.05
659.724	688.45
660.171	687.05
660.618	667.2
661.064	654.35
661.511	660.35
661.957	661.45
662.404	671.3
662.85	675
663.296	687.35
663.743	680.2
664.189	688.4
664.635	683.45
665.082	679.3
665.528	679.05
665.974	664.95
666.42	661.45
666.867	648.95
667.313	626.75
667.759	614.25
668.205	612.4
668.651	622.1
669.097	619.25
669.543	627.8
669.989	640
670.435	636.35
670.881	642.65
671.327	675.85
671.773	731.25
672.219	790.05
672.665	853.45
673.11	888
673.556	910.65
674.002	940.35
674.448	962.8
674.893	802.05
675.339	693.7
675.785	636
676.23	598.2
676.676	577
677.122	564.45
677.567	546.35
678.013	521.8
678.458	525.05
678.904	524.6
679.349	516.45
679.794	515.05
680.24	520.4
680.685	511.05
681.131	515.3
681.576	518.5
682.021	519.9
682.466	532.25
682.912	531.95
683.357	562.6
683.802	612.05
684.247	675.7
684.692	723.3
685.137	766.55
685.583	777.05
686.028	838.65
686.473	787.5
686.918	660.2
687.363	605.7
687.807	569.45
688.252	544.95
688.697	522
689.142	501.65
689.587	504.6
690.032	514.4
690.477	529.55
690.921	570.35
691.366	607
691.811	624.2
692.255	688.45
692.7	840.65
693.145	1204.4
693.589	1850.75
694.034	2243.45
694.478	2439.5
694.923	2285.9
695.367	3327.3
695.812	1974.1
696.256	788.35
696.701	565.8
697.145	520.65
697.59	496.9
698.034	488.1
698.478	492.55
698.922	495.05
699.367	499.45
699.811	527.25
700.255	583.75
700.699	648.35
701.143	700.35
701.588	741.65
702.032	782.25
702.476	801.2
702.92	850.45
703.364	1097.95
703.808	1684.4
704.252	2147.2
704.696	2326.25
705.14	2249.2
705.584	3159.7
706.027	1711.5
706.471	828.95
706.915	604.4
707.359	528
707.803	487.15
708.246	476.4
708.69	469.35
709.134	464.5
709.577	464.75
710.021	467.55
710.465	469.15
710.908	463.05
711.352	483.6
711.795	534.95
712.239	577.05
712.682	595.75
713.126	584.45
713.569	670.55
714.012	536.15
714.456	462.5
714.899	436.8
715.342	413.1
715.786	398.05
716.229	388.35
716.672	379.1
717.115	374
717.558	378.55
718.002	393.95
718.445	410.55
718.888	438.2
719.331	453.25
719.774	454.95
720.217	443.3
720.66	417.5
721.103	394.85
721.546	371.15
721.989	363.7
722.432	355.5
722.874	351.4
723.317	361.55
723.76	390.65
724.203	484.9
724.645	670.65
725.088	791.4
725.531	785.95
725.974	885.95
726.416	785.25
726.859	462.05
727.301	374.1
727.744	355.35
728.187	358.15
728.629	364.9
729.071	392.45
729.514	406.55
729.956	426.65
730.399	437.85
730.841	430.2
731.283	417.15
731.726	402.1
732.168	408
732.61	440.4
733.053	463.6
733.495	524.8
733.937	594.7
734.379	699.05
734.821	878.9
735.263	1407.75
735.705	2534.6
736.148	3802.1
736.59	3907.1
737.032	4369.25
737.474	3561.6
737.916	1324.35
738.357	673.35
738.799	510.4
739.241	475.35
739.683	471.65
740.125	481.55
740.567	484.9
741.008	512.55
741.45	538.9
741.892	568.1
742.334	577.65
742.775	584.45
743.217	548.75
743.658	452.85
744.1	462.75
744.542	521.45
744.983	557.25
745.425	582.45
745.866	569.25
746.307	482.9
746.749	514.85
747.19	751.3
747.632	1469.35
748.073	2776.5
748.514	3930.25
748.956	5348.05
749.397	6308.6
749.838	4339.4
750.279	4260
750.72	2144.4
751.162	882.95
751.603	487.9
752.044	392.55
752.485	344.25
752.926	320.85
753.367	303.8
753.808	300.95
754.249	291.9
754.69	290
755.131	281.55
755.572	284.35
756.013	284.55
756.453	290.2
756.894	293.3
757.335	291.95
757.776	296.85
758.216	307.9
758.657	331.2
759.098	357.05
759.538	443.7
759.979	638.9
760.42	1288.05
760.86	3287.45
761.301	7059.85
761.741	8592.2
762.182	10317.7
762.622	6528.9
763.063	2253.15
763.503	900.9
763.943	508.95
764.384	405.7
764.824	343.7
765.264	318.45
765.705	308.8
766.145	287.4
766.585	278.55
767.025	264.05
767.465	263.4
767.906	272.9
768.346	290.3
768.786	340.5
769.226	500.6
769.666	1016.9
770.106	2310.25
770.546	3408.5
770.986	4032.25
771.426	3046
771.866	1228.15
772.306	534.5
772.745	322.6
773.185	266.5
773.625	254.85
774.065	264.5
774.505	370.55
774.944	651.6
775.384	953
775.824	1104.55
776.263	930.15
776.703	484.65
777.142	282.95
777.582	209.85
778.021	201.4
778.461	193.45
778.9	188.6
779.34	182.25
779.779	176.95
780.219	175.4
780.658	169.05
781.097	172.2
781.537	165.7
781.976	170.1
782.415	164.35
782.855	166.95
783.294	164.8
783.733	164.7
784.172	163.9
784.611	165.8
785.05	165.9
785.489	174.6
785.928	176
786.367	184.9
786.806	198.5
787.245	213.8
787.684	223.15
788.123	213.8
788.562	206.85
789.001	200.9
789.44	190.6
789.879	191
790.317	194.85
790.756	203.9
791.195	233.75
791.634	323.15
792.072	583.15
792.511	1464.85
792.95	2776.9
793.388	3519.6
793.827	2283.25
794.265	1010.4
794.704	469.7
795.142	284.4
795.581	227.15
796.019	206.85
796.458	210.5
796.896	216.25
797.334	249.35
797.773	340.15
798.211	647.95
798.649	1385.25
799.087	2369
799.526	3374.7
799.964	3556.45
800.402	2473.3
800.84	1081.9
801.278	511.1
801.716	308.15
802.154	250.15
802.592	233.65
803.03	228.05
803.468	238.4
803.906	240.95
804.344	235.9
804.782	222.2
805.22	227.15
805.658	234.05
806.096	252.5
806.533	273.05
806.971	360.95
807.409	534.9
807.847	1055.45
808.284	2733.5
808.722	4980.5
809.16	6991.35
809.597	9370.1
810.035	12055.65
810.472	7882.7
810.91	3219.95
811.347	1429
811.785	664.35
812.222	415.85
812.66	321.5
813.097	271.1
813.535	234.15
813.972	207.9
814.409	197.95
814.846	186.55
815.284	174.5
815.721	179.05
816.158	189.25
816.595	250.5
817.032	321.95
817.47	295.8
817.907	216.7
818.344	189.25
818.781	178.5
819.218	221.8
819.655	330.8
820.092	447.5
820.529	404.2
820.966	320.85
821.403	217.2
821.839	189.05
822.276	204.65
822.713	246.55
823.15	237.95
823.587	251.25
824.023	441.8
824.46	1143.55
824.897	2068.6
825.333	1651.55
825.77	729.25
826.206	366.15
826.643	215.3
827.08	161.6
827.516	136.5
827.953	127.3
828.389	119.55
828.825	117.5
829.262	110.45
829.698	107.95
830.135	100.8
830.571	104.2
831.007	103.5
831.443	100.8
831.88	98.25
832.316	110.8
832.752	106.65
833.188	104.25
833.624	107.55
834.06	107.45
834.497	113.15
834.933	118.55
835.369	127.1
835.805	134.75
836.241	134.8
836.677	154.1
837.112	175.45
837.548	218.75
837.984	328.15
838.42	701.25
838.856	1999.45
839.292	4127.95
839.727	3084.45
840.163	1979.15
840.599	3001.9
841.034	4839.25
841.47	2422.85
841.906	1121.95
842.341	585.05
842.777	411.15
843.212	421.95
843.648	259.45
844.083	179.7
844.519	135
844.954	112.25
845.39	101.85
845.825	102.05
846.261	98.6
846.696	94.35
847.131	88.5
847.566	90.6
848.002	91.8
848.437	97.5
848.872	98.8
849.307	132.05
849.742	244.25
850.177	655.6
850.613	1460.25
851.048	1066.45
851.483	467.1
851.918	253.45
852.353	135.7
852.788	92.7
853.223	86.8
853.657	79.35
854.092	75.55
854.527	71.2
854.962	79.3
855.397	86.8
855.832	75.85
856.266	69.95
856.701	65.2
857.136	70.65
857.57	85.95
858.005	105.5
858.44	85.55
858.874	82
859.309	85.55
859.743	84.45
860.178	79.65
860.612	93.25
861.047	119.2
861.481	169.35
861.915	113.55
862.35	82.2
862.784	67.5
863.218	63
863.653	71.45
864.087	83.8
864.521	107.3
864.955	192
865.39	339.15
865.824	239.1
866.258	298.25
866.692	460
867.126	332.45
867.56	171.85
867.994	112.95
868.428	91.4
868.862	121.3
869.296	103.3
869.73	131.2
870.164	109.35
870.598	99.65
871.031	71.2
871.465	67.5
871.899	50.75
872.333	44.65
872.766	49.75
873.2	52.4
873.634	47.4
874.067	51.7
874.501	53.2
874.935	54.25
875.368	47.5
875.802	49
876.235	42.4
876.669	39.8
877.102	36.45
877.535	39.15
877.969	34.65
878.402	39.65
878.836	40.65
879.269	43.75
879.702	35.7
880.135	40.75
880.569	41.8
881.002	38.05
881.435	36.7
881.868	36.55
882.301	33.95
882.734	33.8
883.167	39.1
883.601	36.55
884.034	32.45
884.467	27.1
884.899	30.6
885.332	27.6
885.765	33.45
886.198	27.2
886.631	29.9
887.064	31.8
887.497	28.25
887.929	35.4
888.362	30.55
888.795	30.2
889.228	35.3
889.66	29.85
890.093	32.6
890.526	31.25
890.958	29.2
891.391	31.55
891.823	23.7
892.256	31.75
892.688	37.2
893.121	23.7
893.553	32.25
893.985	25.4
894.418	25.75
894.85	35.2
895.282	30.15
895.715	24.15
896.147	22.25
896.579	24.25
897.011	28.95
897.444	28.75
897.876	24.4
898.308	27.15
898.74	27.7
899.172	31.6
899.604	30.6
900.036	26.75
900.468	22.55
900.9	28.35
901.332	37.95
901.764	43.1
902.196	34.3
902.628	36.8
903.06	53.25
903.491	59.3
903.923	47.45
904.355	47.2
904.787	50.05
905.218	35.85
905.65	35.55
906.082	37.2
906.513	31.25
906.945	35.6
907.376	31.3
907.808	35.5
908.239	39.95
908.671	39.35
909.102	49.1
909.534	62.55
909.965	123.2
910.397	327.6
910.828	997.9
911.259	608.5
911.691	321.5
912.122	181.35
912.553	90.75
912.984	46.6
913.415	40.15
913.847	35.05
914.278	36.85
914.709	29.75
915.14	26.3
915.571	33.75
916.002	30
916.433	30.85
916.864	25.15
917.295	30.65
917.726	36.7
918.157	42
918.587	41.35
919.018	42.9
919.449	35.95
919.88	44.65
920.311	70.45
920.741	203.8
921.172	366.25
921.603	178
922.033	106.6
922.464	71.25
922.895	44.1
923.325	24.75
923.756	25.25
924.186	36.85
924.617	52.2
925.047	74.2
925.478	63.15
925.908	48.7
926.338	32.05
926.769	26.65
927.199	24.45
927.629	25
928.06	30.9
928.49	28.7
928.92	19.75
929.35	21.25
929.78	17.25
930.21	16.3
930.641	12.35
931.071	17.3
931.501	11.9
931.931	13.65
932.361	15.15
932.791	23.75
933.221	18.85
933.651	27.4
934.08	48.1
934.51	27.05
934.94	19.35
935.37	17.1
935.8	13.9
936.229	11.3
936.659	16.85
937.089	24.3
937.519	37.2
937.948	51.45
938.378	24.7
938.807	16.8
939.237	9.45
939.666	12.2
940.096	7.15
940.525	1.15
940.955	9.3
941.384	9
941.814	6
942.243	10
942.672	5.2
943.102	6.8
943.531	7
943.96	5.7
944.39	8.2
944.819	9.2
945.248	7.55
945.677	6
946.106	9.15
946.535	9.9
946.964	6.35
947.393	4.35
947.822	2.8
948.251	4.65
948.68	8.85
949.109	8.7
949.538	4.95
949.967	5.35
950.396	7.25
950.825	3.85
951.254	6
951.682	0.75
952.111	-2.6
952.54	7.5
952.969	6.5
953.397	3.5
953.826	-0.1
954.254	5.3
954.683	7.15
955.112	8.45
955.54	2.2
955.969	3.7
956.397	7
956.826	5
957.254	2.95
957.682	5
958.111	2.3
958.539	4.3
958.967	5.7
959.396	10.2
959.824	6.15
960.252	5.1
960.68	1.85
961.109	9.25
961.537	8.95
961.965	1.1
962.393	7.3
962.821	9
963.249	5.95
963.677	6.65
964.105	59.5
964.533	106.55
964.961	49.65
965.389	26.95
965.817	15.75
966.245	11.05
966.672	6.5
967.1	6.05
967.528	-1.25
967.956	4.65
968.383	2.2
968.811	1.1
969.239	0.8
969.666	2.15
970.094	2.95
970.522	1.2
970.949	4.05
971.377	-4.85
971.804	5.15
972.232	2.2
972.659	3.6
973.087	8.25
973.514	1.5
973.941	2.55
974.369	-2.35
974.796	-0.7
975.223	-0.8
975.651	4.15
976.078	1.55
976.505	8.85
976.932	24.7
977.359	30.5
977.786	24.95
978.214	11.5
978.641	1.3
979.068	4.35
979.495	4.75
979.922	5.35
980.349	2.35
980.776	6.65
981.202	4.75
981.629	7.1
982.056	0.65
982.483	-1.95
982.91	7.85
983.337	3.05
983.763	1.75
984.19	5.35
984.617	0.5
985.043	2.1
985.47	5.55
985.897	1.85
986.323	6.6
986.75	0.15
987.176	3.25
987.603	3.8
988.029	5.6
988.456	6.65
988.882	-1.6
989.308	0.45
989.735	2.9
990.161	-0.3
990.587	-1.75
991.014	0.25
991.44	3.45
991.866	2.15
992.292	1.05
992.719	3.5
993.145	5
993.571	1.1
993.997	5
994.423	7.35
994.849	-5
995.275	2.25
995.701	4.1
996.127	-3.25
996.553	4.85
996.979	-4.55
997.405	5.5
997.83	1.1
998.256	1.15
998.682	3.85
999.108	4.7
999.534	-5.25
999.959	1.75
1000.385	4.6
1000.811	-1.1
1001.236	-2.85
1001.662	-2.2
1002.087	-0.75
1002.513	0.9
1002.938	2.35
1003.364	-3.75
1003.789	2.35
1004.215	-2.15
1004.64	0.85
1005.066	5
1005.491	4.5
1005.916	2.5
1006.342	4.6
1006.767	1.8
1007.192	6.1
1007.617	1.65
1008.042	1.15
1008.468	1
1008.893	1.35
1009.318	4.7
1009.743	6.5
1010.168	18.05
1010.593	17.4
1011.018	8
1011.443	3.1
1011.868	6.6
1012.293	3.95
1012.718	-2.05
1013.143	3.35
1013.567	4.95
1013.992	3.05
1014.417	1
1014.842	2.55
1015.267	3.25
1015.691	7.15
1016.116	-1.8
1016.541	2.8
1016.965	1.2
1017.39	1.7
1017.814	-5.2
1018.239	0.3
1018.663	-1.6
1019.088	-2.4
1019.512	-0.65
1019.937	-6.5
1020.361	-0.5
1020.785	-0.95
1021.21	-1.9
1021.634	-2.85
1022.058	4.35
1022.483	-4.8
1022.907	-3.65
1023.331	0.9
1023.755	2.85
1024.179	1.1
1024.604	-3.2
1025.028	5.25
1025.452	3.2
1025.876	4.35
1026.3	3
1026.724	-2.55
1027.148	2.9
1027.572	-0.7
1027.996	4.75
1028.42	3.4
1028.843	-1.35
1029.267	-2.5
1029.691	0.8
1030.115	-3.5
1030.539	-1.2
1030.962	-2
1031.386	-1.45
1031.81	2.25
1032.233	1
1032.657	-2.45
1033.08	1.8
1033.504	0.95
1033.927	0.15
1034.351	-1.3
1034.774	-0.5
1035.198	-5.15
1035.621	0.45
1036.045	-3.1
1036.468	3.75
1036.891	0.45
1037.315	6.35
1037.738	-0.8
1038.161	-0.2
1038.584	4.95
1039.008	0.05
1039.431	-1.05
1039.854	-6.35
1040.277	2.95
1040.7	-0.45
1041.123	-0.05
1041.546	1.9
1041.969	6.8
1042.392	1.65
1042.815	-5.8
1043.238	-1.05
1043.661	-0.7
1044.084	-3.4
1044.507	-1.9
1044.93	0.25
1045.352	-0.05
1045.775	0.45
1046.198	3.7
1046.621	5.05
1047.043	-4
1047.466	-2.7
1047.889	-0
1048.311	4.1
1048.734	-0.35
1049.156	2.05
1049.579	-3.05
1050.001	-2.45
1050.424	-1.65
1050.846	-3.25
1051.269	-3.9
1051.691	-0.7
1052.113	0.05
1052.536	-1.3
1052.958	0.55
1053.38	-0.5
1053.802	-0.65
1054.225	2.65
1054.647	-0.75
1055.069	-2.15
1055.491	1.3
1055.913	1.7
1056.335	-5.2
1056.757	-2.85
1057.179	-1.7
1057.601	-1.5
1058.023	5.05
1058.445	-0.55
1058.867	5.6
1059.289	-0.85
1059.711	-0.2
1060.133	-0.05
1060.555	2.9
1060.976	3.25
1061.398	1.45
1061.82	4.1
1062.241	-2.7
1062.663	-1.55
1063.085	-6.35
1063.506	-6.95
1063.928	-4.2
1064.35	1.9
1064.771	1.15
1065.193	-1.25
1065.614	-4.1
1066.035	-0.8
1066.457	1.35
1066.878	-1.15
1067.3	-3.1
1067.721	5.05
1068.142	-1.6
1068.564	2.3
1068.985	-3.3
1069.406	-4
1069.827	0.4
1070.248	-2.1
1070.67	-3.25
1071.091	-8.8
1071.512	-3.55
1071.933	-4.15
1072.354	-8.35
1072.775	1.15
1073.196	2.8
1073.617	-2.35
1074.038	-0.5
1074.459	-0.55
1074.88	-4.9
1075.3	2.25
1075.721	0.95
1076.142	-4.7
1076.563	-4.6
1076.983	2.55
1077.404	-10.05
1077.825	-0.3
1078.246	-7.25
1078.666	-4.75
1079.087	-5.1
1079.507	-8
1079.928	-2
1080.348	-0.55
1080.769	-4.7
1081.189	-3.55
1081.61	-6.5
1082.03	1.1
1082.451	-3.25
1082.871	-4.5
1083.291	0.5
1083.711	0.4
1084.132	-3.75
1084.552	-3.95
1084.972	-5.75
1085.392	-2.55
1085.813	0.8
1086.233	-3.3
1086.653	1.9
1087.073	-6.95
1087.493	-3.9
1087.913	-9.1
1088.333	-4.8
1088.753	-1.8
1089.173	4.5
1089.593	3.7
1090.013	-1.15
1090.433	-7.4
1090.852	2.05
1091.272	-5.35
1091.692	-2
1092.112	-4.35
1092.531	-6.25
1092.951	-2.1
1093.371	0.8
1093.79	0.05
1094.21	-3.15
1094.63	-2.25
1095.049	-3.45
1095.469	-9.65
1095.888	0.25
1096.308	-1.25
1096.727	-6.3
1097.146	-0.55
1097.566	0.1
1097.985	-1.15
1098.405	-0.5
1098.824	2
1099.243	-0.3
1099.662	-3.3
1100.082	-0.45
1100.501	0.8
1100.92	8.65
1101.339	0.3
1101.758	4.95
