Data from MSPlasma+Separation6_Subt14_10-12-54-914.txt Node
Date: Fri Jul 21 10:12:54 EDT 2017
User: Ender
Spectrometer: HR+D1039
Trigger mode: 0
Integration Time (sec): 6.430000E-3
Scans to average: 20
Electric dark correction enabled: true
Nonlinearity correction enabled: false
Boxcar width: 0
XAxis mode: Wavelengths
Number of Pixels in Spectrum: 2048
>>>>>Begin Spectral Data<<<<<
187.836	2.21
188.309	2.21
188.782	2.21
189.255	-1.74
189.728	2.21
190.201	-1.04
190.674	2.16
191.147	-1.54
191.619	0.61
192.092	4.46
192.565	-5.14
193.038	3.46
193.511	1.11
193.984	-1.79
194.456	-2.84
194.929	-1.59
195.402	-1.34
195.874	0.86
196.347	1.91
196.82	0.11
197.292	-2.54
197.765	-2.89
198.237	-3.19
198.71	-5.94
199.182	-1.09
199.655	0.61
200.127	-4.44
200.6	0.31
201.072	0.21
201.544	-3.99
202.017	-0.34
202.489	-0.59
202.961	-1.04
203.433	-3.84
203.906	0.16
204.378	3.51
204.85	-1.39
205.322	0.56
205.794	-2.09
206.266	-4.34
206.739	4.61
207.211	1.26
207.683	-2.09
208.155	0.86
208.627	-1.49
209.099	1.76
209.57	2.01
210.042	-2.19
210.514	-2.74
210.986	0.26
211.458	-2.79
211.93	1.01
212.402	1.51
212.873	0.76
213.345	-6.09
213.817	1.26
214.288	-4.04
214.76	-0.44
215.232	-2.54
215.703	-4.04
216.175	-0.39
216.646	2.71
217.118	-2.34
217.589	-7.59
218.061	-0.94
218.532	-3.69
219.004	4.96
219.475	0.96
219.946	0.21
220.418	4.81
220.889	-0.44
221.36	3.16
221.832	6.41
222.303	4.61
222.774	5.86
223.245	1.71
223.717	1.81
224.188	6.76
224.659	1.91
225.13	-1.39
225.601	1.71
226.072	2.46
226.543	3.26
227.014	0.31
227.485	7.86
227.956	2.51
228.427	6.01
228.898	2.16
229.369	4.01
229.839	3.36
230.31	6.01
230.781	7.61
231.252	6.76
231.722	10.01
232.193	6.81
232.664	10.56
233.135	5.21
233.605	7.01
234.076	12.86
234.546	2.56
235.017	9.06
235.487	6.51
235.958	5.96
236.428	11.66
236.899	3.41
237.369	15.06
237.84	11.36
238.31	14.46
238.78	3.81
239.251	10.51
239.721	7.41
240.191	10.66
240.662	11.91
241.132	10.01
241.602	9.46
242.072	11.51
242.542	8.56
243.013	12.11
243.483	14.11
243.953	11.21
244.423	10.81
244.893	9.26
245.363	17.31
245.833	11.91
246.303	15.41
246.773	17.76
247.243	12.41
247.712	18.71
248.182	13.26
248.652	13.61
249.122	17.26
249.592	19.31
250.061	14.01
250.531	19.96
251.001	20.31
251.471	19.06
251.94	19.96
252.41	15.96
252.879	20.51
253.349	23.36
253.818	19.81
254.288	24.56
254.757	19.56
255.227	22.31
255.696	23.61
256.166	26.76
256.635	26.21
257.105	24.86
257.574	21.76
258.043	23.91
258.513	26.41
258.982	25.31
259.451	30.36
259.92	24.41
260.389	29.11
260.859	28.41
261.328	29.56
261.797	25.91
262.266	28.01
262.735	28.66
263.204	25.91
263.673	32.36
264.142	24.31
264.611	29.56
265.08	30.06
265.549	22.76
266.018	30.96
266.487	32.86
266.955	32.11
267.424	33.66
267.893	38.81
268.362	32.56
268.83	34.71
269.299	30.26
269.768	37.41
270.236	37.71
270.705	43.76
271.174	35.86
271.642	32.81
272.111	38.66
272.579	36.51
273.048	41.36
273.516	40.91
273.985	38.11
274.453	36.81
274.922	40.86
275.39	37.46
275.858	38.41
276.327	40.31
276.795	35.61
277.263	39.76
277.731	37.91
278.2	43.21
278.668	42.16
279.136	45.96
279.604	45.91
280.072	42.86
280.54	43.41
281.008	54.96
281.477	52.21
281.945	49.61
282.413	47.66
282.881	49.11
283.348	47.16
283.816	47.11
284.284	50.71
284.752	53.66
285.22	56.71
285.688	50.01
286.156	53.21
286.623	51.56
287.091	53.06
287.559	56.21
288.026	56.91
288.494	61.26
288.962	53.41
289.429	54.61
289.897	57.01
290.364	51.16
290.832	60.96
291.3	60.66
291.767	57.56
292.234	61.66
292.702	59.51
293.169	62.26
293.637	61.61
294.104	62.66
294.571	62.51
295.039	67.66
295.506	59.91
295.973	65.76
296.44	63.26
296.908	66.26
297.375	66.51
297.842	65.36
298.309	65.11
298.776	65.26
299.243	68.81
299.71	70.76
300.177	68.56
300.644	71.51
301.111	67.61
301.578	78.06
302.045	71.26
302.512	71.86
302.979	78.71
303.446	76.86
303.913	80.16
304.379	86.31
304.846	81.51
305.313	86.16
305.78	86.11
306.246	87.11
306.713	85.21
307.18	92.06
307.646	86.21
308.113	85.86
308.579	93.56
309.046	94.96
309.512	91.66
309.979	96.96
310.445	93.81
310.912	97.66
311.378	97.41
311.845	99.21
312.311	92.56
312.777	92.91
313.244	101.46
313.71	101.86
314.176	104.46
314.642	104.26
315.109	102.16
315.575	103.41
316.041	100.41
316.507	103.71
316.973	110.91
317.439	109.21
317.905	112.21
318.371	105.56
318.837	109.26
319.303	118.81
319.769	108.11
320.235	112.86
320.701	112.31
321.167	109.01
321.633	115.66
322.099	114.06
322.564	119.51
323.03	116.06
323.496	122.36
323.962	119.76
324.427	125.76
324.893	121.51
325.359	122.11
325.824	128.41
326.29	129.86
326.755	128.56
327.221	126.11
327.686	136.16
328.152	136.01
328.617	137.16
329.083	136.66
329.548	139.51
330.014	139.91
330.479	139.91
330.944	139.41
331.41	148.11
331.875	141.21
332.34	142.01
332.805	142.66
333.271	139.66
333.736	144.41
334.201	146.71
334.666	150.06
335.131	154.31
335.596	157.46
336.061	149.96
336.526	156.31
336.991	146.36
337.456	146.01
337.921	149.56
338.386	142.61
338.851	142.86
339.316	147.36
339.781	147.86
340.246	151.76
340.711	152.86
341.175	156.86
341.64	158.61
342.105	160.91
342.569	170.81
343.034	165.86
343.499	168.26
343.963	176.11
344.428	172.86
344.893	173.41
345.357	178.31
345.822	179.36
346.286	180.51
346.751	183.51
347.215	187.51
347.679	192.16
348.144	201.01
348.608	202.91
349.073	206.36
349.537	211.76
350.001	212.56
350.465	211.41
350.93	206.36
351.394	213.71
351.858	216.26
352.322	219.26
352.786	220.26
353.25	223.66
353.715	220.26
354.179	233.86
354.643	236.41
355.107	245.96
355.571	238.21
356.035	227.61
356.498	234.36
356.962	230.71
357.426	226.51
357.89	224.16
358.354	225.56
358.818	225.36
359.281	229.06
359.745	230.91
360.209	223.11
360.673	227.01
361.136	229.51
361.6	234.71
362.064	234.81
362.527	241.26
362.991	237.91
363.454	235.71
363.918	244.46
364.381	243.86
364.845	243.76
365.308	243.81
365.772	247.41
366.235	248.71
366.698	243.61
367.162	247.61
367.625	248.16
368.088	251.41
368.552	250.26
369.015	246.71
369.478	256.01
369.941	254.26
370.404	259.56
370.867	253.46
371.331	256.06
371.794	267.11
372.257	266.01
372.72	267.96
373.183	266.46
373.646	265.86
374.109	264.61
374.572	268.16
375.035	269.96
375.497	275.16
375.96	278.36
376.423	285.16
376.886	285.86
377.349	292.16
377.811	292.96
378.274	292.66
378.737	288.91
379.199	300.71
379.662	297.06
380.125	305.86
380.587	306.61
381.05	313.26
381.512	313.11
381.975	315.51
382.437	330.21
382.9	328.91
383.362	327.26
383.825	331.66
384.287	330.56
384.75	330.51
385.212	332.41
385.674	337.61
386.136	341.71
386.599	341.06
387.061	339.21
387.523	336.26
387.985	339.66
388.447	345.61
388.91	348.21
389.372	346.56
389.834	348.66
390.296	336.71
390.758	348.46
391.22	337.76
391.682	345.11
392.144	337.66
392.606	351.26
393.068	359.41
393.529	383.31
393.991	396.21
394.453	369.36
394.915	358.51
395.377	347.81
395.838	349.21
396.3	351.16
396.762	357.16
397.224	355.91
397.685	351.96
398.147	366.36
398.608	362.01
399.07	366.16
399.531	365.86
399.993	379.71
400.454	386.11
400.916	381.96
401.377	386.66
401.839	395.46
402.3	388.41
402.762	413.41
403.223	444.01
403.684	444.61
404.145	416.81
404.607	408.76
405.068	397.01
405.529	399.66
405.99	406.61
406.451	406.31
406.913	398.36
407.374	402.51
407.835	404.41
408.296	420.36
408.757	411.96
409.218	428.76
409.679	430.76
410.14	437.01
410.601	454.31
411.062	455.61
411.522	463.71
411.983	462.51
412.444	475.51
412.905	484.21
413.366	511.16
413.826	545.91
414.287	614.11
414.748	766.11
415.208	776.71
415.669	632.76
416.13	574.61
416.59	553.96
417.051	586.86
417.511	617.06
417.972	676.16
418.432	725.01
418.893	816.46
419.353	784.46
419.814	584.96
420.274	509.21
420.734	503.66
421.195	513.71
421.655	511.26
422.115	518.76
422.576	515.41
423.036	523.16
423.496	537.96
423.956	563.26
424.416	605.86
424.876	682.91
425.336	676.26
425.797	656.11
426.257	637.21
426.717	582.61
427.177	526.86
427.637	523.41
428.097	538.46
428.556	545.91
429.016	596.51
429.476	576.81
429.936	543.21
430.396	526.91
430.856	540.91
431.315	549.81
431.775	595.56
432.235	647.71
432.694	659.66
433.154	604.16
433.614	596.91
434.073	578.11
434.533	525.91
434.993	514.36
435.452	530.16
435.912	532.56
436.371	537.51
436.83	541.86
437.29	535.71
437.749	529.86
438.209	537.61
438.668	546.01
439.127	558.21
439.587	551.16
440.046	545.21
440.505	562.41
440.964	566.66
441.424	594.06
441.883	599.36
442.342	573.16
442.801	553.51
443.26	556.16
443.719	557.06
444.178	552.36
444.637	568.86
445.096	575.21
445.555	577.81
446.014	578.11
446.473	572.61
446.932	576.41
447.391	586.21
447.849	594.86
448.308	585.46
448.767	587.41
449.226	596.91
449.685	618.91
450.143	645.86
450.602	638.16
451.061	606.66
451.519	602.61
451.978	595.56
452.436	598.61
452.895	593.66
453.353	592.61
453.812	587.11
454.27	591.06
454.729	592.26
455.187	605.56
455.646	597.66
456.104	596.21
456.562	602.01
457.021	611.01
457.479	596.01
457.937	610.16
458.395	631.01
458.854	623.01
459.312	611.91
459.77	617.76
460.228	628.41
460.686	627.96
461.144	637.06
461.602	629.96
462.06	624.96
462.518	642.16
462.976	635.56
463.434	650.91
463.892	652.66
464.35	670.41
464.808	672.61
465.266	678.96
465.724	683.21
466.181	687.31
466.639	686.06
467.097	711.66
467.555	740.66
468.012	728.96
468.47	735.41
468.928	760.11
469.385	780.51
469.843	784.86
470.3	772.96
470.758	798.71
471.215	804.81
471.673	826.86
472.13	846.61
472.588	859.31
473.045	852.01
473.503	862.81
473.96	893.01
474.417	897.86
474.875	925.76
475.332	951.11
475.789	950.21
476.246	964.71
476.704	988.01
477.161	994.21
477.618	999.11
478.075	1022.31
478.532	1057.71
478.989	1072.91
479.446	1126.91
479.903	1121.66
480.36	1145.26
480.817	1137.46
481.274	1152.36
481.731	1190.01
482.188	1205.96
482.645	1240.01
483.102	1237.26
483.558	1285.71
484.015	1301.91
484.472	1300.56
484.929	1306.31
485.385	1309.16
485.842	1309.96
486.299	1325.31
486.755	1317.61
487.212	1296.51
487.668	1249.01
488.125	1258.61
488.582	1237.56
489.038	1256.11
489.494	1272.46
489.951	1269.46
490.407	1275.56
490.864	1274.71
491.32	1272.01
491.776	1279.96
492.233	1305.36
492.689	1297.26
493.145	1273.31
493.602	1267.26
494.058	1294.46
494.514	1300.21
494.97	1304.86
495.426	1330.31
495.882	1338.46
496.338	1340.66
496.794	1354.26
497.251	1360.51
497.707	1373.71
498.163	1377.71
498.618	1386.96
499.074	1378.26
499.53	1396.26
499.986	1402.66
500.442	1391.16
500.898	1377.51
501.354	1397.56
501.809	1397.56
502.265	1400.11
502.721	1409.46
503.177	1418.21
503.632	1424.56
504.088	1422.06
504.543	1450.51
504.999	1462.71
505.455	1450.16
505.91	1438.86
506.366	1444.36
506.821	1455.61
507.277	1435.86
507.732	1445.81
508.187	1455.21
508.643	1466.36
509.098	1458.76
509.553	1466.51
510.009	1497.41
510.464	1518.91
510.919	1533.06
511.375	1540.61
511.83	1566.81
512.285	1585.91
512.74	1623.41
513.195	1658.36
513.65	1692.86
514.105	1717.71
514.56	1712.51
515.015	1743.66
515.47	1762.41
515.925	1735.31
516.38	1734.11
516.835	1746.71
517.29	1738.31
517.745	1734.66
518.2	1709.71
518.655	1661.31
519.109	1640.71
519.564	1617.41
520.019	1609.81
520.474	1588.51
520.928	1583.61
521.383	1569.11
521.838	1563.56
522.292	1559.61
522.747	1541.96
523.201	1542.36
523.656	1512.36
524.11	1505.06
524.565	1493.56
525.019	1508.66
525.474	1493.56
525.928	1484.71
526.382	1484.91
526.837	1488.46
527.291	1488.66
527.745	1486.96
528.2	1484.46
528.654	1465.96
529.108	1471.26
529.562	1474.51
530.016	1467.46
530.47	1469.11
530.925	1454.26
531.379	1458.51
531.833	1468.81
532.287	1470.31
532.741	1464.06
533.195	1471.31
533.649	1472.06
534.103	1490.26
534.556	1465.01
535.01	1472.81
535.464	1460.66
535.918	1464.76
536.372	1475.46
536.826	1465.11
537.279	1458.36
537.733	1462.86
538.187	1480.66
538.64	1471.31
539.094	1477.76
539.548	1493.11
540.001	1497.86
540.455	1505.61
540.908	1519.11
541.362	1540.96
541.815	1527.66
542.269	1575.31
542.722	1565.36
543.175	1594.16
543.629	1600.01
544.082	1605.36
544.536	1635.06
544.989	1645.36
545.442	1654.01
545.895	1650.41
546.349	1643.06
546.802	1648.26
547.255	1656.61
547.708	1662.11
548.161	1684.76
548.614	1691.31
549.067	1697.56
549.52	1679.56
549.973	1655.61
550.426	1650.41
550.879	1640.71
551.332	1632.06
551.785	1648.36
552.238	1663.16
552.691	1667.11
553.144	1690.31
553.596	1709.96
554.049	1747.26
554.502	1785.11
554.955	1824.26
555.407	1847.31
555.86	1822.46
556.313	1800.81
556.765	1777.21
557.218	1752.66
557.67	1750.56
558.123	1709.91
558.576	1715.51
559.028	1717.76
559.48	1743.81
559.933	1736.76
560.385	1678.01
560.838	1611.26
561.29	1556.81
561.742	1556.61
562.195	1510.76
562.647	1499.01
563.099	1499.81
563.551	1489.66
564.004	1502.86
564.456	1493.46
564.908	1451.86
565.36	1416.36
565.812	1390.51
566.264	1383.61
566.716	1358.96
567.168	1332.46
567.62	1328.86
568.072	1330.91
568.524	1302.36
568.976	1301.91
569.428	1290.96
569.88	1293.91
570.332	1308.66
570.784	1315.26
571.235	1300.16
571.687	1311.66
572.139	1316.46
572.59	1335.81
573.042	1338.76
573.494	1346.96
573.945	1317.76
574.397	1284.76
574.849	1276.91
575.3	1289.46
575.752	1258.31
576.203	1253.36
576.655	1269.16
577.106	1237.91
577.557	1233.41
578.009	1225.26
578.46	1225.71
578.912	1218.46
579.363	1230.36
579.814	1226.86
580.265	1223.16
580.717	1223.61
581.168	1224.36
581.619	1238.11
582.07	1248.01
582.521	1233.26
582.972	1231.61
583.423	1233.11
583.875	1242.56
584.326	1248.36
584.777	1264.31
585.227	1288.16
585.678	1301.91
586.129	1317.16
586.58	1345.21
587.031	1359.31
587.482	1399.11
587.933	1420.21
588.384	1420.96
588.834	1410.61
589.285	1396.41
589.736	1397.36
590.186	1410.46
590.637	1395.11
591.088	1354.96
591.538	1324.06
591.989	1292.86
592.439	1295.86
592.89	1277.91
593.34	1278.86
593.791	1261.06
594.241	1244.51
594.692	1244.16
595.142	1234.91
595.593	1241.66
596.043	1254.51
596.493	1260.06
596.943	1256.36
597.394	1294.91
597.844	1313.86
598.294	1338.56
598.744	1390.76
599.195	1463.56
599.645	1549.11
600.095	1642.96
600.545	1721.11
600.995	1807.41
601.445	1874.31
601.895	1996.21
602.345	2058.71
602.795	2036.21
603.245	1940.51
603.695	1817.86
604.145	1705.56
604.594	1610.86
605.044	1521.06
605.494	1414.31
605.944	1335.96
606.393	1300.26
606.843	1276.76
607.293	1275.11
607.743	1264.41
608.192	1272.91
608.642	1286.21
609.091	1280.76
609.541	1284.36
609.99	1280.16
610.44	1243.81
610.889	1233.86
611.339	1206.36
611.788	1193.76
612.238	1203.81
612.687	1201.46
613.136	1202.96
613.586	1225.21
614.035	1222.06
614.484	1234.86
614.933	1232.61
615.383	1211.41
615.832	1170.61
616.281	1160.21
616.73	1141.41
617.179	1107.36
617.628	1092.56
618.077	1078.01
618.526	1050.11
618.975	1044.76
619.424	1032.31
619.873	1037.21
620.322	1026.06
620.771	1014.46
621.22	1004.96
621.669	985.06
622.118	965.56
622.567	960.66
623.015	938.91
623.464	944.01
623.913	916.71
624.361	929.66
624.81	920.26
625.259	930.56
625.707	914.31
626.156	931.06
626.604	944.86
627.053	951.81
627.501	943.96
627.95	957.71
628.398	963.46
628.847	951.21
629.295	949.46
629.744	945.71
630.192	930.46
630.64	906.56
631.089	889.91
631.537	859.81
631.985	850.86
632.433	850.01
632.881	839.71
633.33	846.06
633.778	844.16
634.226	851.61
634.674	855.41
635.122	857.71
635.57	870.26
636.018	894.36
636.466	887.81
636.914	879.46
637.362	895.16
637.81	910.11
638.258	941.51
638.705	950.76
639.153	984.71
639.601	984.26
640.049	1007.81
640.497	1044.76
640.944	1071.86
641.392	1010.56
641.84	927.01
642.287	874.81
642.735	838.56
643.182	821.26
643.63	814.96
644.078	805.81
644.525	798.51
644.973	818.51
645.42	824.11
645.867	815.71
646.315	815.06
646.762	826.71
647.21	831.71
647.657	829.46
648.104	815.01
648.551	783.46
648.999	778.76
649.446	775.36
649.893	773.96
650.34	783.31
650.787	804.96
651.234	831.26
651.682	902.61
652.129	981.41
652.576	1119.06
653.023	1285.86
653.47	1387.61
653.917	1439.66
654.363	1486.81
654.81	1567.51
655.257	1615.46
655.704	1269.51
656.151	984.36
656.598	871.36
657.044	801.36
657.491	788.51
657.938	761.66
658.385	757.36
658.831	754.21
659.278	745.76
659.724	736.91
660.171	731.86
660.618	707.06
661.064	697.16
661.511	701.56
661.957	699.16
662.404	711.61
662.85	719.31
663.296	721.61
663.743	721.11
664.189	731.96
664.635	731.86
665.082	720.11
665.528	720.21
665.974	703.31
666.42	697.76
666.867	696.21
667.313	660.26
667.759	655.16
668.205	658.61
668.651	664.46
669.097	667.01
669.543	670.41
669.989	679.91
670.435	680.61
670.881	680.71
671.327	727.61
671.773	784.41
672.219	845.91
672.665	909.21
673.11	945.06
673.556	977.21
674.002	1012.91
674.448	1034.16
674.893	864.36
675.339	739.61
675.785	676.91
676.23	649.21
676.676	620.76
677.122	604.86
677.567	585.01
678.013	572.91
678.458	562.71
678.904	556.91
679.349	552.21
679.794	553.36
680.24	556.76
680.685	541.76
681.131	551.11
681.576	553.06
682.021	554.26
682.466	566.21
682.912	562.41
683.357	593.76
683.802	647.96
684.247	716.76
684.692	770.66
685.137	811.81
685.583	837.41
686.028	901.11
686.473	845.81
686.918	716.86
687.363	642.81
687.807	619.91
688.252	576.86
688.697	557.86
689.142	537.81
689.587	540.96
690.032	544.41
690.477	565.96
690.921	598.01
691.366	641.56
691.811	670.11
692.255	725.91
692.7	886.21
693.145	1271.36
693.589	1958.36
694.034	2395.56
694.478	2617.71
694.923	2476.71
695.367	3626.46
695.812	2124.31
696.256	857.41
696.701	602.21
697.145	562.31
697.59	531.46
698.034	519.91
698.478	516.01
698.922	515.86
699.367	534.76
699.811	565.16
700.255	623.26
700.699	683.26
701.143	749.96
701.588	800.51
702.032	837.31
702.476	860.86
702.92	905.56
703.364	1164.06
703.808	1803.41
704.252	2295.46
704.696	2508.46
705.14	2423.36
705.584	3436.01
706.027	1822.86
706.471	879.11
706.915	642.71
707.359	563.41
707.803	525.36
708.246	502.11
708.69	498.21
709.134	495.41
709.577	496.41
710.021	502.26
710.465	498.36
710.908	496.96
711.352	512.86
711.795	568.91
712.239	616.96
712.682	635.71
713.126	633.06
713.569	717.41
714.012	569.71
714.456	483.96
714.899	462.91
715.342	438.66
715.786	421.96
716.229	410.61
716.672	403.41
717.115	402.11
717.558	407.41
718.002	415.31
718.445	438.86
718.888	469.76
719.331	484.11
719.774	496.61
720.217	478.81
720.66	453.26
721.103	428.96
721.546	397.11
721.989	387.31
722.432	383.66
722.874	377.66
723.317	386.01
723.76	420.01
724.203	515.26
724.645	700.41
725.088	848.36
725.531	847.91
725.974	960.96
726.416	843.06
726.859	490.81
727.301	395.16
727.744	382.26
728.187	378.96
728.629	394.81
729.071	414.81
729.514	437.66
729.956	453.71
730.399	459.51
730.841	462.71
731.283	448.31
731.726	430.61
732.168	439.16
732.61	462.41
733.053	500.81
733.495	563.46
733.937	630.66
734.379	743.31
734.821	945.16
735.263	1503.16
735.705	2703.51
736.148	4069.81
736.59	4213.56
737.032	4753.86
737.474	3870.76
737.916	1419.86
738.357	721.66
738.799	545.66
739.241	498.01
739.683	497.06
740.125	512.56
740.567	520.16
741.008	551.91
741.45	571.06
741.892	602.06
742.334	610.41
742.775	610.61
743.217	580.76
743.658	487.01
744.1	489.81
744.542	561.61
744.983	583.26
745.425	623.91
745.866	612.16
746.307	513.91
746.749	546.61
747.19	795.21
747.632	1571.26
748.073	2969.71
748.514	4206.91
748.956	5770.16
749.397	6827.06
749.838	4672.61
750.279	4621.71
750.72	2296.11
751.162	940.26
751.603	525.26
752.044	414.86
752.485	368.26
752.926	341.81
753.367	322.36
753.808	321.96
754.249	309.26
754.69	308.26
755.131	303.31
755.572	307.46
756.013	303.31
756.453	298.31
756.894	313.71
757.335	312.51
757.776	317.86
758.216	328.56
758.657	344.81
759.098	390.36
759.538	465.81
759.979	673.21
760.42	1372.21
760.86	3500.96
761.301	7502.91
761.741	9267.96
762.182	11184.61
762.622	7043.31
763.063	2406.26
763.503	967.36
763.943	556.21
764.384	430.96
764.824	378.96
765.264	345.01
765.705	323.31
766.145	300.71
766.585	295.61
767.025	288.11
767.465	287.46
767.906	283.01
768.346	306.71
768.786	354.81
769.226	525.46
769.666	1087.81
770.106	2486.96
770.546	3674.91
770.986	4366.31
771.426	3287.26
771.866	1308.21
772.306	571.16
772.745	348.86
773.185	284.11
773.625	281.96
774.065	292.86
774.505	396.21
774.944	677.56
775.384	999.76
775.824	1175.96
776.263	988.36
776.703	509.21
777.142	302.76
777.582	230.91
778.021	212.11
778.461	200.06
778.9	201.66
779.34	198.61
779.779	187.26
780.219	192.71
780.658	186.16
781.097	179.11
781.537	179.16
781.976	177.31
782.415	173.31
782.855	178.71
783.294	172.21
783.733	166.26
784.172	176.96
784.611	170.06
785.05	175.66
785.489	186.41
785.928	188.76
786.367	199.31
786.806	205.86
787.245	224.81
787.684	232.61
788.123	230.71
788.562	224.36
789.001	211.56
789.44	206.71
789.879	204.81
790.317	200.51
790.756	217.41
791.195	251.21
791.634	343.51
792.072	624.81
792.511	1557.96
792.95	2993.76
793.388	3814.06
793.827	2462.56
794.265	1077.41
794.704	500.91
795.142	301.51
795.581	245.36
796.019	222.86
796.458	224.31
796.896	229.96
797.334	263.76
797.773	360.01
798.211	692.96
798.649	1474.76
799.087	2549.16
799.526	3625.21
799.964	3853.06
800.402	2688.36
800.84	1160.16
801.278	548.46
801.716	329.11
802.154	265.36
802.592	241.96
803.03	242.36
803.468	253.96
803.906	261.61
804.344	245.11
804.782	241.46
805.22	239.81
805.658	246.06
806.096	267.21
806.533	301.21
806.971	388.86
807.409	559.91
807.847	1128.21
808.284	2919.21
808.722	5345.41
809.16	7533.31
809.597	10032.06
810.035	13019.21
810.472	8536.26
810.91	3460.36
811.347	1523.61
811.785	715.06
812.222	442.56
812.66	340.51
813.097	289.56
813.535	246.51
813.972	223.26
814.409	202.41
814.846	199.86
815.284	190.01
815.721	189.81
816.158	200.41
816.595	264.26
817.032	343.71
817.47	312.51
817.907	228.61
818.344	200.61
818.781	193.41
819.218	234.61
819.655	350.01
820.092	472.61
820.529	434.26
820.966	334.21
821.403	228.01
821.839	196.66
822.276	215.11
822.713	263.96
823.15	247.56
823.587	257.11
824.023	470.96
824.46	1228.91
824.897	2244.86
825.333	1790.61
825.77	783.41
826.206	390.96
826.643	225.71
827.08	169.46
827.516	149.11
827.953	137.41
828.389	134.11
828.825	126.71
829.262	114.91
829.698	116.11
830.135	111.16
830.571	113.26
831.007	111.36
831.443	108.71
831.88	112.61
832.316	116.06
832.752	111.26
833.188	116.26
833.624	114.41
834.06	119.61
834.497	117.36
834.933	121.21
835.369	134.36
835.805	145.01
836.241	146.91
836.677	162.06
837.112	189.61
837.548	236.31
837.984	351.11
838.42	745.26
838.856	2137.31
839.292	4474.46
839.727	3344.81
840.163	2131.86
840.599	3214.06
841.034	5247.11
841.47	2602.66
841.906	1200.51
842.341	628.01
842.777	439.51
843.212	449.96
843.648	286.76
844.083	195.51
844.519	151.31
844.954	126.96
845.39	109.31
845.825	109.31
846.261	102.21
846.696	95.26
847.131	89.61
847.566	91.01
848.002	92.71
848.437	107.51
848.872	113.91
849.307	143.96
849.742	255.51
850.177	694.51
850.613	1579.51
851.048	1146.01
851.483	502.51
851.918	271.66
852.353	147.36
852.788	101.81
853.223	92.46
853.657	84.76
854.092	83.81
854.527	78.76
854.962	84.11
855.397	96.31
855.832	75.26
856.266	65.51
856.701	68.91
857.136	72.76
857.57	85.86
858.005	108.61
858.44	92.01
858.874	80.36
859.309	90.96
859.743	88.26
860.178	84.11
860.612	93.21
861.047	124.06
861.481	176.01
861.915	118.61
862.35	88.86
862.784	71.06
863.218	68.06
863.653	73.46
864.087	91.46
864.521	117.36
864.955	201.66
865.39	366.06
865.824	261.51
866.258	315.91
866.692	486.31
867.126	351.56
867.56	183.96
867.994	113.76
868.428	99.36
868.862	127.01
869.296	114.61
869.73	137.36
870.164	125.36
870.598	104.16
871.031	75.41
871.465	67.56
871.899	53.61
872.333	48.21
872.766	54.36
873.2	48.71
873.634	47.81
874.067	55.26
874.501	55.16
874.935	53.41
875.368	54.01
875.802	47.76
876.235	46.41
876.669	42.01
877.102	39.41
877.535	41.41
877.969	41.31
878.402	42.61
878.836	48.21
879.269	38.66
879.702	38.66
880.135	37.71
880.569	44.46
881.002	36.21
881.435	41.36
881.868	37.61
882.301	38.31
882.734	34.31
883.167	37.21
883.601	36.01
884.034	40.66
884.467	27.16
884.899	37.66
885.332	26.11
885.765	34.11
886.198	28.61
886.631	32.11
887.064	32.21
887.497	32.56
887.929	37.61
888.362	31.16
888.795	32.21
889.228	33.16
889.66	35.51
890.093	34.21
890.526	30.81
890.958	32.71
891.391	34.46
891.823	33.41
892.256	30.11
892.688	32.56
893.121	28.31
893.553	33.86
893.985	28.06
894.418	29.61
894.85	34.61
895.282	29.56
895.715	28.86
896.147	24.26
896.579	23.11
897.011	32.06
897.444	31.91
897.876	22.91
898.308	24.36
898.74	26.01
899.172	28.61
899.604	31.21
900.036	28.91
900.468	24.71
900.9	32.16
901.332	36.86
901.764	41.26
902.196	41.26
902.628	40.56
903.06	56.76
903.491	60.11
903.923	51.06
904.355	49.01
904.787	54.01
905.218	46.16
905.65	41.11
906.082	34.81
906.513	32.01
906.945	34.46
907.376	36.16
907.808	36.06
908.239	36.61
908.671	44.61
909.102	48.51
909.534	71.56
909.965	130.81
910.397	354.76
910.828	1073.96
911.259	657.96
911.691	343.11
912.122	192.31
912.553	91.71
912.984	50.26
913.415	44.11
913.847	43.41
914.278	40.61
914.709	30.61
915.14	31.46
915.571	33.41
916.002	32.96
916.433	29.76
916.864	30.26
917.295	32.36
917.726	38.46
918.157	44.46
918.587	46.31
919.018	42.81
919.449	43.46
919.88	51.46
920.311	70.21
920.741	220.86
921.172	399.51
921.603	190.11
922.033	121.91
922.464	72.76
922.895	45.76
923.325	31.36
923.756	25.36
924.186	37.21
924.617	47.36
925.047	69.96
925.478	61.21
925.908	48.06
926.338	32.56
926.769	29.06
927.199	25.41
927.629	27.66
928.06	29.31
928.49	25.66
928.92	25.51
929.35	21.46
929.78	18.61
930.21	15.16
930.641	16.36
931.071	17.06
931.501	13.26
931.931	14.66
932.361	15.61
932.791	23.16
933.221	16.16
933.651	29.66
934.08	52.01
934.51	29.41
934.94	21.51
935.37	18.41
935.8	13.86
936.229	13.36
936.659	14.66
937.089	22.81
937.519	40.16
937.948	57.21
938.378	28.86
938.807	16.61
939.237	11.86
939.666	8.21
940.096	10.36
940.525	2.91
940.955	11.76
941.384	8.16
941.814	5.86
942.243	10.36
942.672	1.31
943.102	8.96
943.531	5.16
943.96	5.46
944.39	11.26
944.819	11.71
945.248	10.81
945.677	6.71
946.106	7.56
946.535	11.46
946.964	7.01
947.393	2.26
947.822	4.91
948.251	8.76
948.68	10.11
949.109	6.01
949.538	2.41
949.967	7.31
950.396	5.76
950.825	5.81
951.254	10.01
951.682	0.86
952.111	2.31
952.54	6.26
952.969	4.61
953.397	3.31
953.826	3.41
954.254	6.46
954.683	5.81
955.112	4.36
955.54	2.36
955.969	3.61
956.397	5.56
956.826	3.66
957.254	4.71
957.682	5.56
958.111	1.81
958.539	7.71
958.967	4.56
959.396	8.26
959.824	1.61
960.252	5.16
960.68	4.16
961.109	4.56
961.537	7.26
961.965	1.41
962.393	5.11
962.821	4.61
963.249	4.61
963.677	8.21
964.105	64.96
964.533	113.26
964.961	51.96
965.389	25.91
965.817	14.56
966.245	8.11
966.672	6.66
967.1	10.61
967.528	-0.24
967.956	5.56
968.383	8.71
968.811	4.31
969.239	6.41
969.666	3.61
970.094	6.16
970.522	1.96
970.949	2.11
971.377	-4.94
971.804	1.46
972.232	-0.54
972.659	2.81
973.087	4.81
973.514	0.36
973.941	2.31
974.369	0.51
974.796	1.21
975.223	-1.34
975.651	4.01
976.078	4.81
976.505	5.71
976.932	26.61
977.359	32.41
977.786	15.76
978.214	14.31
978.641	5.11
979.068	6.41
979.495	1.26
979.922	4.01
980.349	3.26
980.776	2.01
981.202	2.46
981.629	7.56
982.056	-0.04
982.483	-5.54
982.91	5.76
983.337	-3.09
983.763	-0.04
984.19	5.16
984.617	4.06
985.043	3.41
985.47	7.41
985.897	1.86
986.323	6.11
986.75	1.81
987.176	3.01
987.603	1.91
988.029	3.66
988.456	7.46
988.882	2.21
989.308	-2.34
989.735	-1.39
990.161	1.56
990.587	2.06
991.014	-2.59
991.44	2.41
991.866	0.76
992.292	-1.09
992.719	0.16
993.145	1.66
993.571	3.06
993.997	7.91
994.423	5.16
994.849	-2.94
995.275	1.66
995.701	1.61
996.127	-5.79
996.553	2.01
996.979	-2.14
997.405	7.36
997.83	3.21
998.256	3.56
998.682	2.71
999.108	-0.69
999.534	-3.49
999.959	-0.74
1000.385	4.41
1000.811	-1.04
1001.236	-1.64
1001.662	-4.19
1002.087	2.71
1002.513	0.46
1002.938	2.16
1003.364	0.36
1003.789	5.56
1004.215	2.86
1004.64	3.26
1005.066	4.76
1005.491	3.76
1005.916	-0.09
1006.342	3.66
1006.767	4.81
1007.192	4.56
1007.617	4.81
1008.042	-1.14
1008.468	0.31
1008.893	3.86
1009.318	5.31
1009.743	6.71
1010.168	19.96
1010.593	13.71
1011.018	9.91
1011.443	7.56
1011.868	9.31
1012.293	3.46
1012.718	-0.79
1013.143	2.01
1013.567	5.71
1013.992	2.11
1014.417	-3.34
1014.842	0.26
1015.267	0.11
1015.691	4.06
1016.116	-0.14
1016.541	1.36
1016.965	0.61
1017.39	5.26
1017.814	-1.89
1018.239	-3.34
1018.663	-6.94
1019.088	-4.44
1019.512	5.71
1019.937	-2.34
1020.361	2.56
1020.785	-2.99
1021.21	0.56
1021.634	2.61
1022.058	3.21
1022.483	-2.74
1022.907	-2.34
1023.331	-0.34
1023.755	-0.89
1024.179	-2.09
1024.604	-2.94
1025.028	-2.49
1025.452	3.26
1025.876	2.06
1026.3	1.36
1026.724	-1.54
1027.148	3.01
1027.572	-3.14
1027.996	0.16
1028.42	-2.74
1028.843	-2.74
1029.267	-2.84
1029.691	2.96
1030.115	-0.59
1030.539	2.96
1030.962	-1.19
1031.386	-2.69
1031.81	-1.64
1032.233	-1.74
1032.657	-5.64
1033.08	-2.24
1033.504	0.66
1033.927	-0.24
1034.351	-0.09
1034.774	-0.74
1035.198	-2.19
1035.621	-1.84
1036.045	-4.64
1036.468	5.61
1036.891	3.36
1037.315	2.36
1037.738	-1.39
1038.161	0.36
1038.584	-0.44
1039.008	-2.34
1039.431	-1.14
1039.854	-8.44
1040.277	0.96
1040.7	1.66
1041.123	-0.99
1041.546	-0.74
1041.969	-1.24
1042.392	1.71
1042.815	-8.59
1043.238	-3.24
1043.661	-7.04
1044.084	-5.69
1044.507	-2.59
1044.93	-5.54
1045.352	-1.29
1045.775	1.41
1046.198	4.46
1046.621	0.51
1047.043	-3.44
1047.466	4.66
1047.889	0.46
1048.311	6.61
1048.734	-2.54
1049.156	-2.74
1049.579	-3.49
1050.001	-2.94
1050.424	-4.44
1050.846	-3.79
1051.269	-1.64
1051.691	-3.04
1052.113	3.51
1052.536	-0.14
1052.958	-4.79
1053.38	6.01
1053.802	3.96
1054.225	5.41
1054.647	2.16
1055.069	-5.69
1055.491	1.26
1055.913	-0.99
1056.335	-7.69
1056.757	-0.89
1057.179	-5.49
1057.601	-3.99
1058.023	-0.99
1058.445	-5.94
1058.867	-0.29
1059.289	-1.99
1059.711	-4.44
1060.133	-0.14
1060.555	-3.89
1060.976	1.96
1061.398	-3.44
1061.82	-4.09
1062.241	-2.19
1062.663	-1.89
1063.085	-3.79
1063.506	-8.39
1063.928	-3.99
1064.35	1.31
1064.771	1.56
1065.193	-1.34
1065.614	-2.69
1066.035	4.41
1066.457	0.21
1066.878	-1.94
1067.3	0.81
1067.721	-0.34
1068.142	1.66
1068.564	-0.54
1068.985	1.36
1069.406	-7.24
1069.827	-0.54
1070.248	-3.84
1070.67	-2.44
1071.091	-5.34
1071.512	-1.64
1071.933	-2.69
1072.354	-10.09
1072.775	-2.99
1073.196	-5.49
1073.617	-4.99
1074.038	-3.04
1074.459	-6.34
1074.88	-2.29
1075.3	0.51
1075.721	-3.14
1076.142	-3.34
1076.563	-4.64
1076.983	2.36
1077.404	-9.14
1077.825	2.31
1078.246	-2.84
1078.666	1.81
1079.087	-4.74
1079.507	-4.74
1079.928	-4.49
1080.348	-2.39
1080.769	-4.29
1081.189	-2.04
1081.61	-7.24
1082.03	3.51
1082.451	0.36
1082.871	-2.94
1083.291	-2.99
1083.711	-4.24
1084.132	-2.84
1084.552	-8.14
1084.972	-8.04
1085.392	-3.39
1085.813	1.46
1086.233	-3.69
1086.653	-0.84
1087.073	-5.94
1087.493	-5.39
1087.913	-5.24
1088.333	0.36
1088.753	-3.84
1089.173	0.66
1089.593	-0.39
1090.013	-4.74
1090.433	-7.44
1090.852	3.11
1091.272	-4.14
1091.692	4.96
1092.112	-1.29
1092.531	-3.99
1092.951	-3.94
1093.371	-3.79
1093.79	-2.94
1094.21	-0.19
1094.63	-1.39
1095.049	-3.04
1095.469	-8.59
1095.888	-0.44
1096.308	0.06
1096.727	-3.74
1097.146	-6.94
1097.566	-2.89
1097.985	-5.69
1098.405	0.26
1098.824	-0.09
1099.243	-4.24
1099.662	-6.84
1100.082	-1.14
1100.501	-2.89
1100.92	1.16
1101.339	3.41
1101.758	2.96
