Data from MSPlasma+Separation6_Subt14_10-13-07-444.txt Node
Date: Fri Jul 21 10:13:07 EDT 2017
User: Ender
Spectrometer: HR+D1039
Trigger mode: 0
Integration Time (sec): 6.430000E-3
Scans to average: 20
Electric dark correction enabled: true
Nonlinearity correction enabled: false
Boxcar width: 0
XAxis mode: Wavelengths
Number of Pixels in Spectrum: 2048
>>>>>Begin Spectral Data<<<<<
187.836	1.87
188.309	1.87
188.782	1.87
189.255	2.52
189.728	2.07
190.201	-3.53
190.674	-1.63
191.147	-2.13
191.619	0.32
192.092	-2.53
192.565	-2.38
193.038	5.82
193.511	4.92
193.984	0.27
194.456	-1.18
194.929	-0.48
195.402	-4.28
195.874	0.37
196.347	3.72
196.82	2.42
197.292	-3.83
197.765	-1.03
198.237	-1.53
198.71	-2.08
199.182	1.42
199.655	3.12
200.127	3.02
200.6	-0.98
201.072	3.72
201.544	-3.73
202.017	1.82
202.489	3.82
202.961	-3.33
203.433	-4.48
203.906	1.67
204.378	-0.58
204.85	-1.73
205.322	-2.08
205.794	2.77
206.266	-3.73
206.739	0.07
207.211	-0.98
207.683	-2.63
208.155	-1.43
208.627	-1.38
209.099	1.82
209.57	-0.13
210.042	3.97
210.514	-2.73
210.986	1.02
211.458	0.72
211.93	1.27
212.402	-0.63
212.873	-2.63
213.345	-1.38
213.817	4.22
214.288	-4.48
214.76	2.67
215.232	-3.08
215.703	-0.98
216.175	3.22
216.646	2.62
217.118	-0.03
217.589	-4.23
218.061	1.82
218.532	-1.83
219.004	4.32
219.475	2.02
219.946	1.07
220.418	7.07
220.889	1.52
221.36	7.77
221.832	6.52
222.303	0.27
222.774	-0.53
223.245	-0.88
223.717	-0.88
224.188	0.02
224.659	1.87
225.13	1.07
225.601	0.87
226.072	0.67
226.543	4.47
227.014	1.67
227.485	1.92
227.956	4.12
228.427	7.92
228.898	4.77
229.369	3.47
229.839	-0.58
230.31	7.37
230.781	2.52
231.252	5.12
231.722	7.37
232.193	6.42
232.664	4.92
233.135	3.82
233.605	5.82
234.076	9.17
234.546	6.32
235.017	9.97
235.487	6.92
235.958	4.47
236.428	6.47
236.899	1.77
237.369	10.57
237.84	6.67
238.31	13.27
238.78	7.22
239.251	5.72
239.721	5.72
240.191	10.87
240.662	10.72
241.132	6.72
241.602	10.87
242.072	9.87
242.542	6.52
243.013	9.82
243.483	12.12
243.953	10.17
244.423	12.12
244.893	10.37
245.363	14.22
245.833	13.77
246.303	10.22
246.773	10.92
247.243	10.02
247.712	15.92
248.182	11.07
248.652	18.82
249.122	13.72
249.592	16.77
250.061	11.57
250.531	13.72
251.001	15.87
251.471	17.12
251.94	17.67
252.41	16.07
252.879	17.32
253.349	22.47
253.818	14.77
254.288	22.57
254.757	17.72
255.227	19.47
255.696	22.27
256.166	27.07
256.635	26.32
257.105	19.97
257.574	21.27
258.043	23.77
258.513	23.37
258.982	17.97
259.451	26.82
259.92	18.02
260.389	22.22
260.859	25.72
261.328	25.97
261.797	19.92
262.266	27.42
262.735	27.92
263.204	24.32
263.673	28.12
264.142	23.52
264.611	29.17
265.08	24.32
265.549	24.72
266.018	27.82
266.487	28.17
266.955	25.37
267.424	30.47
267.893	33.02
268.362	31.47
268.83	26.67
269.299	26.57
269.768	27.17
270.236	31.47
270.705	34.62
271.174	28.52
271.642	31.02
272.111	32.12
272.579	30.82
273.048	32.32
273.516	37.37
273.985	34.67
274.453	34.32
274.922	37.07
275.39	29.92
275.858	35.12
276.327	38.22
276.795	35.62
277.263	36.47
277.731	31.27
278.2	37.22
278.668	39.27
279.136	38.97
279.604	38.57
280.072	38.02
280.54	39.02
281.008	48.27
281.477	38.87
281.945	35.37
282.413	42.22
282.881	41.32
283.348	43.37
283.816	46.22
284.284	44.17
284.752	42.57
285.22	43.87
285.688	46.07
286.156	47.52
286.623	47.97
287.091	44.57
287.559	49.97
288.026	53.62
288.494	50.37
288.962	51.87
289.429	50.12
289.897	47.97
290.364	42.57
290.832	50.57
291.3	52.12
291.767	50.82
292.234	54.77
292.702	47.67
293.169	51.97
293.637	58.57
294.104	55.82
294.571	51.12
295.039	58.27
295.506	45.72
295.973	56.97
296.44	55.92
296.908	62.37
297.375	60.57
297.842	63.87
298.309	60.07
298.776	63.17
299.243	60.87
299.71	63.07
300.177	60.32
300.644	61.52
301.111	59.17
301.578	59.22
302.045	58.77
302.512	61.12
302.979	63.77
303.446	67.87
303.913	70.42
304.379	72.87
304.846	73.27
305.313	73.22
305.78	78.72
306.246	72.97
306.713	78.32
307.18	73.92
307.646	77.07
308.113	77.22
308.579	81.52
309.046	85.22
309.512	81.97
309.979	83.92
310.445	78.47
310.912	80.97
311.378	88.12
311.845	86.52
312.311	86.62
312.777	83.97
313.244	90.57
313.71	91.37
314.176	93.17
314.642	92.17
315.109	91.82
315.575	90.32
316.041	91.87
316.507	90.87
316.973	91.62
317.439	97.92
317.905	99.12
318.371	94.57
318.837	96.42
319.303	99.17
319.769	99.62
320.235	103.02
320.701	104.97
321.167	97.87
321.633	104.42
322.099	100.27
322.564	102.52
323.03	104.87
323.496	101.82
323.962	106.42
324.427	113.52
324.893	106.22
325.359	112.02
325.824	113.87
326.29	113.27
326.755	110.72
327.221	112.92
327.686	119.37
328.152	116.67
328.617	121.82
329.083	121.57
329.548	124.62
330.014	124.27
330.479	122.97
330.944	120.62
331.41	129.87
331.875	124.82
332.34	125.57
332.805	127.22
333.271	127.17
333.736	129.87
334.201	130.12
334.666	138.12
335.131	131.92
335.596	134.92
336.061	136.07
336.526	132.32
336.991	133.27
337.456	129.42
337.921	126.37
338.386	128.07
338.851	125.32
339.316	134.87
339.781	126.67
340.246	133.37
340.711	133.52
341.175	137.22
341.64	139.87
342.105	137.67
342.569	150.37
343.034	141.22
343.499	146.27
343.963	151.02
344.428	152.82
344.893	154.92
345.357	158.52
345.822	157.17
346.286	157.82
346.751	161.47
347.215	168.42
347.679	173.57
348.144	179.77
348.608	183.52
349.073	186.07
349.537	188.07
350.001	186.82
350.465	192.77
350.93	187.67
351.394	191.27
351.858	185.57
352.322	194.87
352.786	193.97
353.25	193.47
353.715	194.12
354.179	207.77
354.643	215.12
355.107	208.42
355.571	212.27
356.035	207.72
356.498	209.32
356.962	204.22
357.426	198.82
357.89	202.62
358.354	196.97
358.818	193.62
359.281	198.02
359.745	203.57
360.209	200.92
360.673	199.07
361.136	202.22
361.6	203.82
362.064	209.62
362.527	210.02
362.991	213.92
363.454	210.17
363.918	213.67
364.381	218.17
364.845	217.67
365.308	217.02
365.772	223.97
366.235	217.77
366.698	218.27
367.162	217.52
367.625	216.82
368.088	227.52
368.552	224.27
369.015	219.92
369.478	230.87
369.941	224.72
370.404	232.47
370.867	229.67
371.331	232.22
371.794	235.87
372.257	232.32
372.72	238.12
373.183	237.57
373.646	240.97
374.109	237.72
374.572	242.37
375.035	241.97
375.497	241.42
375.96	248.67
376.423	249.17
376.886	255.62
377.349	257.87
377.811	257.12
378.274	265.87
378.737	257.42
379.199	257.82
379.662	258.82
380.125	263.57
380.587	272.37
381.05	270.57
381.512	273.47
381.975	287.02
382.437	292.07
382.9	288.52
383.362	285.47
383.825	288.87
384.287	288.87
384.75	290.62
385.212	289.22
385.674	297.97
386.136	293.27
386.599	296.12
387.061	291.27
387.523	301.32
387.985	299.82
388.447	308.27
388.91	305.37
389.372	306.97
389.834	312.92
390.296	299.97
390.758	306.12
391.22	303.07
391.682	304.92
392.144	304.62
392.606	303.07
393.068	316.67
393.529	338.07
393.991	342.37
394.453	322.67
394.915	317.42
395.377	306.62
395.838	313.92
396.3	315.87
396.762	321.42
397.224	314.92
397.685	310.92
398.147	321.42
398.608	324.07
399.07	331.07
399.531	328.92
399.993	340.52
400.454	348.52
400.916	337.92
401.377	343.67
401.839	352.47
402.3	351.57
402.762	359.42
403.223	394.82
403.684	396.82
404.145	369.92
404.607	360.47
405.068	351.77
405.529	351.77
405.99	357.22
406.451	364.87
406.913	352.17
407.374	357.57
407.835	361.07
408.296	368.17
408.757	365.22
409.218	377.97
409.679	383.62
410.14	391.07
410.601	406.87
411.062	410.72
411.522	415.77
411.983	414.72
412.444	427.62
412.905	438.27
413.366	455.72
413.826	477.22
414.287	554.77
414.748	676.62
415.208	690.97
415.669	565.57
416.13	506.02
416.59	499.87
417.051	517.72
417.511	544.42
417.972	596.32
418.432	644.42
418.893	722.52
419.353	689.02
419.814	510.77
420.274	452.37
420.734	449.32
421.195	462.92
421.655	459.42
422.115	460.97
422.576	455.77
423.036	463.37
423.496	477.47
423.956	493.07
424.416	532.27
424.876	604.27
425.336	603.07
425.797	585.62
426.257	565.72
426.717	513.52
427.177	468.37
427.637	464.67
428.097	473.87
428.556	488.87
429.016	523.77
429.476	515.47
429.936	486.77
430.396	473.67
430.856	486.92
431.315	496.57
431.775	531.02
432.235	582.02
432.694	587.72
433.154	537.67
433.614	530.52
434.073	509.02
434.533	470.92
434.993	461.77
435.452	476.17
435.912	469.02
436.371	483.02
436.83	481.67
437.29	475.27
437.749	475.27
438.209	471.37
438.668	491.72
439.127	497.77
439.587	500.92
440.046	489.77
440.505	508.62
440.964	511.72
441.424	523.42
441.883	541.42
442.342	516.92
442.801	497.37
443.26	505.37
443.719	503.02
444.178	500.07
444.637	510.22
445.096	515.97
445.555	521.42
446.014	521.47
446.473	513.72
446.932	513.67
447.391	524.52
447.849	526.77
448.308	527.22
448.767	534.32
449.226	540.52
449.685	551.72
450.143	583.62
450.602	571.02
451.061	547.52
451.519	538.82
451.978	526.72
452.436	529.97
452.895	545.92
453.353	533.57
453.812	529.87
454.27	529.02
454.729	535.12
455.187	533.77
455.646	533.37
456.104	538.62
456.562	543.57
457.021	546.32
457.479	528.07
457.937	552.52
458.395	566.62
458.854	557.72
459.312	549.42
459.77	554.27
460.228	556.87
460.686	571.42
461.144	566.67
461.602	564.92
462.06	561.27
462.518	572.32
462.976	576.87
463.434	581.72
463.892	585.82
464.35	593.12
464.808	602.22
465.266	609.22
465.724	624.12
466.181	618.12
466.639	616.37
467.097	639.37
467.555	664.72
468.012	658.92
468.47	666.32
468.928	689.72
469.385	705.57
469.843	710.42
470.3	695.62
470.758	720.52
471.215	725.02
471.673	736.47
472.13	762.32
472.588	770.27
473.045	763.87
473.503	773.27
473.96	800.57
474.417	804.67
474.875	834.77
475.332	860.87
475.789	863.32
476.246	879.02
476.704	898.17
477.161	903.82
477.618	904.72
478.075	919.27
478.532	948.62
478.989	973.37
479.446	1017.12
479.903	1002.62
480.36	1017.47
480.817	1031.52
481.274	1044.17
481.731	1066.57
482.188	1097.82
482.645	1118.12
483.102	1118.22
483.558	1157.77
484.015	1177.82
484.472	1171.32
484.929	1181.67
485.385	1181.02
485.842	1181.62
486.299	1195.57
486.755	1195.47
487.212	1172.17
487.668	1138.97
488.125	1140.82
488.582	1117.12
489.038	1126.47
489.494	1147.92
489.951	1146.02
490.407	1150.52
490.864	1148.42
491.32	1148.07
491.776	1157.12
492.233	1170.27
492.689	1170.22
493.145	1157.22
493.602	1146.12
494.058	1172.07
494.514	1177.32
494.97	1181.67
495.426	1209.67
495.882	1212.42
496.338	1212.22
496.794	1221.57
497.251	1222.27
497.707	1245.17
498.163	1245.22
498.618	1249.07
499.074	1244.32
499.53	1259.07
499.986	1268.42
500.442	1255.42
500.898	1250.62
501.354	1268.57
501.809	1262.47
502.265	1266.42
502.721	1277.67
503.177	1278.77
503.632	1290.72
504.088	1291.02
504.543	1319.62
504.999	1321.67
505.455	1304.02
505.91	1306.52
506.366	1309.72
506.821	1316.07
507.277	1301.32
507.732	1306.37
508.187	1308.37
508.643	1314.97
509.098	1318.92
509.553	1339.97
510.009	1351.12
510.464	1382.02
510.919	1394.77
511.375	1407.37
511.83	1421.47
512.285	1446.62
512.74	1474.62
513.195	1498.17
513.65	1527.32
514.105	1554.82
514.56	1560.22
515.015	1587.47
515.47	1587.87
515.925	1577.72
516.38	1564.42
516.835	1571.37
517.29	1568.42
517.745	1581.27
518.2	1543.37
518.655	1506.62
519.109	1492.72
519.564	1467.27
520.019	1450.77
520.474	1452.52
520.928	1432.62
521.383	1425.52
521.838	1424.27
522.292	1408.67
522.747	1395.47
523.201	1400.02
523.656	1368.97
524.11	1369.02
524.565	1364.27
525.019	1369.47
525.474	1369.37
525.928	1357.17
526.382	1356.07
526.837	1350.07
527.291	1366.62
527.745	1351.22
528.2	1350.92
528.654	1331.32
529.108	1334.67
529.562	1342.62
530.016	1344.47
530.47	1335.67
530.925	1333.22
531.379	1334.87
531.833	1351.42
532.287	1348.37
532.741	1332.97
533.195	1345.07
533.649	1336.12
534.103	1345.07
534.556	1334.32
535.01	1345.57
535.464	1333.42
535.918	1336.62
536.372	1347.32
536.826	1350.12
537.279	1333.22
537.733	1330.87
538.187	1339.12
538.64	1336.52
539.094	1352.62
539.548	1374.67
540.001	1363.27
540.455	1372.42
540.908	1387.42
541.362	1396.27
541.815	1407.12
542.269	1444.57
542.722	1432.22
543.175	1447.02
543.629	1457.62
544.082	1471.17
544.536	1486.87
544.989	1478.77
545.442	1490.92
545.895	1501.72
546.349	1500.02
546.802	1499.87
547.255	1503.92
547.708	1522.37
548.161	1539.07
548.614	1540.97
549.067	1548.32
549.52	1527.12
549.973	1517.92
550.426	1505.07
550.879	1494.17
551.332	1488.57
551.785	1507.62
552.238	1526.22
552.691	1513.12
553.144	1542.32
553.596	1573.32
554.049	1586.77
554.502	1641.47
554.955	1668.32
555.407	1688.32
555.86	1664.67
556.313	1640.87
556.765	1622.47
557.218	1608.67
557.67	1592.22
558.123	1576.62
558.576	1572.37
559.028	1565.37
559.48	1596.07
559.933	1587.27
560.385	1527.87
560.838	1476.07
561.29	1419.47
561.742	1418.07
562.195	1378.57
562.647	1374.27
563.099	1357.12
563.551	1361.87
564.004	1386.07
564.456	1362.47
564.908	1326.42
565.36	1295.77
565.812	1280.77
566.264	1258.27
566.716	1248.27
567.168	1220.22
567.62	1221.92
568.072	1224.92
568.524	1203.77
568.976	1198.57
569.428	1190.37
569.88	1191.97
570.332	1197.37
570.784	1196.37
571.235	1198.62
571.687	1204.42
572.139	1209.07
572.59	1217.87
573.042	1231.72
573.494	1224.62
573.945	1203.97
574.397	1182.97
574.849	1175.72
575.3	1181.17
575.752	1163.97
576.203	1153.27
576.655	1156.07
577.106	1137.02
577.557	1129.87
578.009	1128.32
578.46	1131.42
578.912	1105.92
579.363	1120.47
579.814	1122.47
580.265	1129.32
580.717	1128.22
581.168	1117.92
581.619	1129.57
582.07	1140.07
582.521	1127.27
582.972	1127.32
583.423	1131.07
583.875	1133.07
584.326	1146.52
584.777	1163.47
585.227	1189.82
585.678	1195.67
586.129	1204.72
586.58	1228.32
587.031	1245.87
587.482	1287.27
587.933	1304.52
588.384	1291.32
588.834	1284.67
589.285	1276.32
589.736	1280.22
590.186	1283.37
590.637	1274.27
591.088	1234.92
591.538	1214.32
591.989	1200.97
592.439	1176.72
592.89	1165.52
593.34	1164.37
593.791	1160.57
594.241	1137.57
594.692	1139.32
595.142	1138.02
595.593	1140.02
596.043	1148.67
596.493	1159.47
596.943	1157.57
597.394	1190.82
597.844	1209.42
598.294	1230.37
598.744	1277.87
599.195	1352.67
599.645	1437.42
600.095	1503.37
600.545	1579.52
600.995	1663.47
601.445	1717.67
601.895	1826.57
602.345	1892.92
602.795	1860.47
603.245	1771.07
603.695	1654.27
604.145	1552.57
604.594	1482.27
605.044	1391.32
605.494	1290.22
605.944	1233.12
606.393	1181.92
606.843	1165.07
607.293	1176.07
607.743	1166.82
608.192	1172.72
608.642	1176.92
609.091	1174.22
609.541	1176.62
609.99	1179.92
610.44	1145.67
610.889	1132.47
611.339	1115.37
611.788	1101.27
612.238	1104.37
612.687	1108.82
613.136	1116.77
613.586	1124.12
614.035	1125.67
614.484	1132.27
614.933	1133.42
615.383	1111.22
615.832	1083.57
616.281	1067.97
616.73	1050.02
617.179	1019.52
617.628	1001.52
618.077	982.12
618.526	971.37
618.975	966.72
619.424	949.42
619.873	953.32
620.322	936.32
620.771	942.72
621.22	923.62
621.669	903.72
622.118	893.07
622.567	886.97
623.015	861.67
623.464	865.02
623.913	846.02
624.361	857.97
624.81	852.32
625.259	851.57
625.707	845.17
626.156	854.32
626.604	866.77
627.053	873.42
627.501	866.52
627.95	877.72
628.398	886.62
628.847	873.62
629.295	871.47
629.744	868.82
630.192	851.02
630.64	830.47
631.089	810.47
631.537	781.37
631.985	783.52
632.433	776.22
632.881	775.72
633.33	779.37
633.778	772.22
634.226	782.12
634.674	783.07
635.122	790.12
635.57	803.72
636.018	819.57
636.466	809.07
636.914	808.32
637.362	834.67
637.81	839.47
638.258	870.42
638.705	881.17
639.153	908.47
639.601	914.42
640.049	930.97
640.497	957.97
640.944	980.32
641.392	929.52
641.84	856.22
642.287	804.22
642.735	771.52
643.182	757.82
643.63	749.82
644.078	750.82
644.525	745.27
644.973	751.22
645.42	762.17
645.867	752.37
646.315	759.52
646.762	763.42
647.21	763.97
647.657	771.62
648.104	754.17
648.551	723.57
648.999	723.97
649.446	719.62
649.893	714.92
650.34	722.07
650.787	738.42
651.234	762.97
651.682	828.47
652.129	903.02
652.576	1038.07
653.023	1193.17
653.47	1291.12
653.917	1334.07
654.363	1373.92
654.81	1438.72
655.257	1469.87
655.704	1179.77
656.151	916.42
656.598	799.02
657.044	738.82
657.491	725.67
657.938	713.87
658.385	692.92
658.831	689.77
659.278	687.42
659.724	683.27
660.171	670.17
660.618	658.62
661.064	637.62
661.511	641.87
661.957	652.07
662.404	647.92
662.85	665.42
663.296	663.82
663.743	671.67
664.189	671.62
664.635	670.92
665.082	673.57
665.528	668.07
665.974	651.62
666.42	640.87
666.867	642.22
667.313	614.87
667.759	610.82
668.205	602.77
668.651	608.87
669.097	619.32
669.543	616.17
669.989	628.22
670.435	622.57
670.881	635.52
671.327	664.27
671.773	715.62
672.219	771.27
672.665	839.37
673.11	881.52
673.556	888.92
674.002	930.47
674.448	948.52
674.893	795.57
675.339	684.72
675.785	626.02
676.23	596.72
676.676	568.12
677.122	553.22
677.567	540.72
678.013	519.07
678.458	517.97
678.904	518.22
679.349	504.82
679.794	511.17
680.24	511.22
680.685	506.82
681.131	512.17
681.576	508.12
682.021	513.77
682.466	519.77
682.912	523.37
683.357	548.02
683.802	606.22
684.247	664.22
684.692	712.17
685.137	751.42
685.583	767.72
686.028	818.72
686.473	772.27
686.918	655.42
687.363	594.57
687.807	560.52
688.252	529.07
688.697	513.97
689.142	498.62
689.587	494.62
690.032	510.32
690.477	534.67
690.921	558.22
691.366	589.92
691.811	615.42
692.255	670.17
692.7	819.37
693.145	1190.57
693.589	1828.97
694.034	2203.27
694.478	2391.02
694.923	2241.12
695.367	3255.97
695.812	1930.07
696.256	780.52
696.701	563.42
697.145	513.72
697.59	491.87
698.034	477.27
698.478	477.97
698.922	485.67
699.367	500.57
699.811	516.57
700.255	569.62
700.699	623.77
701.143	688.82
701.588	735.82
702.032	775.67
702.476	792.97
702.92	825.37
703.364	1079.77
703.808	1670.32
704.252	2110.97
704.696	2293.12
705.14	2206.02
705.584	3080.27
706.027	1670.77
706.471	804.77
706.915	589.07
707.359	516.82
707.803	486.32
708.246	466.67
708.69	468.67
709.134	458.17
709.577	456.27
710.021	460.87
710.465	457.57
710.908	457.92
711.352	473.32
711.795	522.22
712.239	564.87
712.682	586.67
713.126	579.37
713.569	652.42
714.012	527.82
714.456	446.67
714.899	426.27
715.342	405.42
715.786	391.22
716.229	382.77
716.672	369.47
717.115	374.67
717.558	373.17
718.002	388.22
718.445	406.52
718.888	429.52
719.331	438.72
719.774	458.02
720.217	441.52
720.66	416.22
721.103	388.57
721.546	366.52
721.989	353.22
722.432	350.82
722.874	346.77
723.317	354.62
723.76	383.17
724.203	478.12
724.645	651.12
725.088	791.17
725.531	773.92
725.974	872.72
726.416	774.42
726.859	460.92
727.301	369.82
727.744	348.52
728.187	355.77
728.629	359.47
729.071	379.57
729.514	399.62
729.956	413.97
730.399	435.12
730.841	430.82
731.283	416.82
731.726	398.77
732.168	402.57
732.61	431.57
733.053	463.77
733.495	518.47
733.937	585.97
734.379	683.77
734.821	875.32
735.263	1385.77
735.705	2490.77
736.148	3739.77
736.59	3859.62
737.032	4288.82
737.474	3505.97
737.916	1301.12
738.357	667.07
738.799	504.52
739.241	461.92
739.683	463.32
740.125	474.27
740.567	471.72
741.008	501.92
741.45	536.67
741.892	555.07
742.334	564.27
742.775	560.92
743.217	532.42
743.658	450.32
744.1	454.57
744.542	523.87
744.983	541.57
745.425	575.47
745.866	561.27
746.307	473.52
746.749	505.22
747.19	743.37
747.632	1453.62
748.073	2735.27
748.514	3862.07
748.956	5271.82
749.397	6212.87
749.838	4245.87
750.279	4170.42
750.72	2103.22
751.162	856.82
751.603	488.87
752.044	389.37
752.485	338.27
752.926	316.72
753.367	306.12
753.808	295.02
754.249	287.22
754.69	286.87
755.131	282.12
755.572	278.17
756.013	282.27
756.453	278.02
756.894	285.22
757.335	277.52
757.776	289.77
758.216	300.17
758.657	316.22
759.098	353.62
759.538	426.92
759.979	622.47
760.42	1268.02
760.86	3253.22
761.301	6977.82
761.741	8476.17
762.182	10105.92
762.622	6405.47
763.063	2226.12
763.503	891.62
763.943	508.37
764.384	396.87
764.824	346.92
765.264	318.72
765.705	298.62
766.145	284.62
766.585	276.57
767.025	263.22
767.465	264.02
767.906	262.17
768.346	289.82
768.786	330.22
769.226	487.87
769.666	997.47
770.106	2291.12
770.546	3357.72
770.986	3944.17
771.426	2983.37
771.866	1201.37
772.306	521.57
772.745	318.32
773.185	260.47
773.625	251.92
774.065	264.52
774.505	364.97
774.944	645.22
775.384	933.72
775.824	1088.42
776.263	916.17
776.703	480.12
777.142	277.92
777.582	214.22
778.021	195.37
778.461	190.17
778.9	188.92
779.34	177.07
779.779	175.62
780.219	175.62
780.658	164.92
781.097	165.87
781.537	160.17
781.976	158.97
782.415	160.82
782.855	161.57
783.294	160.57
783.733	152.22
784.172	158.72
784.611	159.62
785.05	168.07
785.489	168.87
785.928	177.17
786.367	183.92
786.806	197.77
787.245	207.27
787.684	213.22
788.123	212.22
788.562	203.42
789.001	197.47
789.44	196.32
789.879	192.67
790.317	189.97
790.756	201.82
791.195	229.52
791.634	318.07
792.072	576.27
792.511	1441.72
792.95	2731.92
793.388	3445.92
793.827	2226.92
794.265	988.87
794.704	460.57
795.142	281.02
795.581	228.42
796.019	201.92
796.458	204.72
796.896	213.67
797.334	248.67
797.773	332.97
798.211	638.37
798.649	1365.82
799.087	2326.72
799.526	3297.97
799.964	3496.62
800.402	2425.97
800.84	1066.42
801.278	504.42
801.716	305.87
802.154	242.67
802.592	228.82
803.03	227.62
803.468	233.97
803.906	233.17
804.344	228.67
804.782	224.77
805.22	219.87
805.658	233.87
806.096	249.17
806.533	276.77
806.971	357.87
807.409	525.12
807.847	1045.62
808.284	2694.67
808.722	4877.67
809.16	6891.97
809.597	9236.87
810.035	11882.22
810.472	7757.07
810.91	3171.57
811.347	1412.42
811.785	652.67
812.222	409.57
812.66	314.27
813.097	270.22
813.535	230.92
813.972	204.17
814.409	191.52
814.846	186.02
815.284	172.72
815.721	173.42
816.158	186.57
816.595	251.57
817.032	320.82
817.47	294.82
817.907	212.82
818.344	184.02
818.781	177.72
819.218	210.57
819.655	326.47
820.092	440.97
820.529	398.07
820.966	313.22
821.403	209.82
821.839	183.92
822.276	201.17
822.713	249.72
823.15	230.42
823.587	242.32
824.023	438.37
824.46	1121.27
824.897	2043.47
825.333	1617.17
825.77	716.02
826.206	363.32
826.643	203.87
827.08	155.77
827.516	133.27
827.953	124.77
828.389	120.37
828.825	112.87
829.262	109.62
829.698	105.82
830.135	97.17
830.571	100.22
831.007	103.07
831.443	100.37
831.88	102.02
832.316	107.77
832.752	106.52
833.188	107.57
833.624	107.22
834.06	111.37
834.497	110.32
834.933	107.12
835.369	124.47
835.805	125.97
836.241	131.97
836.677	151.77
837.112	175.12
837.548	211.77
837.984	323.52
838.42	695.57
838.856	1975.02
839.292	4038.32
839.727	3020.07
840.163	1956.77
840.599	2955.27
841.034	4737.72
841.47	2380.72
841.906	1113.87
842.341	572.02
842.777	405.72
843.212	416.72
843.648	256.22
844.083	179.72
844.519	135.57
844.954	118.12
845.39	99.02
845.825	100.72
846.261	93.32
846.696	91.22
847.131	82.87
847.566	87.57
848.002	90.67
848.437	95.47
848.872	98.87
849.307	130.42
849.742	235.57
850.177	645.97
850.613	1442.72
851.048	1045.27
851.483	461.87
851.918	247.57
852.353	137.22
852.788	91.22
853.223	86.32
853.657	75.77
854.092	72.32
854.527	72.82
854.962	76.22
855.397	86.32
855.832	73.57
856.266	64.37
856.701	65.77
857.136	67.27
857.57	83.92
858.005	98.42
858.44	81.92
858.874	77.97
859.309	83.47
859.743	82.52
860.178	79.77
860.612	88.52
861.047	117.67
861.481	164.67
861.915	111.72
862.35	86.07
862.784	60.67
863.218	62.47
863.653	65.42
864.087	85.02
864.521	104.77
864.955	182.72
865.39	325.52
865.824	242.17
866.258	300.57
866.692	456.12
867.126	328.77
867.56	167.72
867.994	106.92
868.428	95.67
868.862	118.62
869.296	107.97
869.73	131.32
870.164	109.82
870.598	95.37
871.031	72.32
871.465	64.52
871.899	47.92
872.333	46.02
872.766	47.87
873.2	50.42
873.634	48.97
874.067	46.87
874.501	50.22
874.935	49.47
875.368	49.12
875.802	47.67
876.235	39.87
876.669	44.52
877.102	35.22
877.535	38.32
877.969	35.37
878.402	42.12
878.836	33.62
879.269	38.12
879.702	32.77
880.135	37.22
880.569	41.12
881.002	29.97
881.435	35.37
881.868	37.72
882.301	30.47
882.734	34.42
883.167	34.12
883.601	34.02
884.034	34.17
884.467	29.67
884.899	30.07
885.332	25.52
885.765	26.72
886.198	27.52
886.631	31.92
887.064	32.87
887.497	27.92
887.929	28.27
888.362	27.72
888.795	28.32
889.228	36.07
889.66	25.47
890.093	25.97
890.526	32.77
890.958	29.17
891.391	30.97
891.823	29.87
892.256	32.02
892.688	30.72
893.121	27.12
893.553	33.22
893.985	25.37
894.418	24.12
894.85	35.87
895.282	26.42
895.715	24.97
896.147	19.97
896.579	19.97
897.011	28.47
897.444	27.72
897.876	21.57
898.308	23.67
898.74	26.02
899.172	27.97
899.604	29.27
900.036	28.82
900.468	28.42
900.9	33.62
901.332	36.22
901.764	37.72
902.196	35.12
902.628	37.07
903.06	55.92
903.491	60.97
903.923	45.92
904.355	47.42
904.787	43.27
905.218	36.42
905.65	40.42
906.082	37.57
906.513	28.27
906.945	31.67
907.376	29.32
907.808	32.67
908.239	34.67
908.671	39.82
909.102	43.92
909.534	61.92
909.965	128.17
910.397	324.77
910.828	969.57
911.259	595.32
911.691	309.17
912.122	177.47
912.553	89.22
912.984	50.82
913.415	37.97
913.847	37.32
914.278	35.37
914.709	33.92
915.14	28.02
915.571	29.82
916.002	27.27
916.433	25.47
916.864	29.82
917.295	38.27
917.726	34.82
918.157	48.02
918.587	47.02
919.018	42.57
919.449	38.67
919.88	44.32
920.311	65.82
920.741	197.77
921.172	362.47
921.603	174.82
922.033	108.77
922.464	70.22
922.895	44.97
923.325	32.27
923.756	24.37
924.186	35.52
924.617	47.02
925.047	68.47
925.478	59.87
925.908	42.22
926.338	35.82
926.769	23.07
927.199	25.97
927.629	24.12
928.06	23.67
928.49	30.22
928.92	22.07
929.35	24.22
929.78	14.37
930.21	12.02
930.641	11.67
931.071	14.22
931.501	12.82
931.931	7.92
932.361	12.12
932.791	16.62
933.221	22.87
933.651	26.17
934.08	45.17
934.51	24.57
934.94	24.02
935.37	16.47
935.8	11.37
936.229	12.72
936.659	16.17
937.089	24.37
937.519	34.32
937.948	48.37
938.378	27.82
938.807	15.17
939.237	11.12
939.666	13.72
940.096	8.77
940.525	-0.13
940.955	11.87
941.384	8.07
941.814	5.42
942.243	2.77
942.672	6.77
943.102	3.72
943.531	4.92
943.96	7.62
944.39	10.72
944.819	10.87
945.248	8.47
945.677	8.32
946.106	8.92
946.535	6.27
946.964	6.77
947.393	0.32
947.822	4.12
948.251	6.17
948.68	8.92
949.109	6.42
949.538	1.82
949.967	9.57
950.396	7.47
950.825	8.92
951.254	5.47
951.682	2.82
952.111	1.52
952.54	8.22
952.969	4.27
953.397	0.12
953.826	6.87
954.254	5.62
954.683	8.12
955.112	4.92
955.54	5.02
955.969	8.42
956.397	2.62
956.826	3.87
957.254	5.57
957.682	1.07
958.111	5.32
958.539	5.62
958.967	3.42
959.396	7.87
959.824	5.62
960.252	4.72
960.68	6.42
961.109	7.27
961.537	11.37
961.965	1.22
962.393	4.87
962.821	5.17
963.249	6.22
963.677	13.57
964.105	57.67
964.533	104.17
964.961	48.12
965.389	22.42
965.817	10.27
966.245	9.72
966.672	8.02
967.1	5.52
967.528	-0.53
967.956	5.27
968.383	8.77
968.811	3.27
969.239	2.02
969.666	3.12
970.094	1.37
970.522	2.07
970.949	2.52
971.377	-5.93
971.804	0.82
972.232	3.52
972.659	4.07
973.087	3.97
973.514	-3.13
973.941	-0.28
974.369	4.22
974.796	3.37
975.223	-1.98
975.651	5.02
976.078	2.77
976.505	8.12
976.932	26.62
977.359	29.62
977.786	20.62
978.214	12.07
978.641	2.37
979.068	2.17
979.495	2.47
979.922	3.62
980.349	2.87
980.776	1.12
981.202	0.62
981.629	8.57
982.056	1.27
982.483	-6.68
982.91	4.92
983.337	0.07
983.763	8.02
984.19	7.77
984.617	1.17
985.043	4.27
985.47	7.22
985.897	0.27
986.323	8.52
986.75	5.17
987.176	1.82
987.603	2.42
988.029	4.67
988.456	7.07
988.882	2.12
989.308	-1.13
989.735	0.22
990.161	3.17
990.587	-1.33
991.014	3.32
991.44	2.42
991.866	0.72
992.292	-1.73
992.719	-0.33
993.145	8.52
993.571	2.92
993.997	3.97
994.423	5.82
994.849	-2.88
995.275	3.22
995.701	2.22
996.127	-0.48
996.553	2.37
996.979	-1.48
997.405	3.72
997.83	2.72
998.256	1.77
998.682	1.97
999.108	1.27
999.534	-4.83
999.959	1.47
1000.385	7.32
1000.811	-4.53
1001.236	-6.63
1001.662	-0.03
1002.087	7.47
1002.513	4.97
1002.938	-1.48
1003.364	-0.58
1003.789	2.17
1004.215	-1.33
1004.64	1.67
1005.066	3.42
1005.491	4.72
1005.916	6.47
1006.342	3.47
1006.767	2.82
1007.192	-0.58
1007.617	1.02
1008.042	-3.63
1008.468	4.27
1008.893	3.22
1009.318	6.07
1009.743	13.82
1010.168	20.27
1010.593	13.57
1011.018	8.62
1011.443	5.12
1011.868	10.67
1012.293	5.67
1012.718	1.07
1013.143	4.77
1013.567	2.52
1013.992	3.17
1014.417	2.82
1014.842	3.72
1015.267	2.17
1015.691	4.17
1016.116	0.87
1016.541	0.92
1016.965	0.67
1017.39	7.67
1017.814	0.12
1018.239	-0.28
1018.663	-8.43
1019.088	-1.73
1019.512	3.92
1019.937	-0.43
1020.361	1.02
1020.785	-2.43
1021.21	-0.33
1021.634	-0.58
1022.058	4.62
1022.483	-5.88
1022.907	-3.88
1023.331	-1.43
1023.755	0.87
1024.179	-0.58
1024.604	-0.83
1025.028	-0.68
1025.452	0.47
1025.876	7.32
1026.3	-0.88
1026.724	-4.08
1027.148	1.57
1027.572	4.87
1027.996	6.27
1028.42	3.27
1028.843	-0.73
1029.267	-2.53
1029.691	4.42
1030.115	-1.58
1030.539	1.32
1030.962	-3.63
1031.386	0.27
1031.81	-0.78
1032.233	-5.88
1032.657	-4.43
1033.08	-1.98
1033.504	-2.73
1033.927	-3.98
1034.351	1.72
1034.774	-0.78
1035.198	-2.48
1035.621	2.67
1036.045	-3.18
1036.468	5.97
1036.891	4.77
1037.315	5.57
1037.738	1.22
1038.161	2.17
1038.584	-3.68
1039.008	-1.43
1039.431	1.47
1039.854	-4.98
1040.277	4.52
1040.7	-0.28
1041.123	-1.38
1041.546	0.22
1041.969	-3.48
1042.392	2.92
1042.815	-12.23
1043.238	-3.43
1043.661	-3.13
1044.084	-0.13
1044.507	-2.08
1044.93	0.37
1045.352	3.37
1045.775	-0.13
1046.198	3.27
1046.621	4.62
1047.043	-0.68
1047.466	2.92
1047.889	-0.03
1048.311	0.72
1048.734	-4.28
1049.156	-1.33
1049.579	2.47
1050.001	-0.73
1050.424	-0.63
1050.846	-5.83
1051.269	-4.23
1051.691	-1.38
1052.113	2.12
1052.536	-0.78
1052.958	-4.63
1053.38	2.77
1053.802	-0.68
1054.225	0.87
1054.647	-1.08
1055.069	-4.58
1055.491	1.62
1055.913	-0.28
1056.335	-10.68
1056.757	-4.93
1057.179	-6.03
1057.601	-2.38
1058.023	1.37
1058.445	-3.13
1058.867	3.82
1059.289	-0.93
1059.711	-4.23
1060.133	4.27
1060.555	-1.98
1060.976	3.97
1061.398	-2.63
1061.82	1.17
1062.241	-1.33
1062.663	-0.93
1063.085	-2.08
1063.506	-11.58
1063.928	-1.58
1064.35	1.92
1064.771	3.17
1065.193	-3.83
1065.614	-0.53
1066.035	2.52
1066.457	5.27
1066.878	0.32
1067.3	3.37
1067.721	2.12
1068.142	2.47
1068.564	-0.08
1068.985	1.72
1069.406	-5.73
1069.827	0.52
1070.248	0.52
1070.67	-3.08
1071.091	-8.03
1071.512	-5.83
1071.933	-5.48
1072.354	-8.73
1072.775	1.77
1073.196	-4.08
1073.617	-3.18
1074.038	-4.98
1074.459	-2.13
1074.88	-1.43
1075.3	-2.33
1075.721	-3.83
1076.142	-3.03
1076.563	-7.48
1076.983	0.87
1077.404	-8.03
1077.825	-1.98
1078.246	-5.13
1078.666	-8.83
1079.087	-3.68
1079.507	-2.98
1079.928	-6.88
1080.348	-2.33
1080.769	0.72
1081.189	-0.38
1081.61	-5.73
1082.03	1.62
1082.451	-1.13
1082.871	-4.68
1083.291	3.22
1083.711	-2.88
1084.132	-2.83
1084.552	-4.88
1084.972	-7.18
1085.392	-6.73
1085.813	-1.38
1086.233	-2.43
1086.653	0.62
1087.073	-2.88
1087.493	-0.13
1087.913	-2.83
1088.333	-2.13
1088.753	3.37
1089.173	0.87
1089.593	0.07
1090.013	-1.83
1090.433	-3.03
1090.852	3.02
1091.272	-5.63
1091.692	1.82
1092.112	-3.33
1092.531	1.72
1092.951	-2.18
1093.371	-0.58
1093.79	-0.13
1094.21	-3.48
1094.63	-1.53
1095.049	-1.53
1095.469	-5.58
1095.888	2.27
1096.308	1.82
1096.727	-2.33
1097.146	-3.08
1097.566	3.02
1097.985	-1.23
1098.405	2.17
1098.824	1.87
1099.243	0.87
1099.662	-1.08
1100.082	-0.03
1100.501	-2.58
1100.92	1.97
1101.339	2.77
1101.758	4.42
