Data from MSPlasma+Separation6_Subt14_10-12-40-512.txt Node
Date: Fri Jul 21 10:12:40 EDT 2017
User: Ender
Spectrometer: HR+D1039
Trigger mode: 0
Integration Time (sec): 6.430000E-3
Scans to average: 20
Electric dark correction enabled: true
Nonlinearity correction enabled: false
Boxcar width: 0
XAxis mode: Wavelengths
Number of Pixels in Spectrum: 2048
>>>>>Begin Spectral Data<<<<<
187.836	-0.02
188.309	-0.02
188.782	-0.02
189.255	1.83
189.728	2.73
190.201	-2.37
190.674	2.18
191.147	0.28
191.619	3.28
192.092	0.68
192.565	1.08
193.038	-0.02
193.511	1.68
193.984	-1.62
194.456	-2.72
194.929	1.28
195.402	-6.67
195.874	-1.62
196.347	-1.37
196.82	-0.77
197.292	-5.47
197.765	-5.27
198.237	-2.42
198.71	-3.47
199.182	-2.07
199.655	1.78
200.127	2.38
200.6	1.43
201.072	2.03
201.544	-1.42
202.017	0.98
202.489	-1.02
202.961	-3.77
203.433	-4.17
203.906	-1.52
204.378	-1.82
204.85	0.18
205.322	-1.07
205.794	4.63
206.266	-1.62
206.739	2.78
207.211	-1.42
207.683	-3.82
208.155	1.48
208.627	-0.72
209.099	3.78
209.57	-2.47
210.042	7.28
210.514	2.48
210.986	-0.12
211.458	-3.87
211.93	-0.57
212.402	-0.07
212.873	-4.82
213.345	-1.47
213.817	-3.12
214.288	-3.47
214.76	2.38
215.232	0.43
215.703	-0.62
216.175	0.78
216.646	0.73
217.118	2.03
217.589	-3.22
218.061	-0.87
218.532	-4.42
219.004	3.08
219.475	1.18
219.946	2.63
220.418	4.93
220.889	0.68
221.36	4.68
221.832	7.68
222.303	2.48
222.774	2.93
223.245	0.73
223.717	2.08
224.188	0.68
224.659	3.98
225.13	3.53
225.601	-0.67
226.072	1.33
226.543	1.03
227.014	4.33
227.485	4.38
227.956	5.13
228.427	13.03
228.898	1.73
229.369	5.23
229.839	1.03
230.31	3.13
230.781	2.58
231.252	8.28
231.722	4.03
232.193	5.88
232.664	6.43
233.135	3.68
233.605	7.73
234.076	11.73
234.546	7.48
235.017	8.23
235.487	9.28
235.958	8.13
236.428	14.28
236.899	6.93
237.369	9.03
237.84	9.18
238.31	12.88
238.78	8.63
239.251	7.28
239.721	4.03
240.191	8.23
240.662	11.08
241.132	7.98
241.602	11.53
242.072	11.38
242.542	8.48
243.013	13.08
243.483	14.78
243.953	9.23
244.423	12.93
244.893	8.13
245.363	14.23
245.833	14.33
246.303	16.93
246.773	14.48
247.243	12.63
247.712	13.13
248.182	15.98
248.652	17.73
249.122	17.23
249.592	18.78
250.061	16.98
250.531	15.83
251.001	14.28
251.471	17.73
251.94	18.83
252.41	16.93
252.879	14.88
253.349	22.63
253.818	17.78
254.288	20.03
254.757	24.03
255.227	25.08
255.696	21.43
256.166	23.73
256.635	24.28
257.105	26.18
257.574	24.73
258.043	25.13
258.513	21.63
258.982	24.38
259.451	30.68
259.92	26.23
260.389	23.68
260.859	24.98
261.328	23.88
261.797	24.08
262.266	26.33
262.735	27.23
263.204	22.58
263.673	29.78
264.142	26.33
264.611	29.88
265.08	29.73
265.549	29.28
266.018	32.43
266.487	29.88
266.955	30.03
267.424	36.83
267.893	34.38
268.362	33.88
268.83	27.88
269.299	30.13
269.768	34.13
270.236	33.18
270.705	39.28
271.174	33.73
271.642	34.33
272.111	33.73
272.579	35.78
273.048	32.58
273.516	42.23
273.985	36.38
274.453	33.73
274.922	39.98
275.39	36.18
275.858	39.83
276.327	37.78
276.795	42.78
277.263	36.38
277.731	38.28
278.2	44.33
278.668	39.58
279.136	40.43
279.604	46.23
280.072	40.83
280.54	42.48
281.008	50.53
281.477	46.93
281.945	47.28
282.413	43.58
282.881	46.53
283.348	44.73
283.816	43.53
284.284	48.08
284.752	48.43
285.22	52.28
285.688	49.68
286.156	50.13
286.623	53.98
287.091	50.93
287.559	54.48
288.026	48.43
288.494	53.23
288.962	56.03
289.429	55.08
289.897	51.68
290.364	49.38
290.832	56.73
291.3	54.78
291.767	55.98
292.234	57.48
292.702	58.68
293.169	57.33
293.637	66.28
294.104	58.33
294.571	59.18
295.039	61.53
295.506	58.68
295.973	64.63
296.44	61.23
296.908	65.18
297.375	62.43
297.842	66.73
298.309	65.23
298.776	61.98
299.243	68.58
299.71	66.13
300.177	67.18
300.644	63.13
301.111	71.78
301.578	71.03
302.045	65.88
302.512	68.83
302.979	72.38
303.446	78.63
303.913	77.78
304.379	82.48
304.846	79.38
305.313	85.93
305.78	81.93
306.246	84.48
306.713	87.08
307.18	85.33
307.646	86.38
308.113	85.98
308.579	90.08
309.046	91.13
309.512	89.68
309.979	91.13
310.445	86.43
310.912	91.23
311.378	98.98
311.845	99.83
312.311	89.33
312.777	99.08
313.244	97.53
313.71	98.88
314.176	99.83
314.642	100.58
315.109	99.63
315.575	98.98
316.041	102.23
316.507	97.48
316.973	108.88
317.439	105.43
317.905	105.08
318.371	108.88
318.837	107.08
319.303	107.53
319.769	106.33
320.235	114.13
320.701	111.13
321.167	107.73
321.633	110.68
322.099	113.58
322.564	114.38
323.03	116.68
323.496	111.48
323.962	118.18
324.427	119.58
324.893	115.63
325.359	123.68
325.824	123.78
326.29	126.53
326.755	121.23
327.221	118.58
327.686	137.18
328.152	126.53
328.617	137.38
329.083	132.63
329.548	134.88
330.014	135.83
330.479	140.03
330.944	135.23
331.41	142.73
331.875	133.83
332.34	137.23
332.805	142.73
333.271	143.43
333.736	138.83
334.201	142.88
334.666	149.73
335.131	146.78
335.596	149.03
336.061	148.48
336.526	145.18
336.991	141.98
337.456	140.88
337.921	144.48
338.386	143.68
338.851	147.58
339.316	145.38
339.781	144.48
340.246	145.68
340.711	149.28
341.175	149.23
341.64	158.58
342.105	160.48
342.569	166.28
343.034	161.23
343.499	164.08
343.963	170.48
344.428	166.48
344.893	169.13
345.357	177.03
345.822	173.08
346.286	176.98
346.751	178.58
347.215	180.63
347.679	184.43
348.144	199.28
348.608	198.38
349.073	197.98
349.537	205.38
350.001	205.23
350.465	208.63
350.93	201.73
351.394	204.83
351.858	208.73
352.322	214.23
352.786	209.88
353.25	210.93
353.715	215.78
354.179	234.53
354.643	241.18
355.107	233.53
355.571	230.33
356.035	231.48
356.498	225.73
356.962	222.33
357.426	223.43
357.89	230.73
358.354	222.88
358.818	217.98
359.281	219.68
359.745	226.93
360.209	221.33
360.673	225.78
361.136	225.83
361.6	222.78
362.064	230.08
362.527	238.33
362.991	236.28
363.454	236.13
363.918	241.93
364.381	245.78
364.845	239.48
365.308	235.43
365.772	242.93
366.235	245.23
366.698	236.73
367.162	238.83
367.625	245.38
368.088	254.33
368.552	244.58
369.015	247.48
369.478	259.38
369.941	248.93
370.404	261.08
370.867	248.93
371.331	248.93
371.794	258.08
372.257	257.83
372.72	255.33
373.183	266.78
373.646	264.03
374.109	265.48
374.572	266.78
375.035	270.43
375.497	272.78
375.96	278.58
376.423	280.18
376.886	286.43
377.349	290.43
377.811	287.93
378.274	289.18
378.737	286.28
379.199	293.18
379.662	297.18
380.125	297.18
380.587	301.48
381.05	304.53
381.512	303.98
381.975	316.38
382.437	325.28
382.9	321.73
383.362	315.98
383.825	323.23
384.287	329.13
384.75	318.58
385.212	323.63
385.674	333.03
386.136	333.33
386.599	325.33
387.061	332.78
387.523	339.48
387.985	337.18
388.447	337.88
388.91	332.98
389.372	342.58
389.834	347.63
390.296	334.88
390.758	335.58
391.22	336.68
391.682	337.58
392.144	341.53
392.606	348.33
393.068	355.58
393.529	370.38
393.991	382.98
394.453	361.48
394.915	347.13
395.377	341.63
395.838	347.78
396.3	348.13
396.762	355.73
397.224	352.23
397.685	350.63
398.147	358.08
398.608	354.48
399.07	365.73
399.531	361.88
399.993	375.63
400.454	379.23
400.916	374.73
401.377	385.78
401.839	387.03
402.3	387.03
402.762	411.73
403.223	439.43
403.684	439.58
404.145	414.28
404.607	398.93
405.068	392.13
405.529	393.38
405.99	402.93
406.451	400.98
406.913	393.38
407.374	396.78
407.835	395.38
408.296	410.13
408.757	407.83
409.218	423.58
409.679	426.33
410.14	431.38
410.601	443.63
411.062	451.73
411.522	461.08
411.983	462.38
412.444	470.38
412.905	477.18
413.366	501.28
413.826	526.98
414.287	609.13
414.748	746.63
415.208	763.23
415.669	623.48
416.13	556.13
416.59	552.78
417.051	579.83
417.511	615.58
417.972	664.33
418.432	717.58
418.893	803.23
419.353	771.33
419.814	573.38
420.274	500.08
420.734	491.33
421.195	505.23
421.655	500.68
422.115	510.23
422.576	507.83
423.036	509.38
423.496	531.73
423.956	548.03
424.416	596.18
424.876	677.23
425.336	665.18
425.797	641.43
426.257	624.03
426.717	571.93
427.177	514.58
427.637	511.68
428.097	521.83
428.556	538.43
429.016	579.33
429.476	566.38
429.936	535.13
430.396	521.88
430.856	536.63
431.315	540.28
431.775	580.38
432.235	640.58
432.694	654.83
433.154	593.63
433.614	580.13
434.073	569.53
434.533	525.58
434.993	510.43
435.452	523.18
435.912	517.53
436.371	528.38
436.83	526.03
437.29	525.38
437.749	519.63
438.209	527.23
438.668	533.43
439.127	550.38
439.587	544.48
440.046	534.48
440.505	552.68
440.964	563.33
441.424	574.53
441.883	584.98
442.342	564.88
442.801	543.28
443.26	550.93
443.719	550.03
444.178	551.93
444.637	557.13
445.096	567.83
445.555	575.48
446.014	568.48
446.473	563.33
446.932	568.93
447.391	571.03
447.849	581.88
448.308	564.08
448.767	576.63
449.226	589.08
449.685	604.03
450.143	626.93
450.602	624.53
451.061	591.73
451.519	591.53
451.978	580.63
452.436	579.13
452.895	594.78
453.353	584.98
453.812	577.28
454.27	570.68
454.729	581.63
455.187	583.38
455.646	588.13
456.104	584.98
456.562	590.83
457.021	602.78
457.479	570.68
457.937	599.78
458.395	618.23
458.854	610.43
459.312	595.03
459.77	603.63
460.228	606.83
460.686	619.93
461.144	623.43
461.602	612.88
462.06	618.68
462.518	632.38
462.976	625.18
463.434	633.53
463.892	638.28
464.35	649.63
464.808	654.73
465.266	669.78
465.724	672.28
466.181	669.68
466.639	668.73
467.097	692.23
467.555	725.53
468.012	709.48
468.47	712.08
468.928	737.93
469.385	764.23
469.843	770.13
470.3	756.83
470.758	776.98
471.215	790.03
471.673	792.63
472.13	822.83
472.588	838.03
473.045	837.58
473.503	844.73
473.96	880.98
474.417	874.48
474.875	909.48
475.332	925.88
475.789	933.08
476.246	953.48
476.704	968.78
477.161	976.23
477.618	971.83
478.075	989.33
478.532	1026.23
478.989	1053.93
479.446	1092.28
479.903	1088.88
480.36	1104.38
480.817	1105.53
481.274	1123.23
481.731	1153.78
482.188	1171.98
482.645	1201.73
483.102	1203.73
483.558	1246.18
484.015	1274.03
484.472	1277.28
484.929	1281.78
485.385	1275.38
485.842	1280.63
486.299	1288.53
486.755	1284.08
487.212	1256.38
487.668	1230.13
488.125	1226.63
488.582	1213.18
489.038	1214.08
489.494	1232.73
489.951	1230.93
490.407	1237.93
490.864	1242.48
491.32	1239.68
491.776	1240.78
492.233	1255.63
492.689	1255.33
493.145	1236.78
493.602	1243.28
494.058	1256.93
494.514	1267.58
494.97	1272.38
495.426	1291.88
495.882	1297.78
496.338	1296.93
496.794	1314.88
497.251	1308.13
497.707	1332.13
498.163	1330.68
498.618	1332.58
499.074	1329.98
499.53	1345.58
499.986	1361.93
500.442	1351.63
500.898	1341.08
501.354	1359.68
501.809	1364.48
502.265	1365.93
502.721	1368.23
503.177	1373.53
503.632	1374.63
504.088	1391.33
504.543	1412.73
504.999	1417.18
505.455	1412.98
505.91	1403.93
506.366	1405.58
506.821	1408.63
507.277	1394.53
507.732	1394.88
508.187	1400.88
508.643	1420.03
509.098	1418.53
509.553	1433.73
510.009	1446.43
510.464	1475.98
510.919	1486.88
511.375	1510.18
511.83	1520.33
512.285	1551.58
512.74	1576.23
513.195	1600.33
513.65	1629.83
514.105	1653.03
514.56	1658.78
515.015	1693.48
515.47	1703.78
515.925	1674.03
516.38	1676.93
516.835	1688.58
517.29	1684.03
517.745	1683.13
518.2	1659.78
518.655	1611.73
519.109	1583.68
519.564	1559.33
520.019	1550.18
520.474	1535.03
520.928	1532.48
521.383	1519.43
521.838	1513.93
522.292	1499.58
522.747	1487.18
523.201	1488.28
523.656	1470.43
524.11	1456.58
524.565	1455.18
525.019	1457.88
525.474	1454.13
525.928	1449.08
526.382	1447.48
526.837	1454.98
527.291	1444.08
527.745	1442.43
528.2	1438.73
528.654	1418.18
529.108	1428.33
529.562	1421.53
530.016	1418.98
530.47	1417.13
530.925	1414.93
531.379	1408.33
531.833	1434.88
532.287	1428.68
532.741	1430.38
533.195	1428.28
533.649	1416.68
534.103	1423.58
534.556	1412.88
535.01	1430.63
535.464	1418.33
535.918	1409.63
536.372	1424.23
536.826	1430.58
537.279	1418.23
537.733	1413.38
538.187	1424.18
538.64	1423.18
539.094	1435.33
539.548	1453.28
540.001	1454.43
540.455	1460.83
540.908	1465.48
541.362	1485.33
541.815	1488.78
542.269	1520.73
542.722	1521.53
543.175	1540.68
543.629	1543.63
544.082	1556.53
544.536	1577.33
544.989	1584.18
545.442	1590.78
545.895	1585.48
546.349	1587.98
546.802	1603.13
547.255	1603.58
547.708	1615.18
548.161	1633.23
548.614	1632.48
549.067	1649.73
549.52	1621.78
549.973	1607.68
550.426	1600.33
550.879	1578.28
551.332	1580.63
551.785	1602.73
552.238	1609.98
552.691	1605.83
553.144	1637.53
553.596	1673.23
554.049	1671.33
554.502	1724.13
554.955	1759.93
555.407	1776.13
555.86	1761.03
556.313	1736.73
556.765	1717.93
557.218	1690.33
557.67	1692.48
558.123	1664.38
558.576	1653.73
559.028	1667.23
559.48	1684.28
559.933	1686.48
560.385	1616.83
560.838	1557.53
561.29	1504.68
561.742	1501.83
562.195	1461.33
562.647	1461.03
563.099	1447.68
563.551	1448.83
564.004	1466.58
564.456	1452.38
564.908	1409.23
565.36	1368.48
565.812	1341.98
566.264	1335.08
566.716	1312.58
567.168	1294.73
567.62	1292.63
568.072	1286.33
568.524	1268.33
568.976	1266.38
569.428	1255.93
569.88	1256.33
570.332	1261.73
570.784	1263.83
571.235	1256.33
571.687	1280.38
572.139	1267.93
572.59	1290.48
573.042	1300.23
573.494	1293.43
573.945	1279.38
574.397	1245.33
574.849	1238.63
575.3	1236.93
575.752	1219.18
576.203	1217.98
576.655	1216.98
577.106	1197.73
577.557	1191.38
578.009	1187.13
578.46	1193.48
578.912	1174.13
579.363	1190.88
579.814	1189.48
580.265	1185.58
580.717	1188.73
581.168	1176.93
581.619	1183.73
582.07	1207.03
582.521	1199.98
582.972	1183.78
583.423	1189.88
583.875	1196.38
584.326	1207.18
584.777	1222.98
585.227	1248.23
585.678	1257.98
586.129	1273.18
586.58	1290.18
587.031	1314.63
587.482	1354.68
587.933	1378.78
588.384	1373.98
588.834	1358.13
589.285	1353.73
589.736	1353.83
590.186	1360.58
590.637	1345.38
591.088	1302.68
591.538	1274.78
591.989	1257.63
592.439	1240.03
592.89	1228.58
593.34	1220.78
593.791	1210.73
594.241	1202.63
594.692	1197.53
595.142	1202.38
595.593	1197.18
596.043	1209.68
596.493	1209.73
596.943	1212.93
597.394	1236.03
597.844	1259.98
598.294	1299.58
598.744	1341.73
599.195	1412.63
599.645	1497.13
600.095	1580.63
600.545	1660.23
600.995	1756.43
601.445	1829.13
601.895	1926.43
602.345	2008.08
602.795	1960.43
603.245	1877.33
603.695	1745.73
604.145	1651.08
604.594	1558.33
605.044	1467.53
605.494	1365.48
605.944	1280.38
606.393	1250.28
606.843	1229.33
607.293	1228.68
607.743	1216.68
608.192	1233.08
608.642	1227.33
609.091	1227.88
609.541	1237.03
609.99	1237.23
610.44	1208.98
610.889	1193.98
611.339	1175.38
611.788	1146.98
612.238	1154.73
612.687	1167.13
613.136	1166.23
613.586	1186.18
614.035	1181.83
614.484	1191.68
614.933	1183.68
615.383	1165.88
615.832	1136.68
616.281	1127.13
616.73	1108.13
617.179	1076.13
617.628	1050.63
618.077	1035.53
618.526	1017.53
618.975	1014.83
619.424	989.78
619.873	997.58
620.322	988.83
620.771	984.28
621.22	964.18
621.669	941.28
622.118	940.43
622.567	924.03
623.015	903.23
623.464	902.83
623.913	890.23
624.361	903.38
624.81	887.33
625.259	893.03
625.707	885.38
626.156	895.03
626.604	918.13
627.053	911.33
627.501	911.03
627.95	923.63
628.398	928.28
628.847	924.08
629.295	914.08
629.744	908.83
630.192	894.53
630.64	868.73
631.089	861.63
631.537	830.38
631.985	821.73
632.433	808.63
632.881	810.23
633.33	811.33
633.778	808.58
634.226	822.28
634.674	829.88
635.122	831.98
635.57	843.23
636.018	863.08
636.466	852.13
636.914	856.23
637.362	859.48
637.81	884.98
638.258	911.18
638.705	915.83
639.153	948.38
639.601	954.23
640.049	973.08
640.497	1005.63
640.944	1039.38
641.392	971.68
641.84	896.93
642.287	847.18
642.735	817.28
643.182	795.83
643.63	789.28
644.078	774.68
644.525	774.33
644.973	791.13
645.42	792.13
645.867	788.08
646.315	789.03
646.762	801.58
647.21	803.68
647.657	804.98
648.104	792.23
648.551	760.98
648.999	760.63
649.446	751.63
649.893	744.48
650.34	752.38
650.787	770.83
651.234	800.33
651.682	870.48
652.129	955.63
652.576	1093.88
653.023	1254.53
653.47	1346.93
653.917	1413.83
654.363	1456.38
654.81	1527.98
655.257	1577.18
655.704	1238.03
656.151	956.38
656.598	835.48
657.044	767.03
657.491	753.18
657.938	741.13
658.385	721.98
658.831	727.43
659.278	723.88
659.724	713.68
660.171	703.08
660.618	676.38
661.064	671.03
661.511	677.78
661.957	681.03
662.404	684.73
662.85	689.13
663.296	700.38
663.743	689.63
664.189	698.43
664.635	707.38
665.082	696.53
665.528	693.88
665.974	681.08
666.42	679.93
666.867	670.68
667.313	637.83
667.759	630.93
668.205	631.88
668.651	634.98
669.097	642.58
669.543	648.83
669.989	655.58
670.435	653.13
670.881	660.73
671.327	698.73
671.773	750.98
672.219	814.28
672.665	877.68
673.11	921.18
673.556	941.73
674.002	986.08
674.448	998.78
674.893	834.03
675.339	716.03
675.785	647.43
676.23	619.28
676.676	590.58
677.122	583.33
677.567	567.03
678.013	542.63
678.458	547.23
678.904	530.03
679.349	535.48
679.794	534.83
680.24	536.73
680.685	523.03
681.131	536.78
681.576	534.13
682.021	538.48
682.466	538.18
682.912	538.98
683.357	574.43
683.802	624.68
684.247	691.53
684.692	743.83
685.137	783.03
685.583	813.33
686.028	866.08
686.473	809.68
686.918	688.08
687.363	622.83
687.807	594.03
688.252	556.53
688.697	539.68
689.142	522.03
689.587	520.58
690.032	534.58
690.477	556.08
690.921	588.58
691.366	623.18
691.811	645.53
692.255	702.08
692.7	863.13
693.145	1229.38
693.589	1897.18
694.034	2309.33
694.478	2529.13
694.923	2369.03
695.367	3480.68
695.812	2050.93
696.256	817.18
696.701	574.73
697.145	535.28
697.59	515.68
698.034	501.33
698.478	500.53
698.922	503.23
699.367	516.18
699.811	545.93
700.255	600.33
700.699	658.78
701.143	722.23
701.588	773.48
702.032	817.53
702.476	834.08
702.92	871.33
703.364	1117.68
703.808	1739.03
704.252	2224.38
704.696	2418.03
705.14	2352.48
705.584	3309.93
706.027	1774.83
706.471	853.48
706.915	620.93
707.359	548.88
707.803	507.43
708.246	488.48
708.69	487.53
709.134	474.93
709.577	478.38
710.021	483.28
710.465	482.73
710.908	479.43
711.352	498.73
711.795	550.63
712.239	596.23
712.682	617.08
713.126	599.28
713.569	698.48
714.012	555.48
714.456	475.08
714.899	446.78
715.342	430.63
715.786	410.43
716.229	397.33
716.672	383.13
717.115	384.63
717.558	393.13
718.002	405.83
718.445	422.38
718.888	450.98
719.331	463.93
719.774	472.63
720.217	459.43
720.66	433.28
721.103	407.78
721.546	387.08
721.989	373.53
722.432	368.43
722.874	367.63
723.317	365.53
723.76	399.63
724.203	497.83
724.645	675.88
725.088	821.23
725.531	825.23
725.974	931.28
726.416	819.78
726.859	480.58
727.301	385.08
727.744	367.58
728.187	367.93
728.629	370.53
729.071	400.93
729.514	414.08
729.956	435.83
730.399	449.73
730.841	445.38
731.283	428.13
731.726	411.63
732.168	422.98
732.61	449.43
733.053	489.03
733.495	549.13
733.937	609.88
734.379	718.38
734.821	913.13
735.263	1435.43
735.705	2606.58
736.148	3937.63
736.59	4082.38
737.032	4577.13
737.474	3724.43
737.916	1374.58
738.357	697.03
738.799	528.38
739.241	485.93
739.683	481.23
740.125	488.38
740.567	502.23
741.008	535.03
741.45	566.13
741.892	587.78
742.334	591.63
742.775	595.73
743.217	562.68
743.658	466.48
744.1	475.58
744.542	536.13
744.983	569.48
745.425	610.98
745.866	593.48
746.307	494.98
746.749	527.23
747.19	773.03
747.632	1509.88
748.073	2874.88
748.514	4067.38
748.956	5589.28
749.397	6617.93
749.838	4521.78
750.279	4451.58
750.72	2223.88
751.162	904.28
751.603	500.53
752.044	404.28
752.485	355.38
752.926	332.58
753.367	318.63
753.808	302.88
754.249	298.38
754.69	299.83
755.131	289.23
755.572	293.38
756.013	293.33
756.453	290.73
756.894	301.68
757.335	298.93
757.776	303.53
758.216	319.23
758.657	334.23
759.098	376.58
759.538	450.08
759.979	653.43
760.42	1312.63
760.86	3379.53
761.301	7266.03
761.741	8958.33
762.182	10813.43
762.622	6803.73
763.063	2326.28
763.503	930.78
763.943	535.43
764.384	418.23
764.824	366.08
765.264	327.73
765.705	313.33
766.145	293.48
766.585	283.18
767.025	272.93
767.465	273.73
767.906	277.43
768.346	301.48
768.786	348.38
769.226	511.08
769.666	1044.43
770.106	2382.48
770.546	3546.08
770.986	4223.83
771.426	3178.43
771.866	1269.18
772.306	547.13
772.745	334.93
773.185	274.23
773.625	265.93
774.065	279.98
774.505	374.13
774.944	667.58
775.384	984.18
775.824	1153.28
776.263	962.73
776.703	499.78
777.142	294.73
777.582	218.23
778.021	205.28
778.461	193.18
778.9	199.18
779.34	190.58
779.779	182.83
780.219	177.73
780.658	174.13
781.097	178.08
781.537	171.43
781.976	172.18
782.415	167.63
782.855	166.93
783.294	162.48
783.733	164.58
784.172	170.88
784.611	167.63
785.05	170.68
785.489	181.48
785.928	182.53
786.367	191.03
786.806	198.08
787.245	221.93
787.684	225.73
788.123	221.28
788.562	214.18
789.001	201.63
789.44	199.28
789.879	199.08
790.317	195.58
790.756	212.38
791.195	244.08
791.634	331.73
792.072	593.18
792.511	1500.93
792.95	2886.28
793.388	3663.68
793.827	2380.13
794.265	1035.68
794.704	487.73
795.142	293.13
795.581	238.68
796.019	212.93
796.458	213.28
796.896	222.93
797.334	255.48
797.773	345.08
798.211	666.13
798.649	1432.28
799.087	2468.88
799.526	3505.98
799.964	3712.98
800.402	2590.23
800.84	1126.13
801.278	528.73
801.716	318.98
802.154	249.83
802.592	238.23
803.03	237.73
803.468	247.18
803.906	250.73
804.344	241.13
804.782	235.68
805.22	234.58
805.658	239.63
806.096	257.88
806.533	286.63
806.971	373.88
807.409	546.78
807.847	1089.33
808.284	2825.73
808.722	5162.13
809.16	7267.03
809.597	9708.03
810.035	12552.43
810.472	8238.18
810.91	3332.13
811.347	1462.88
811.785	690.18
812.222	425.63
812.66	333.13
813.097	277.83
813.535	241.78
813.972	214.83
814.409	197.58
814.846	189.58
815.284	176.58
815.721	180.43
816.158	193.58
816.595	257.63
817.032	326.88
817.47	312.53
817.907	217.43
818.344	197.98
818.781	189.43
819.218	226.73
819.655	341.58
820.092	459.43
820.529	416.88
820.966	326.13
821.403	224.43
821.839	187.18
822.276	210.08
822.713	254.78
823.15	246.38
823.587	250.63
824.023	449.68
824.46	1179.58
824.897	2160.98
825.333	1723.03
825.77	755.73
826.206	381.88
826.643	219.18
827.08	162.63
827.516	141.33
827.953	131.08
828.389	124.78
828.825	123.88
829.262	113.13
829.698	110.13
830.135	104.43
830.571	106.58
831.007	104.73
831.443	111.48
831.88	105.33
832.316	108.93
832.752	111.23
833.188	110.98
833.624	112.83
834.06	112.43
834.497	113.38
834.933	117.63
835.369	128.58
835.805	137.03
836.241	140.88
836.677	157.53
837.112	183.08
837.548	224.18
837.984	333.63
838.42	726.88
838.856	2067.18
839.292	4314.28
839.727	3230.88
840.163	2051.88
840.599	3101.18
841.034	5045.83
841.47	2521.28
841.906	1165.03
842.341	602.43
842.777	429.23
843.212	443.68
843.648	272.98
844.083	186.33
844.519	136.53
844.954	119.98
845.39	107.53
845.825	101.88
846.261	97.08
846.696	96.78
847.131	91.48
847.566	94.63
848.002	94.43
848.437	102.83
848.872	101.38
849.307	136.38
849.742	240.93
850.177	673.63
850.613	1525.48
851.048	1111.68
851.483	482.73
851.918	258.33
852.353	135.13
852.788	98.03
853.223	89.88
853.657	85.58
854.092	79.83
854.527	77.18
854.962	84.48
855.397	93.93
855.832	81.13
856.266	66.03
856.701	67.83
857.136	73.98
857.57	86.73
858.005	105.33
858.44	91.83
858.874	89.93
859.309	85.63
859.743	89.18
860.178	83.63
860.612	90.28
861.047	125.28
861.481	171.43
861.915	114.83
862.35	89.93
862.784	69.48
863.218	63.33
863.653	74.43
864.087	85.93
864.521	108.88
864.955	194.48
865.39	356.28
865.824	253.68
866.258	304.68
866.692	469.93
867.126	340.63
867.56	179.83
867.994	111.63
868.428	98.63
868.862	118.93
869.296	111.98
869.73	138.73
870.164	118.93
870.598	109.73
871.031	69.53
871.465	66.93
871.899	52.93
872.333	45.88
872.766	47.28
873.2	50.33
873.634	43.98
874.067	52.43
874.501	53.93
874.935	47.03
875.368	57.03
875.802	47.83
876.235	46.28
876.669	43.18
877.102	35.98
877.535	37.33
877.969	38.63
878.402	38.68
878.836	38.58
879.269	37.33
879.702	38.63
880.135	40.63
880.569	41.13
881.002	35.88
881.435	37.78
881.868	33.38
882.301	36.03
882.734	36.03
883.167	42.33
883.601	35.58
884.034	36.13
884.467	32.58
884.899	33.93
885.332	30.33
885.765	30.03
886.198	35.58
886.631	32.28
887.064	35.53
887.497	29.03
887.929	34.68
888.362	29.43
888.795	28.43
889.228	34.43
889.66	29.83
890.093	32.23
890.526	31.13
890.958	33.18
891.391	39.38
891.823	29.23
892.256	31.83
892.688	31.73
893.121	24.68
893.553	30.43
893.985	24.68
894.418	27.38
894.85	32.13
895.282	28.28
895.715	25.43
896.147	21.63
896.579	23.48
897.011	29.48
897.444	27.28
897.876	21.13
898.308	25.03
898.74	31.63
899.172	31.28
899.604	26.98
900.036	28.13
900.468	23.28
900.9	33.18
901.332	35.98
901.764	41.88
902.196	36.23
902.628	34.73
903.06	53.38
903.491	62.38
903.923	47.13
904.355	49.23
904.787	49.33
905.218	42.83
905.65	43.48
906.082	36.03
906.513	34.48
906.945	37.18
907.376	31.03
907.808	33.18
908.239	38.63
908.671	45.38
909.102	48.23
909.534	68.83
909.965	122.68
910.397	345.23
910.828	1038.43
911.259	632.58
911.691	327.23
912.122	185.43
912.553	94.18
912.984	48.48
913.415	47.73
913.847	39.98
914.278	30.93
914.709	32.58
915.14	27.18
915.571	33.23
916.002	28.38
916.433	28.83
916.864	29.58
917.295	31.48
917.726	35.18
918.157	51.03
918.587	49.08
919.018	42.18
919.449	41.58
919.88	44.48
920.311	68.88
920.741	213.48
921.172	388.38
921.603	184.58
922.033	112.48
922.464	72.03
922.895	40.98
923.325	31.13
923.756	23.63
924.186	33.18
924.617	47.88
925.047	73.38
925.478	63.78
925.908	40.68
926.338	34.18
926.769	25.88
927.199	32.73
927.629	25.98
928.06	27.28
928.49	28.73
928.92	23.03
929.35	23.28
929.78	18.83
930.21	17.23
930.641	12.38
931.071	15.28
931.501	13.68
931.931	13.38
932.361	15.83
932.791	17.28
933.221	16.78
933.651	27.48
934.08	51.38
934.51	30.48
934.94	23.23
935.37	19.08
935.8	14.63
936.229	11.33
936.659	18.48
937.089	23.68
937.519	34.58
937.948	55.68
938.378	30.38
938.807	16.98
939.237	8.93
939.666	14.63
940.096	7.93
940.525	3.48
940.955	10.33
941.384	6.63
941.814	8.48
942.243	10.48
942.672	7.78
943.102	5.08
943.531	8.18
943.96	5.48
944.39	7.43
944.819	7.63
945.248	5.53
945.677	7.63
946.106	8.68
946.535	10.33
946.964	5.38
947.393	3.28
947.822	8.58
948.251	6.38
948.68	9.13
949.109	6.48
949.538	5.28
949.967	2.98
950.396	7.33
950.825	5.83
951.254	7.28
951.682	0.48
952.111	1.88
952.54	6.38
952.969	6.08
953.397	-0.72
953.826	1.68
954.254	7.53
954.683	5.98
955.112	12.18
955.54	5.83
955.969	5.88
956.397	5.18
956.826	3.23
957.254	6.48
957.682	8.38
958.111	7.33
958.539	6.53
958.967	1.38
959.396	8.03
959.824	4.48
960.252	4.43
960.68	4.03
961.109	7.53
961.537	10.88
961.965	-1.87
962.393	2.98
962.821	5.78
963.249	4.63
963.677	5.18
964.105	62.18
964.533	108.93
964.961	54.98
965.389	29.23
965.817	18.18
966.245	8.33
966.672	6.53
967.1	10.93
967.528	0.63
967.956	0.63
968.383	4.43
968.811	3.33
969.239	3.63
969.666	4.53
970.094	4.53
970.522	-0.87
970.949	5.18
971.377	-1.62
971.804	1.53
972.232	-0.02
972.659	1.53
973.087	4.43
973.514	1.13
973.941	-0.42
974.369	0.93
974.796	-0.72
975.223	0.93
975.651	8.18
976.078	1.68
976.505	9.93
976.932	22.93
977.359	32.18
977.786	19.43
978.214	12.38
978.641	4.58
979.068	1.28
979.495	6.88
979.922	2.28
980.349	5.23
980.776	6.43
981.202	3.13
981.629	8.08
982.056	1.38
982.483	-0.07
982.91	8.88
983.337	-0.47
983.763	3.53
984.19	7.98
984.617	-0.62
985.043	4.48
985.47	7.83
985.897	3.53
986.323	5.33
986.75	3.08
987.176	2.43
987.603	4.08
988.029	2.03
988.456	5.93
988.882	0.68
989.308	1.13
989.735	1.23
990.161	5.18
990.587	0.08
991.014	8.58
991.44	2.63
991.866	1.63
992.292	0.53
992.719	1.93
993.145	4.78
993.571	2.63
993.997	7.68
994.423	4.58
994.849	-1.32
995.275	4.23
995.701	-0.67
996.127	-7.37
996.553	4.08
996.979	-1.17
997.405	5.73
997.83	1.53
998.256	2.88
998.682	-1.07
999.108	0.48
999.534	-1.82
999.959	-0.12
1000.385	7.83
1000.811	-3.87
1001.236	-4.72
1001.662	3.58
1002.087	5.98
1002.513	1.48
1002.938	0.18
1003.364	-0.82
1003.789	3.73
1004.215	2.88
1004.64	7.13
1005.066	2.58
1005.491	7.83
1005.916	2.23
1006.342	4.83
1006.767	0.93
1007.192	6.83
1007.617	-3.17
1008.042	-0.07
1008.468	2.53
1008.893	4.23
1009.318	5.23
1009.743	8.68
1010.168	16.98
1010.593	18.23
1011.018	11.38
1011.443	4.88
1011.868	6.13
1012.293	5.13
1012.718	-1.42
1013.143	-0.22
1013.567	2.68
1013.992	4.88
1014.417	6.88
1014.842	0.28
1015.267	0.93
1015.691	4.13
1016.116	6.08
1016.541	3.53
1016.965	1.98
1017.39	2.23
1017.814	-1.07
1018.239	-0.72
1018.663	-3.77
1019.088	-1.82
1019.512	4.48
1019.937	3.23
1020.361	4.58
1020.785	1.13
1021.21	-3.87
1021.634	2.93
1022.058	4.38
1022.483	-2.12
1022.907	-2.62
1023.331	0.28
1023.755	1.28
1024.179	-0.67
1024.604	1.08
1025.028	0.28
1025.452	5.03
1025.876	1.43
1026.3	1.83
1026.724	1.78
1027.148	0.08
1027.572	-0.02
1027.996	1.13
1028.42	3.23
1028.843	2.53
1029.267	3.33
1029.691	0.98
1030.115	1.18
1030.539	0.28
1030.962	-5.37
1031.386	-4.02
1031.81	-3.12
1032.233	-1.32
1032.657	-7.07
1033.08	1.53
1033.504	-7.07
1033.927	-2.17
1034.351	-1.12
1034.774	-1.47
1035.198	0.48
1035.621	0.98
1036.045	1.53
1036.468	2.03
1036.891	-1.42
1037.315	4.88
1037.738	2.83
1038.161	1.63
1038.584	0.33
1039.008	-0.32
1039.431	-1.12
1039.854	-8.47
1040.277	1.48
1040.7	1.28
1041.123	2.48
1041.546	1.33
1041.969	3.83
1042.392	4.78
1042.815	-5.82
1043.238	-1.32
1043.661	-0.77
1044.084	-3.87
1044.507	-3.57
1044.93	-0.97
1045.352	0.68
1045.775	0.53
1046.198	7.03
1046.621	0.38
1047.043	-3.37
1047.466	3.23
1047.889	-1.17
1048.311	2.63
1048.734	-3.17
1049.156	0.48
1049.579	-1.97
1050.001	-4.52
1050.424	0.68
1050.846	-3.47
1051.269	-2.77
1051.691	-4.17
1052.113	0.28
1052.536	-4.17
1052.958	-8.32
1053.38	-1.12
1053.802	-1.42
1054.225	4.03
1054.647	3.93
1055.069	-0.47
1055.491	2.48
1055.913	1.08
1056.335	-6.57
1056.757	-3.22
1057.179	-0.17
1057.601	-1.22
1058.023	4.58
1058.445	-3.67
1058.867	0.93
1059.289	-2.37
1059.711	-5.97
1060.133	3.03
1060.555	-0.67
1060.976	2.53
1061.398	-0.92
1061.82	0.88
1062.241	0.53
1062.663	-4.07
1063.085	-3.22
1063.506	-5.12
1063.928	-6.12
1064.35	-1.02
1064.771	-1.37
1065.193	-3.57
1065.614	-1.62
1066.035	5.58
1066.457	7.38
1066.878	1.28
1067.3	-4.57
1067.721	1.23
1068.142	3.73
1068.564	0.63
1068.985	-2.47
1069.406	-3.52
1069.827	-0.47
1070.248	-5.02
1070.67	-1.77
1071.091	-2.27
1071.512	-3.07
1071.933	-4.02
1072.354	-8.27
1072.775	-1.67
1073.196	0.93
1073.617	-8.32
1074.038	-1.17
1074.459	-1.32
1074.88	0.63
1075.3	-0.02
1075.721	-3.62
1076.142	-0.52
1076.563	-7.72
1076.983	3.58
1077.404	-7.47
1077.825	1.28
1078.246	-8.07
1078.666	-2.47
1079.087	-3.02
1079.507	-6.92
1079.928	-0.42
1080.348	-1.62
1080.769	1.13
1081.189	-6.97
1081.61	-5.32
1082.03	-2.57
1082.451	0.33
1082.871	-8.02
1083.291	-6.12
1083.711	1.28
1084.132	-3.37
1084.552	-2.27
1084.972	-7.72
1085.392	-4.37
1085.813	2.93
1086.233	-5.37
1086.653	0.78
1087.073	-2.92
1087.493	-1.92
1087.913	-6.17
1088.333	-1.27
1088.753	-3.02
1089.173	2.73
1089.593	0.38
1090.013	-3.97
1090.433	-7.87
1090.852	1.68
1091.272	-0.67
1091.692	-0.12
1092.112	-4.37
1092.531	-5.22
1092.951	-3.52
1093.371	-1.07
1093.79	-3.92
1094.21	-2.22
1094.63	-3.02
1095.049	-3.32
1095.469	-10.07
1095.888	1.13
1096.308	3.98
1096.727	-3.72
1097.146	-0.77
1097.566	-0.72
1097.985	-3.72
1098.405	-0.52
1098.824	1.58
1099.243	-1.07
1099.662	-1.12
1100.082	1.58
1100.501	0.43
1100.92	5.43
1101.339	-1.97
1101.758	-1.47
