Data from MSPlasma+Separation6_Subt14_10-12-47-713.txt Node
Date: Fri Jul 21 10:12:47 EDT 2017
User: Ender
Spectrometer: HR+D1039
Trigger mode: 0
Integration Time (sec): 6.430000E-3
Scans to average: 20
Electric dark correction enabled: true
Nonlinearity correction enabled: false
Boxcar width: 0
XAxis mode: Wavelengths
Number of Pixels in Spectrum: 2048
>>>>>Begin Spectral Data<<<<<
187.836	2.79
188.309	2.79
188.782	2.79
189.255	2.59
189.728	5.19
190.201	-3.56
190.674	-0.51
191.147	-3.56
191.619	1.84
192.092	0.54
192.565	-2.46
193.038	2.99
193.511	-3.01
193.984	-0.91
194.456	-0.46
194.929	1.99
195.402	-3.66
195.874	0.14
196.347	0.24
196.82	2.09
197.292	-4.41
197.765	-1.71
198.237	-0.91
198.71	-4.51
199.182	2.84
199.655	4.24
200.127	-1.06
200.6	-0.66
201.072	-1.41
201.544	-1.61
202.017	2.34
202.489	2.29
202.961	-3.06
203.433	-1.51
203.906	-3.46
204.378	0.14
204.85	0.29
205.322	-0.56
205.794	1.14
206.266	1.74
206.739	1.69
207.211	-0.41
207.683	-0.91
208.155	3.14
208.627	1.94
209.099	2.39
209.57	2.59
210.042	2.94
210.514	-0.01
210.986	-2.31
211.458	-1.71
211.93	-0.26
212.402	2.94
212.873	-2.21
213.345	-1.81
213.817	1.19
214.288	-2.91
214.76	1.34
215.232	-1.46
215.703	-0.06
216.175	-0.71
216.646	1.94
217.118	1.14
217.589	-2.61
218.061	-2.81
218.532	1.34
219.004	2.29
219.475	0.94
219.946	4.39
220.418	5.24
220.889	1.94
221.36	-0.26
221.832	5.74
222.303	-1.06
222.774	3.79
223.245	2.29
223.717	0.59
224.188	2.19
224.659	1.49
225.13	-0.11
225.601	1.84
226.072	3.59
226.543	4.89
227.014	5.69
227.485	2.74
227.956	6.89
228.427	10.19
228.898	6.14
229.369	1.69
229.839	1.44
230.31	5.59
230.781	5.44
231.252	4.09
231.722	7.09
232.193	2.59
232.664	5.49
233.135	4.74
233.605	5.74
234.076	8.19
234.546	4.64
235.017	3.54
235.487	7.74
235.958	4.99
236.428	15.49
236.899	6.79
237.369	11.34
237.84	8.79
238.31	13.24
238.78	4.79
239.251	5.14
239.721	6.59
240.191	8.54
240.662	7.09
241.132	6.29
241.602	6.09
242.072	8.74
242.542	4.04
243.013	10.69
243.483	9.44
243.953	11.04
244.423	11.19
244.893	10.54
245.363	13.79
245.833	14.44
246.303	9.69
246.773	14.94
247.243	10.84
247.712	14.09
248.182	13.84
248.652	15.54
249.122	16.74
249.592	16.44
250.061	17.24
250.531	11.34
251.001	15.24
251.471	14.79
251.94	17.19
252.41	19.14
252.879	18.94
253.349	23.49
253.818	17.69
254.288	23.14
254.757	19.04
255.227	20.54
255.696	16.79
256.166	28.84
256.635	23.74
257.105	21.64
257.574	21.64
258.043	21.09
258.513	23.19
258.982	20.09
259.451	26.39
259.92	18.79
260.389	19.04
260.859	21.64
261.328	22.54
261.797	23.09
262.266	25.74
262.735	25.49
263.204	21.59
263.673	25.74
264.142	24.99
264.611	24.14
265.08	25.69
265.549	25.29
266.018	27.29
266.487	26.44
266.955	26.59
267.424	30.49
267.893	27.59
268.362	29.99
268.83	29.64
269.299	30.09
269.768	31.44
270.236	29.59
270.705	34.84
271.174	32.84
271.642	27.54
272.111	33.29
272.579	33.59
273.048	32.94
273.516	35.19
273.985	32.49
274.453	32.04
274.922	33.59
275.39	32.14
275.858	34.24
276.327	34.04
276.795	31.59
277.263	37.09
277.731	32.64
278.2	38.69
278.668	32.74
279.136	39.04
279.604	34.69
280.072	36.29
280.54	38.54
281.008	42.44
281.477	40.64
281.945	37.24
282.413	37.99
282.881	42.29
283.348	40.64
283.816	39.79
284.284	42.39
284.752	41.39
285.22	45.44
285.688	44.94
286.156	49.34
286.623	45.09
287.091	42.44
287.559	48.64
288.026	47.39
288.494	46.54
288.962	49.89
289.429	44.09
289.897	43.44
290.364	40.54
290.832	46.84
291.3	47.09
291.767	46.99
292.234	49.89
292.702	52.84
293.169	50.99
293.637	53.89
294.104	53.34
294.571	50.89
295.039	53.29
295.506	48.39
295.973	53.89
296.44	53.59
296.908	57.24
297.375	50.74
297.842	57.84
298.309	56.59
298.776	55.34
299.243	58.24
299.71	60.99
300.177	58.84
300.644	57.49
301.111	60.39
301.578	66.74
302.045	62.24
302.512	59.44
302.979	64.54
303.446	69.89
303.913	67.29
304.379	69.34
304.846	70.84
305.313	74.69
305.78	74.49
306.246	68.84
306.713	71.74
307.18	77.64
307.646	75.34
308.113	72.04
308.579	79.34
309.046	78.59
309.512	79.24
309.979	80.84
310.445	78.29
310.912	80.19
311.378	87.49
311.845	83.34
312.311	80.24
312.777	79.89
313.244	86.99
313.71	85.44
314.176	85.84
314.642	89.44
315.109	86.94
315.575	90.94
316.041	89.49
316.507	85.04
316.973	95.84
317.439	92.59
317.905	98.54
318.371	92.94
318.837	89.49
319.303	94.69
319.769	91.14
320.235	99.64
320.701	97.14
321.167	96.09
321.633	98.39
322.099	92.24
322.564	98.89
323.03	97.49
323.496	101.39
323.962	101.89
324.427	110.69
324.893	104.84
325.359	110.49
325.824	106.29
326.29	110.69
326.755	104.49
327.221	106.49
327.686	110.04
328.152	113.89
328.617	116.29
329.083	119.94
329.548	119.94
330.014	115.39
330.479	122.64
330.944	121.49
331.41	126.49
331.875	117.84
332.34	117.64
332.805	121.39
333.271	122.29
333.736	127.59
334.201	122.24
334.666	126.34
335.131	126.09
335.596	132.34
336.061	126.49
336.526	129.89
336.991	123.59
337.456	122.14
337.921	121.19
338.386	124.94
338.851	124.19
339.316	127.04
339.781	125.29
340.246	133.49
340.711	130.34
341.175	132.29
341.64	134.59
342.105	139.49
342.569	144.99
343.034	144.69
343.499	145.44
343.963	147.09
344.428	150.29
344.893	148.99
345.357	155.69
345.822	151.44
346.286	153.69
346.751	152.09
347.215	159.64
347.679	167.74
348.144	177.09
348.608	173.29
349.073	179.39
349.537	185.64
350.001	179.64
350.465	187.34
350.93	180.89
351.394	189.74
351.858	184.84
352.322	191.59
352.786	188.99
353.25	193.29
353.715	187.54
354.179	199.49
354.643	206.74
355.107	204.94
355.571	201.84
356.035	200.09
356.498	206.14
356.962	200.49
357.426	194.39
357.89	195.74
358.354	193.09
358.818	191.19
359.281	198.34
359.745	201.04
360.209	195.84
360.673	196.74
361.136	201.29
361.6	203.44
362.064	204.79
362.527	206.44
362.991	201.69
363.454	206.64
363.918	209.29
364.381	216.84
364.845	211.39
365.308	212.64
365.772	208.04
366.235	216.69
366.698	211.74
367.162	210.94
367.625	223.09
368.088	223.49
368.552	214.59
369.015	217.69
369.478	220.09
369.941	215.94
370.404	222.49
370.867	226.69
371.331	227.84
371.794	228.79
372.257	232.99
372.72	229.99
373.183	230.49
373.646	235.44
374.109	233.89
374.572	235.84
375.035	233.74
375.497	242.69
375.96	247.24
376.423	249.29
376.886	247.49
377.349	250.89
377.811	254.99
378.274	257.89
378.737	251.04
379.199	253.99
379.662	256.54
380.125	257.99
380.587	263.44
381.05	275.99
381.512	274.39
381.975	277.04
382.437	284.14
382.9	282.74
383.362	282.79
383.825	287.04
384.287	287.04
384.75	290.29
385.212	286.49
385.674	294.59
386.136	300.39
386.599	287.69
387.061	288.49
387.523	290.24
387.985	292.89
388.447	301.04
388.91	301.44
389.372	300.14
389.834	305.64
390.296	296.19
390.758	305.74
391.22	292.79
391.682	297.64
392.144	300.54
392.606	308.79
393.068	318.79
393.529	333.39
393.991	343.34
394.453	324.84
394.915	306.34
395.377	305.79
395.838	308.29
396.3	309.89
396.762	310.04
397.224	313.09
397.685	310.89
398.147	315.54
398.608	321.74
399.07	326.64
399.531	328.64
399.993	335.09
400.454	340.99
400.916	336.14
401.377	343.74
401.839	348.64
402.3	341.74
402.762	364.99
403.223	387.14
403.684	391.39
404.145	371.99
404.607	355.39
405.068	346.14
405.529	351.54
405.99	361.19
406.451	359.29
406.913	352.79
407.374	360.09
407.835	354.84
408.296	362.64
408.757	362.29
409.218	376.39
409.679	378.24
410.14	386.94
410.601	395.99
411.062	402.29
411.522	411.64
411.983	416.54
412.444	422.34
412.905	428.09
413.366	454.04
413.826	479.59
414.287	545.24
414.748	666.24
415.208	683.24
415.669	551.94
416.13	501.94
416.59	490.64
417.051	512.74
417.511	536.44
417.972	581.99
418.432	643.54
418.893	708.09
419.353	684.24
419.814	511.19
420.274	443.49
420.734	441.94
421.195	459.64
421.655	451.29
422.115	461.59
422.576	454.79
423.036	455.34
423.496	479.49
423.956	490.54
424.416	530.14
424.876	600.44
425.336	587.39
425.797	569.09
426.257	555.39
426.717	508.24
427.177	462.84
427.637	462.89
428.097	467.94
428.556	484.79
429.016	510.09
429.476	507.44
429.936	485.29
430.396	468.49
430.856	479.69
431.315	481.54
431.775	524.84
432.235	575.89
432.694	579.34
433.154	528.94
433.614	525.89
434.073	512.44
434.533	469.54
434.993	452.54
435.452	466.74
435.912	465.44
436.371	479.19
436.83	481.39
437.29	472.69
437.749	469.94
438.209	473.49
438.668	483.89
439.127	497.49
439.587	493.19
440.046	476.99
440.505	496.94
440.964	501.09
441.424	515.29
441.883	527.39
442.342	507.89
442.801	483.64
443.26	493.49
443.719	494.34
444.178	495.34
444.637	494.99
445.096	497.94
445.555	512.09
446.014	508.59
446.473	504.59
446.932	513.54
447.391	522.19
447.849	527.59
448.308	518.74
448.767	520.69
449.226	531.04
449.685	542.19
450.143	559.94
450.602	568.04
451.061	529.99
451.519	534.29
451.978	522.14
452.436	520.54
452.895	528.69
453.353	526.89
453.812	517.69
454.27	526.79
454.729	523.44
455.187	528.74
455.646	529.09
456.104	528.94
456.562	538.09
457.021	540.19
457.479	524.99
457.937	538.34
458.395	553.69
458.854	549.64
459.312	534.14
459.77	542.99
460.228	552.24
460.686	554.99
461.144	562.69
461.602	558.04
462.06	552.69
462.518	562.79
462.976	565.94
463.434	567.94
463.892	578.04
464.35	584.14
464.808	597.59
465.266	605.04
465.724	611.99
466.181	615.64
466.639	605.84
467.097	630.94
467.555	644.79
468.012	651.09
468.47	649.09
468.928	672.49
469.385	688.79
469.843	695.64
470.3	684.14
470.758	710.14
471.215	715.89
471.673	725.89
472.13	744.04
472.588	752.09
473.045	755.59
473.503	762.09
473.96	793.14
474.417	794.34
474.875	822.84
475.332	838.54
475.789	847.14
476.246	856.89
476.704	880.49
477.161	875.84
477.618	890.94
478.075	902.99
478.532	940.69
478.989	952.29
479.446	992.89
479.903	987.59
480.36	1005.69
480.817	1009.89
481.274	1016.94
481.731	1046.09
482.188	1070.44
482.645	1101.59
483.102	1099.79
483.558	1139.69
484.015	1151.59
484.472	1154.59
484.929	1163.04
485.385	1156.89
485.842	1168.24
486.299	1172.99
486.755	1160.74
487.212	1143.89
487.668	1117.29
488.125	1109.99
488.582	1099.79
489.038	1100.64
489.494	1122.49
489.951	1125.69
490.407	1125.84
490.864	1127.14
491.32	1126.24
491.776	1131.94
492.233	1147.89
492.689	1135.24
493.145	1130.94
493.602	1122.24
494.058	1144.64
494.514	1155.99
494.97	1161.44
495.426	1179.94
495.882	1176.19
496.338	1178.59
496.794	1199.09
497.251	1192.99
497.707	1201.34
498.163	1211.84
498.618	1219.04
499.074	1212.24
499.53	1224.54
499.986	1238.84
500.442	1231.19
500.898	1221.39
501.354	1232.54
501.809	1238.84
502.265	1241.79
502.721	1240.84
503.177	1244.89
503.632	1256.24
504.088	1266.74
504.543	1288.09
504.999	1284.14
505.455	1278.89
505.91	1267.14
506.366	1279.59
506.821	1271.99
507.277	1277.49
507.732	1283.79
508.187	1274.14
508.643	1287.59
509.098	1293.39
509.553	1298.54
510.009	1323.39
510.464	1345.44
510.919	1354.94
511.375	1372.84
511.83	1383.54
512.285	1405.44
512.74	1435.24
513.195	1462.14
513.65	1482.89
514.105	1502.94
514.56	1507.64
515.015	1543.99
515.47	1552.09
515.925	1535.34
516.38	1526.64
516.835	1534.29
517.29	1531.09
517.745	1531.74
518.2	1501.14
518.655	1461.94
519.109	1451.34
519.564	1420.89
520.019	1418.59
520.474	1408.19
520.928	1398.89
521.383	1385.29
521.838	1383.59
522.292	1366.04
522.747	1358.34
523.201	1361.29
523.656	1340.29
524.11	1327.99
524.565	1323.69
525.019	1335.84
525.474	1328.79
525.928	1320.04
526.382	1318.34
526.837	1326.84
527.291	1319.19
527.745	1313.29
528.2	1308.59
528.654	1292.74
529.108	1295.99
529.562	1306.04
530.016	1292.84
530.47	1299.89
530.925	1292.54
531.379	1293.74
531.833	1304.34
532.287	1310.04
532.741	1298.09
533.195	1310.74
533.649	1308.69
534.103	1307.19
534.556	1298.54
535.01	1307.69
535.464	1298.64
535.918	1288.79
536.372	1304.79
536.826	1300.34
537.279	1285.24
537.733	1295.19
538.187	1311.64
538.64	1291.94
539.094	1303.64
539.548	1327.54
540.001	1329.64
540.455	1333.29
540.908	1342.34
541.362	1360.59
541.815	1367.39
542.269	1401.99
542.722	1390.29
543.175	1411.94
543.629	1410.04
544.082	1436.44
544.536	1444.39
544.989	1451.54
545.442	1462.19
545.895	1461.39
546.349	1447.74
546.802	1462.74
547.255	1463.49
547.708	1477.99
548.161	1495.64
548.614	1484.04
549.067	1493.59
549.52	1493.14
549.973	1473.69
550.426	1468.29
550.879	1449.24
551.332	1448.09
551.785	1467.24
552.238	1466.09
552.691	1474.64
553.144	1492.29
553.596	1531.64
554.049	1545.44
554.502	1587.79
554.955	1616.24
555.407	1626.94
555.86	1608.44
556.313	1586.34
556.765	1574.39
557.218	1552.99
557.67	1545.14
558.123	1519.14
558.576	1511.99
559.028	1509.64
559.48	1554.14
559.933	1525.49
560.385	1485.64
560.838	1429.54
561.29	1384.39
561.742	1377.89
562.195	1337.19
562.647	1335.84
563.099	1332.49
563.551	1324.59
564.004	1328.49
564.456	1325.34
564.908	1289.14
565.36	1264.14
565.812	1235.44
566.264	1222.29
566.716	1197.84
567.168	1183.94
567.62	1185.64
568.072	1183.74
568.524	1166.94
568.976	1172.09
569.428	1148.49
569.88	1143.09
570.332	1157.24
570.784	1164.14
571.235	1155.99
571.687	1167.49
572.139	1167.59
572.59	1184.94
573.042	1194.94
573.494	1188.84
573.945	1163.14
574.397	1140.94
574.849	1135.44
575.3	1139.49
575.752	1122.49
576.203	1114.49
576.655	1120.94
577.106	1103.14
577.557	1100.74
578.009	1091.34
578.46	1087.69
578.912	1080.24
579.363	1082.09
579.814	1094.04
580.265	1092.74
580.717	1090.44
581.168	1085.79
581.619	1094.44
582.07	1102.74
582.521	1098.19
582.972	1089.24
583.423	1089.79
583.875	1103.24
584.326	1110.39
584.777	1135.24
585.227	1156.39
585.678	1170.64
586.129	1178.44
586.58	1192.69
587.031	1211.84
587.482	1245.64
587.933	1251.44
588.384	1259.64
588.834	1251.14
589.285	1233.24
589.736	1236.99
590.186	1239.84
590.637	1235.29
591.088	1203.44
591.538	1177.79
591.989	1153.34
592.439	1142.64
592.89	1136.14
593.34	1126.34
593.791	1114.49
594.241	1103.09
594.692	1098.44
595.142	1105.44
595.593	1108.04
596.043	1109.39
596.493	1118.14
596.943	1120.79
597.394	1142.79
597.844	1167.94
598.294	1187.79
598.744	1228.49
599.195	1295.59
599.645	1384.64
600.095	1465.74
600.545	1537.59
600.995	1611.94
601.445	1677.79
601.895	1765.54
602.345	1817.09
602.795	1795.24
603.245	1708.79
603.695	1593.79
604.145	1500.24
604.594	1423.19
605.044	1344.34
605.494	1246.09
605.944	1179.69
606.393	1158.89
606.843	1133.09
607.293	1137.34
607.743	1129.19
608.192	1131.49
608.642	1138.54
609.091	1134.29
609.541	1138.74
609.99	1142.39
610.44	1113.74
610.889	1090.84
611.339	1081.69
611.788	1057.64
612.238	1071.19
612.687	1061.24
613.136	1070.79
613.586	1089.19
614.035	1086.84
614.484	1093.49
614.933	1092.39
615.383	1076.94
615.832	1047.79
616.281	1037.74
616.73	1011.14
617.179	987.34
617.628	968.59
618.077	950.69
618.526	943.04
618.975	939.04
619.424	915.24
619.873	922.04
620.322	913.14
620.771	905.74
621.22	897.54
621.669	874.49
622.118	859.14
622.567	850.94
623.015	839.54
623.464	844.39
623.913	819.44
624.361	824.84
624.81	816.14
625.259	818.29
625.707	818.39
626.156	828.29
626.604	838.49
627.053	841.44
627.501	838.44
627.95	845.99
628.398	850.94
628.847	849.64
629.295	845.44
629.744	844.44
630.192	813.89
630.64	808.29
631.089	788.69
631.537	762.59
631.985	757.64
632.433	750.04
632.881	745.94
633.33	754.04
633.778	750.99
634.226	757.84
634.674	765.69
635.122	768.14
635.57	781.49
636.018	788.94
636.466	795.74
636.914	781.34
637.362	804.64
637.81	807.74
638.258	837.94
638.705	848.19
639.153	880.89
639.601	888.74
640.049	890.94
640.497	923.44
640.944	953.84
641.392	895.24
641.84	822.59
642.287	781.84
642.735	754.24
643.182	733.29
643.63	729.69
644.078	721.64
644.525	724.09
644.973	733.04
645.42	739.69
645.867	730.39
646.315	733.04
646.762	743.64
647.21	735.99
647.657	743.19
648.104	725.94
648.551	699.94
648.999	691.84
649.446	694.69
649.893	692.09
650.34	700.09
650.787	720.99
651.234	746.24
651.682	805.04
652.129	887.49
652.576	1005.59
653.023	1161.19
653.47	1253.84
653.917	1306.09
654.363	1336.39
654.81	1389.49
655.257	1427.74
655.704	1135.69
656.151	887.14
656.598	772.24
657.044	710.19
657.491	705.04
657.938	686.99
658.385	672.99
658.831	671.24
659.278	661.89
659.724	661.54
660.171	650.69
660.618	629.29
661.064	623.14
661.511	621.39
661.957	625.94
662.404	632.94
662.85	638.44
663.296	646.09
663.743	644.99
664.189	639.24
664.635	655.39
665.082	641.64
665.528	636.79
665.974	629.14
666.42	622.34
666.867	614.34
667.313	587.49
667.759	582.34
668.205	585.29
668.651	585.69
669.097	591.99
669.543	597.54
669.989	608.49
670.435	606.69
670.881	615.44
671.327	650.44
671.773	699.64
672.219	757.94
672.665	811.69
673.11	850.89
673.556	865.74
674.002	894.44
674.448	923.59
674.893	770.74
675.339	660.44
675.785	605.14
676.23	569.04
676.676	551.74
677.122	540.19
677.567	523.84
678.013	503.44
678.458	497.89
678.904	501.09
679.349	493.49
679.794	493.69
680.24	492.39
680.685	492.24
681.131	495.89
681.576	491.74
682.021	503.64
682.466	507.49
682.912	505.24
683.357	532.39
683.802	578.94
684.247	652.84
684.692	687.44
685.137	722.24
685.583	742.34
686.028	792.39
686.473	744.14
686.918	631.14
687.363	567.89
687.807	546.74
688.252	518.49
688.697	497.44
689.142	479.14
689.587	478.59
690.032	497.69
690.477	509.44
690.921	545.04
691.366	577.69
691.811	593.44
692.255	651.69
692.7	795.09
693.145	1150.44
693.589	1775.19
694.034	2143.29
694.478	2318.99
694.923	2154.59
695.367	3099.09
695.812	1856.99
696.256	756.54
696.701	533.74
697.145	495.29
697.59	475.24
698.034	469.94
698.478	460.49
698.922	463.84
699.367	478.39
699.811	496.49
700.255	556.29
700.699	607.19
701.143	665.84
701.588	715.59
702.032	754.94
702.476	761.94
702.92	806.49
703.364	1048.79
703.808	1626.44
704.252	2049.74
704.696	2209.64
705.14	2121.79
705.584	2940.04
706.027	1603.79
706.471	786.19
706.915	573.19
707.359	504.64
707.803	464.74
708.246	445.89
708.69	449.99
709.134	438.64
709.577	441.39
710.021	447.54
710.465	444.29
710.908	433.59
711.352	462.24
711.795	505.84
712.239	554.94
712.682	573.59
713.126	560.69
713.569	631.29
714.012	508.29
714.456	434.69
714.899	415.79
715.342	392.39
715.786	378.89
716.229	366.54
716.672	357.49
717.115	356.44
717.558	361.14
718.002	375.49
718.445	390.69
718.888	416.29
719.331	428.34
719.774	438.54
720.217	427.89
720.66	397.69
721.103	377.59
721.546	350.09
721.989	341.79
722.432	341.19
722.874	335.49
723.317	343.94
723.76	371.74
724.203	462.19
724.645	636.59
725.088	753.54
725.531	751.39
725.974	839.14
726.416	743.54
726.859	441.54
727.301	356.74
727.744	333.34
728.187	347.69
728.629	351.14
729.071	372.94
729.514	385.64
729.956	404.79
730.399	409.94
730.841	416.09
731.283	401.79
731.726	384.99
732.168	391.64
732.61	413.34
733.053	447.49
733.495	499.99
733.937	568.74
734.379	667.29
734.821	851.04
735.263	1343.54
735.705	2416.89
736.148	3625.29
736.59	3694.54
737.032	4073.59
737.474	3340.14
737.916	1262.84
738.357	647.09
738.799	478.74
739.241	446.74
739.683	444.09
740.125	455.54
740.567	460.79
741.008	491.29
741.45	514.49
741.892	538.24
742.334	544.79
742.775	546.44
743.217	521.19
743.658	436.34
744.1	441.89
744.542	498.69
744.983	524.19
745.425	553.64
745.866	543.54
746.307	453.29
746.749	488.64
747.19	712.34
747.632	1412.59
748.073	2649.94
748.514	3737.74
748.956	5054.24
749.397	5975.44
749.838	4092.74
750.279	3965.99
750.72	2004.49
751.162	826.59
751.603	471.74
752.044	376.84
752.485	327.19
752.926	305.39
753.367	293.14
753.808	281.44
754.249	278.69
754.69	274.54
755.131	270.74
755.572	272.04
756.013	268.09
756.453	269.64
756.894	276.39
757.335	273.24
757.776	277.79
758.216	291.99
758.657	311.29
759.098	346.89
759.538	417.09
759.979	607.04
760.42	1220.99
760.86	3151.94
761.301	6734.94
761.741	8109.34
762.182	9615.89
762.622	6122.74
763.063	2137.84
763.503	857.24
763.943	490.34
764.384	386.29
764.824	327.59
765.264	305.69
765.705	286.74
766.145	270.24
766.585	259.39
767.025	252.79
767.465	252.94
767.906	257.54
768.346	274.29
768.786	321.94
769.226	472.54
769.666	976.74
770.106	2209.74
770.546	3230.89
770.986	3765.04
771.426	2848.54
771.866	1158.49
772.306	504.64
772.745	307.84
773.185	256.29
773.625	246.29
774.065	255.64
774.505	356.09
774.944	622.59
775.384	903.44
775.824	1044.79
776.263	880.24
776.703	462.24
777.142	268.49
777.582	199.44
778.021	188.14
778.461	180.54
778.9	186.94
779.34	172.09
779.779	167.99
780.219	165.74
780.658	161.84
781.097	164.99
781.537	156.84
781.976	158.19
782.415	152.54
782.855	155.44
783.294	153.34
783.733	148.14
784.172	154.99
784.611	153.84
785.05	160.79
785.489	163.14
785.928	173.59
786.367	178.19
786.806	184.74
787.245	202.54
787.684	210.69
788.123	206.94
788.562	195.54
789.001	191.64
789.44	182.34
789.879	186.24
790.317	183.79
790.756	193.39
791.195	221.34
791.634	304.29
792.072	557.54
792.511	1395.29
792.95	2634.49
793.388	3282.24
793.827	2142.39
794.265	945.34
794.704	447.54
795.142	269.64
795.581	218.59
796.019	192.59
796.458	197.29
796.896	207.14
797.334	231.04
797.773	312.99
798.211	619.39
798.649	1317.44
799.087	2240.89
799.526	3174.84
799.964	3321.64
800.402	2327.64
800.84	1021.64
801.278	488.09
801.716	290.09
802.154	227.49
802.592	218.04
803.03	215.39
803.468	223.94
803.906	226.94
804.344	216.09
804.782	213.59
805.22	213.49
805.658	229.14
806.096	238.29
806.533	268.04
806.971	344.29
807.409	502.69
807.847	1002.09
808.284	2585.39
808.722	4675.34
809.16	6592.54
809.597	8861.29
810.035	11307.49
810.472	7403.29
810.91	3065.74
811.347	1356.39
811.785	632.84
812.222	393.34
812.66	302.49
813.097	253.19
813.535	220.79
813.972	203.54
814.409	180.79
814.846	172.09
815.284	166.09
815.721	165.64
816.158	181.44
816.595	239.34
817.032	307.29
817.47	276.64
817.907	199.19
818.344	177.79
818.781	178.54
819.218	209.19
819.655	318.94
820.092	418.14
820.529	381.29
820.966	297.69
821.403	206.04
821.839	177.74
822.276	193.59
822.713	235.94
823.15	223.24
823.587	232.69
824.023	422.59
824.46	1078.84
824.897	1948.64
825.333	1545.14
825.77	682.44
826.206	350.34
826.643	202.44
827.08	154.99
827.516	133.24
827.953	122.34
828.389	120.64
828.825	110.34
829.262	104.94
829.698	98.59
830.135	97.14
830.571	97.09
831.007	95.34
831.443	96.09
831.88	99.99
832.316	105.34
832.752	102.89
833.188	106.74
833.624	104.04
834.06	105.84
834.497	107.89
834.933	106.79
835.369	120.39
835.805	122.89
836.241	124.14
836.677	146.99
837.112	168.24
837.548	212.04
837.984	311.04
838.42	668.29
838.856	1894.24
839.292	3850.44
839.727	2895.54
840.163	1888.74
840.599	2829.84
841.034	4530.99
841.47	2278.39
841.906	1065.89
842.341	551.79
842.777	394.89
843.212	396.59
843.648	250.54
844.083	171.34
844.519	130.04
844.954	109.44
845.39	101.19
845.825	90.79
846.261	92.84
846.696	86.74
847.131	85.29
847.566	86.04
848.002	86.24
848.437	95.94
848.872	98.29
849.307	128.64
849.742	226.49
850.177	622.79
850.613	1370.04
851.048	996.64
851.483	439.59
851.918	238.84
852.353	128.89
852.788	90.39
853.223	81.09
853.657	76.34
854.092	73.14
854.527	69.74
854.962	73.94
855.397	83.49
855.832	71.69
856.266	60.19
856.701	62.29
857.136	67.24
857.57	76.34
858.005	98.39
858.44	84.19
858.874	85.19
859.309	84.24
859.743	78.49
860.178	76.29
860.612	84.54
861.047	111.34
861.481	155.94
861.915	108.24
862.35	75.99
862.784	59.39
863.218	57.64
863.653	66.89
864.087	82.69
864.521	107.44
864.955	176.54
865.39	311.94
865.824	229.79
866.258	281.14
866.692	427.39
867.126	308.64
867.56	168.04
867.994	103.99
868.428	91.49
868.862	110.59
869.296	100.24
869.73	125.84
870.164	106.54
870.598	96.14
871.031	69.99
871.465	63.29
871.899	47.49
872.333	40.74
872.766	45.79
873.2	45.39
873.634	41.84
874.067	46.44
874.501	47.84
874.935	47.19
875.368	48.34
875.802	42.69
876.235	41.54
876.669	39.54
877.102	33.69
877.535	40.79
877.969	36.94
878.402	39.84
878.836	36.49
879.269	33.09
879.702	32.59
880.135	34.04
880.569	35.19
881.002	27.64
881.435	34.89
881.868	33.79
882.301	34.39
882.734	33.04
883.167	38.14
883.601	34.64
884.034	36.14
884.467	29.74
884.899	30.89
885.332	28.04
885.765	27.14
886.198	27.19
886.631	30.39
887.064	31.54
887.497	27.54
887.929	31.14
888.362	27.59
888.795	26.69
889.228	31.19
889.66	23.89
890.093	28.49
890.526	28.14
890.958	28.24
891.391	29.64
891.823	24.99
892.256	24.84
892.688	25.59
893.121	26.94
893.553	29.39
893.985	28.59
894.418	22.34
894.85	27.79
895.282	29.64
895.715	29.04
896.147	25.74
896.579	23.94
897.011	30.49
897.444	24.89
897.876	18.89
898.308	23.14
898.74	26.69
899.172	29.14
899.604	24.04
900.036	24.09
900.468	23.84
900.9	29.24
901.332	34.34
901.764	36.79
902.196	33.09
902.628	33.89
903.06	47.44
903.491	50.74
903.923	41.54
904.355	39.34
904.787	44.24
905.218	38.44
905.65	38.04
906.082	31.69
906.513	27.94
906.945	32.84
907.376	29.89
907.808	29.09
908.239	34.09
908.671	40.44
909.102	44.34
909.534	61.04
909.965	120.39
910.397	309.89
910.828	927.29
911.259	572.39
911.691	296.99
912.122	171.44
912.553	86.24
912.984	44.09
913.415	37.69
913.847	31.29
914.278	32.44
914.709	28.69
915.14	30.69
915.571	31.89
916.002	28.69
916.433	24.29
916.864	24.09
917.295	28.89
917.726	31.44
918.157	41.29
918.587	38.14
919.018	39.24
919.449	36.34
919.88	38.39
920.311	64.39
920.741	189.34
921.172	343.04
921.603	163.74
922.033	103.64
922.464	68.74
922.895	39.74
923.325	28.99
923.756	24.34
924.186	35.04
924.617	46.79
925.047	65.49
925.478	55.39
925.908	39.39
926.338	34.29
926.769	25.59
927.199	30.44
927.629	24.89
928.06	26.04
928.49	24.64
928.92	19.34
929.35	22.39
929.78	12.29
930.21	19.59
930.641	10.44
931.071	15.14
931.501	12.74
931.931	13.29
932.361	15.19
932.791	18.89
933.221	19.94
933.651	26.44
934.08	47.04
934.51	25.29
934.94	21.49
935.37	17.14
935.8	17.74
936.229	14.69
936.659	10.89
937.089	16.69
937.519	36.49
937.948	46.99
938.378	27.94
938.807	19.99
939.237	6.74
939.666	15.44
940.096	8.09
940.525	4.29
940.955	9.14
941.384	7.49
941.814	7.99
942.243	3.79
942.672	3.44
943.102	6.44
943.531	0.99
943.96	1.34
944.39	2.79
944.819	10.19
945.248	6.79
945.677	7.79
946.106	8.19
946.535	7.59
946.964	4.44
947.393	3.69
947.822	5.74
948.251	10.79
948.68	10.39
949.109	5.04
949.538	6.19
949.967	5.94
950.396	5.19
950.825	6.49
951.254	9.24
951.682	3.94
952.111	-0.36
952.54	0.94
952.969	2.44
953.397	0.59
953.826	1.94
954.254	11.89
954.683	0.44
955.112	4.74
955.54	1.59
955.969	6.24
956.397	9.14
956.826	2.34
957.254	3.49
957.682	-0.21
958.111	6.39
958.539	4.64
958.967	4.14
959.396	9.44
959.824	2.14
960.252	3.54
960.68	5.69
961.109	7.69
961.537	9.44
961.965	-2.01
962.393	3.09
962.821	5.54
963.249	6.09
963.677	10.64
964.105	56.89
964.533	98.94
964.961	46.64
965.389	26.34
965.817	14.74
966.245	9.29
966.672	6.44
967.1	10.24
967.528	-2.96
967.956	7.74
968.383	2.99
968.811	3.79
969.239	5.64
969.666	4.84
970.094	2.24
970.522	0.99
970.949	4.39
971.377	0.14
971.804	3.69
972.232	-0.01
972.659	3.99
973.087	0.09
973.514	2.64
973.941	-0.31
974.369	3.39
974.796	3.29
975.223	2.89
975.651	3.24
976.078	2.14
976.505	10.44
976.932	21.44
977.359	28.79
977.786	18.49
978.214	13.24
978.641	4.29
979.068	5.44
979.495	6.09
979.922	5.09
980.349	3.29
980.776	3.29
981.202	5.44
981.629	6.94
982.056	3.39
982.483	-3.21
982.91	4.99
983.337	1.74
983.763	2.89
984.19	7.49
984.617	0.59
985.043	2.44
985.47	3.74
985.897	4.24
986.323	5.49
986.75	0.54
987.176	0.04
987.603	1.99
988.029	4.34
988.456	4.59
988.882	1.54
989.308	-1.66
989.735	0.99
990.161	2.44
990.587	1.34
991.014	1.69
991.44	1.24
991.866	2.04
992.292	-0.51
992.719	1.74
993.145	4.39
993.571	6.64
993.997	2.94
994.423	5.19
994.849	-2.76
995.275	4.14
995.701	10.94
996.127	1.29
996.553	0.44
996.979	-2.91
997.405	8.99
997.83	2.84
998.256	1.49
998.682	3.14
999.108	4.99
999.534	-5.71
999.959	0.89
1000.385	7.24
1000.811	-3.56
1001.236	-7.81
1001.662	2.59
1002.087	8.04
1002.513	3.69
1002.938	4.59
1003.364	2.79
1003.789	5.09
1004.215	-2.11
1004.64	1.59
1005.066	1.89
1005.491	6.54
1005.916	-0.96
1006.342	5.39
1006.767	-2.01
1007.192	5.09
1007.617	0.84
1008.042	1.09
1008.468	4.14
1008.893	4.09
1009.318	5.54
1009.743	9.94
1010.168	15.99
1010.593	16.29
1011.018	7.74
1011.443	8.04
1011.868	3.64
1012.293	5.74
1012.718	-1.01
1013.143	0.64
1013.567	5.34
1013.992	1.49
1014.417	0.74
1014.842	1.04
1015.267	2.39
1015.691	6.29
1016.116	4.14
1016.541	3.29
1016.965	0.89
1017.39	3.39
1017.814	2.39
1018.239	-0.21
1018.663	-3.51
1019.088	-5.21
1019.512	5.34
1019.937	-2.11
1020.361	1.44
1020.785	0.59
1021.21	-4.61
1021.634	2.14
1022.058	3.54
1022.483	-1.76
1022.907	-4.46
1023.331	-0.96
1023.755	0.49
1024.179	1.54
1024.604	5.64
1025.028	3.34
1025.452	-0.41
1025.876	0.09
1026.3	2.99
1026.724	2.24
1027.148	4.54
1027.572	1.99
1027.996	0.24
1028.42	3.04
1028.843	0.14
1029.267	-3.01
1029.691	1.29
1030.115	-0.56
1030.539	-3.41
1030.962	-2.36
1031.386	3.09
1031.81	-0.16
1032.233	-1.01
1032.657	-6.51
1033.08	2.94
1033.504	1.69
1033.927	-2.71
1034.351	-1.76
1034.774	-0.76
1035.198	-3.86
1035.621	1.14
1036.045	-1.81
1036.468	6.64
1036.891	-1.01
1037.315	3.29
1037.738	-1.71
1038.161	3.94
1038.584	0.04
1039.008	-3.46
1039.431	-2.71
1039.854	-6.26
1040.277	3.49
1040.7	-1.26
1041.123	3.19
1041.546	-2.31
1041.969	-0.21
1042.392	4.29
1042.815	-3.21
1043.238	-5.76
1043.661	2.19
1044.084	-2.36
1044.507	0.29
1044.93	-0.01
1045.352	-1.36
1045.775	0.74
1046.198	2.14
1046.621	2.44
1047.043	0.04
1047.466	4.34
1047.889	0.64
1048.311	3.54
1048.734	-5.21
1049.156	-4.91
1049.579	-4.31
1050.001	-5.66
1050.424	-3.31
1050.846	-3.96
1051.269	-1.81
1051.691	-5.01
1052.113	1.44
1052.536	-2.61
1052.958	-1.51
1053.38	-2.76
1053.802	-1.01
1054.225	4.44
1054.647	-0.96
1055.069	-0.36
1055.491	2.39
1055.913	0.74
1056.335	-4.96
1056.757	-3.26
1057.179	-2.46
1057.601	-1.96
1058.023	-0.91
1058.445	-6.46
1058.867	5.99
1059.289	-0.36
1059.711	-1.66
1060.133	2.24
1060.555	2.29
1060.976	1.24
1061.398	-1.11
1061.82	0.64
1062.241	-1.06
1062.663	-1.36
1063.085	-5.11
1063.506	-9.81
1063.928	-4.06
1064.35	2.24
1064.771	-1.56
1065.193	1.69
1065.614	-0.41
1066.035	4.84
1066.457	8.04
1066.878	0.64
1067.3	0.99
1067.721	0.84
1068.142	1.29
1068.564	4.09
1068.985	0.14
1069.406	-1.36
1069.827	1.29
1070.248	3.59
1070.67	-5.56
1071.091	-2.86
1071.512	-6.56
1071.933	-0.96
1072.354	-5.81
1072.775	-4.26
1073.196	-1.76
1073.617	-4.36
1074.038	1.94
1074.459	-1.66
1074.88	-0.56
1075.3	0.74
1075.721	3.34
1076.142	-6.96
1076.563	-5.56
1076.983	-0.96
1077.404	-5.76
1077.825	1.19
1078.246	-6.41
1078.666	-8.36
1079.087	-0.01
1079.507	-5.91
1079.928	-2.76
1080.348	-1.96
1080.769	1.99
1081.189	-3.61
1081.61	-7.16
1082.03	-0.11
1082.451	0.89
1082.871	-1.41
1083.291	-0.21
1083.711	-4.36
1084.132	-3.61
1084.552	-2.86
1084.972	-7.96
1085.392	-5.06
1085.813	0.64
1086.233	-5.51
1086.653	3.29
1087.073	-4.36
1087.493	-1.91
1087.913	-5.76
1088.333	-0.16
1088.753	3.59
1089.173	1.19
1089.593	-0.26
1090.013	-5.11
1090.433	-2.71
1090.852	0.44
1091.272	-2.31
1091.692	-1.51
1092.112	-0.71
1092.531	-4.91
1092.951	-1.86
1093.371	-1.61
1093.79	-2.16
1094.21	-1.86
1094.63	0.39
1095.049	-1.01
1095.469	-9.21
1095.888	-1.81
1096.308	2.79
1096.727	-5.91
1097.146	-3.16
1097.566	-2.51
1097.985	-0.96
1098.405	-1.01
1098.824	-1.01
1099.243	-3.01
1099.662	-1.31
1100.082	-0.56
1100.501	0.54
1100.92	7.94
1101.339	1.29
1101.758	3.24
