Data from MSPlasma+Separation6_Subt14_10-13-08-472.txt Node
Date: Fri Jul 21 10:13:08 EDT 2017
User: Ender
Spectrometer: HR+D1039
Trigger mode: 0
Integration Time (sec): 6.430000E-3
Scans to average: 20
Electric dark correction enabled: true
Nonlinearity correction enabled: false
Boxcar width: 0
XAxis mode: Wavelengths
Number of Pixels in Spectrum: 2048
>>>>>Begin Spectral Data<<<<<
187.836	-4.33
188.309	-4.33
188.782	-4.33
189.255	2.07
189.728	3.57
190.201	-1.68
190.674	0.72
191.147	-5.88
191.619	-0.83
192.092	-0.13
192.565	-3.78
193.038	3.67
193.511	5.47
193.984	1.67
194.456	-4.13
194.929	1.02
195.402	2.57
195.874	0.02
196.347	3.62
196.82	2.27
197.292	-1.08
197.765	-0.73
198.237	-2.53
198.71	-3.58
199.182	-0.18
199.655	1.17
200.127	1.72
200.6	2.47
201.072	-1.73
201.544	-1.18
202.017	-0.03
202.489	-1.73
202.961	-1.98
203.433	-3.78
203.906	-0.53
204.378	-2.98
204.85	0.47
205.322	-3.18
205.794	0.22
206.266	-4.58
206.739	2.67
207.211	0.47
207.683	0.57
208.155	2.07
208.627	3.12
209.099	2.27
209.57	2.42
210.042	1.97
210.514	1.92
210.986	-3.88
211.458	-2.08
211.93	2.47
212.402	4.02
212.873	-1.83
213.345	-4.63
213.817	-2.53
214.288	-1.48
214.76	1.47
215.232	-3.28
215.703	-4.83
216.175	-0.93
216.646	1.12
217.118	0.92
217.589	-3.48
218.061	1.62
218.532	-4.63
219.004	-2.78
219.475	1.02
219.946	3.72
220.418	4.92
220.889	2.97
221.36	2.57
221.832	7.72
222.303	5.22
222.774	3.77
223.245	-2.63
223.717	-2.58
224.188	2.32
224.659	1.17
225.13	-0.03
225.601	2.72
226.072	3.42
226.543	4.77
227.014	1.52
227.485	4.72
227.956	9.62
228.427	6.42
228.898	7.77
229.369	0.22
229.839	3.07
230.31	12.02
230.781	7.32
231.252	5.97
231.722	9.47
232.193	5.52
232.664	6.82
233.135	-1.68
233.605	2.37
234.076	8.62
234.546	3.82
235.017	9.22
235.487	3.67
235.958	4.92
236.428	7.12
236.899	8.27
237.369	15.87
237.84	9.97
238.31	13.42
238.78	7.22
239.251	9.72
239.721	3.82
240.191	9.52
240.662	9.47
241.132	9.82
241.602	12.07
242.072	9.62
242.542	10.57
243.013	16.67
243.483	13.12
243.953	10.87
244.423	16.12
244.893	11.97
245.363	13.72
245.833	13.92
246.303	14.72
246.773	16.02
247.243	15.77
247.712	12.12
248.182	16.92
248.652	16.77
249.122	18.02
249.592	13.17
250.061	17.42
250.531	17.37
251.001	15.47
251.471	16.52
251.94	20.17
252.41	18.22
252.879	22.82
253.349	25.97
253.818	17.62
254.288	25.17
254.757	21.17
255.227	17.67
255.696	25.97
256.166	25.57
256.635	24.02
257.105	18.17
257.574	25.17
258.043	28.62
258.513	22.42
258.982	20.67
259.451	25.27
259.92	22.62
260.389	26.67
260.859	23.42
261.328	26.62
261.797	22.42
262.266	25.87
262.735	29.12
263.204	24.02
263.673	26.92
264.142	26.27
264.611	28.67
265.08	29.17
265.549	26.72
266.018	31.57
266.487	28.92
266.955	29.47
267.424	33.87
267.893	33.87
268.362	35.12
268.83	29.42
269.299	29.47
269.768	33.02
270.236	32.62
270.705	38.87
271.174	34.77
271.642	38.27
272.111	33.87
272.579	32.37
273.048	34.22
273.516	43.17
273.985	41.57
274.453	35.37
274.922	30.57
275.39	32.82
275.858	38.72
276.327	39.02
276.795	40.77
277.263	38.32
277.731	39.57
278.2	42.22
278.668	39.62
279.136	43.92
279.604	44.97
280.072	40.42
280.54	42.77
281.008	46.67
281.477	45.37
281.945	43.52
282.413	44.42
282.881	45.92
283.348	42.02
283.816	43.02
284.284	48.07
284.752	48.32
285.22	51.47
285.688	46.57
286.156	48.92
286.623	48.17
287.091	53.42
287.559	53.72
288.026	55.67
288.494	53.42
288.962	51.67
289.429	50.12
289.897	56.57
290.364	50.17
290.832	52.92
291.3	56.87
291.767	56.47
292.234	58.57
292.702	58.47
293.169	57.17
293.637	57.42
294.104	62.22
294.571	56.62
295.039	59.47
295.506	60.32
295.973	58.02
296.44	58.82
296.908	65.17
297.375	64.82
297.842	63.92
298.309	63.27
298.776	59.62
299.243	70.27
299.71	65.47
300.177	64.57
300.644	68.37
301.111	71.27
301.578	72.72
302.045	68.67
302.512	68.77
302.979	70.07
303.446	74.57
303.913	71.62
304.379	77.87
304.846	76.82
305.313	81.17
305.78	84.12
306.246	78.32
306.713	80.42
307.18	79.12
307.646	87.82
308.113	84.92
308.579	89.17
309.046	88.52
309.512	86.97
309.979	92.47
310.445	84.47
310.912	90.02
311.378	95.82
311.845	91.17
312.311	89.47
312.777	91.72
313.244	92.32
313.71	99.37
314.176	98.37
314.642	95.37
315.109	96.57
315.575	96.07
316.041	98.62
316.507	95.92
316.973	106.52
317.439	106.02
317.905	103.07
318.371	103.82
318.837	103.07
319.303	106.97
319.769	106.07
320.235	107.12
320.701	112.17
321.167	105.97
321.633	108.92
322.099	106.62
322.564	112.22
323.03	106.82
323.496	107.47
323.962	113.92
324.427	112.07
324.893	115.37
325.359	121.92
325.824	118.77
326.29	125.57
326.755	117.62
327.221	120.42
327.686	127.47
328.152	126.42
328.617	130.22
329.083	127.52
329.548	131.22
330.014	130.32
330.479	133.37
330.944	134.47
331.41	139.22
331.875	133.42
332.34	132.37
332.805	135.42
333.271	134.77
333.736	137.37
334.201	135.12
334.666	144.22
335.131	140.77
335.596	145.82
336.061	138.62
336.526	141.02
336.991	136.12
337.456	138.12
337.921	134.32
338.386	138.87
338.851	134.17
339.316	140.67
339.781	134.82
340.246	142.87
340.711	145.62
341.175	147.17
341.64	148.57
342.105	157.02
342.569	161.27
343.034	154.62
343.499	155.62
343.963	160.02
344.428	160.52
344.893	164.27
345.357	173.72
345.822	170.27
346.286	175.77
346.751	176.97
347.215	177.67
347.679	180.07
348.144	191.72
348.608	193.02
349.073	193.22
349.537	199.32
350.001	195.27
350.465	197.12
350.93	200.02
351.394	201.07
351.858	199.27
352.322	209.22
352.786	207.12
353.25	206.32
353.715	205.97
354.179	221.72
354.643	221.62
355.107	227.47
355.571	223.32
356.035	221.92
356.498	221.77
356.962	211.52
357.426	217.67
357.89	215.07
358.354	213.02
358.818	208.32
359.281	215.97
359.745	213.32
360.209	210.57
360.673	215.97
361.136	216.67
361.6	219.72
362.064	217.52
362.527	223.87
362.991	223.07
363.454	223.07
363.918	234.02
364.381	231.97
364.845	229.62
365.308	227.07
365.772	233.62
366.235	234.32
366.698	226.97
367.162	231.92
367.625	233.42
368.088	244.12
368.552	233.42
369.015	240.17
369.478	243.62
369.941	238.42
370.404	248.07
370.867	238.62
371.331	250.52
371.794	250.72
372.257	247.92
372.72	248.77
373.183	255.87
373.646	253.67
374.109	254.17
374.572	250.92
375.035	259.22
375.497	257.77
375.96	264.62
376.423	268.72
376.886	273.42
377.349	274.47
377.811	274.32
378.274	279.22
378.737	270.92
379.199	276.37
379.662	279.47
380.125	283.62
380.587	290.62
381.05	289.02
381.512	291.42
381.975	302.57
382.437	310.27
382.9	303.52
383.362	304.72
383.825	308.47
384.287	314.57
384.75	302.77
385.212	310.77
385.674	310.57
386.136	319.07
386.599	316.42
387.061	312.32
387.523	317.92
387.985	321.02
388.447	329.12
388.91	327.62
389.372	322.42
389.834	325.22
390.296	317.47
390.758	326.37
391.22	322.02
391.682	323.12
392.144	320.72
392.606	325.72
393.068	336.32
393.529	356.62
393.991	362.57
394.453	350.52
394.915	337.32
395.377	324.52
395.838	331.22
396.3	329.37
396.762	330.07
397.224	331.72
397.685	337.37
398.147	342.87
398.608	341.77
399.07	347.42
399.531	346.82
399.993	357.97
400.454	359.17
400.916	362.22
401.377	372.52
401.839	371.72
402.3	373.02
402.762	385.87
403.223	421.87
403.684	416.57
404.145	397.27
404.607	383.17
405.068	369.82
405.529	377.32
405.99	379.32
406.451	383.97
406.913	375.82
407.374	379.32
407.835	379.27
408.296	393.37
408.757	390.72
409.218	404.47
409.679	407.62
410.14	413.97
410.601	432.37
411.062	434.27
411.522	444.12
411.983	440.72
412.444	443.02
412.905	459.17
413.366	478.92
413.826	510.37
414.287	582.77
414.748	713.47
415.208	728.22
415.669	598.07
416.13	541.22
416.59	521.82
417.051	546.17
417.511	580.22
417.972	629.67
418.432	681.62
418.893	773.32
419.353	740.02
419.814	547.52
420.274	477.57
420.734	472.87
421.195	483.77
421.655	482.12
422.115	490.12
422.576	490.07
423.036	488.12
423.496	505.47
423.956	522.62
424.416	563.62
424.876	637.72
425.336	636.62
425.797	614.97
426.257	597.42
426.717	554.32
427.177	494.02
427.637	496.52
428.097	496.72
428.556	515.72
429.016	552.67
429.476	542.72
429.936	515.27
430.396	505.97
430.856	511.07
431.315	514.77
431.775	560.02
432.235	615.92
432.694	623.32
433.154	573.77
433.614	557.82
434.073	551.37
434.533	497.37
434.993	491.77
435.452	493.27
435.912	503.77
436.371	510.82
436.83	505.07
437.29	501.02
437.749	494.22
438.209	504.82
438.668	512.77
439.127	524.27
439.587	526.82
440.046	516.22
440.505	528.82
440.964	536.67
441.424	557.47
441.883	565.92
442.342	546.12
442.801	520.37
443.26	526.42
443.719	528.82
444.178	524.62
444.637	538.52
445.096	540.37
445.555	553.02
446.014	541.22
446.473	544.32
446.932	543.92
447.391	551.47
447.849	562.92
448.308	551.52
448.767	555.62
449.226	571.12
449.685	586.42
450.143	605.77
450.602	599.82
451.061	569.02
451.519	571.52
451.978	562.87
452.436	555.37
452.895	564.57
453.353	559.27
453.812	557.92
454.27	560.67
454.729	560.22
455.187	569.27
455.646	568.67
456.104	571.77
456.562	580.87
457.021	586.27
457.479	557.92
457.937	581.22
458.395	594.02
458.854	589.47
459.312	574.67
459.77	584.32
460.228	586.37
460.686	593.52
461.144	599.42
461.602	591.07
462.06	588.07
462.518	603.07
462.976	606.12
463.434	612.37
463.892	621.42
464.35	630.17
464.808	638.92
465.266	651.22
465.724	645.97
466.181	656.72
466.639	649.72
467.097	672.87
467.555	694.97
468.012	691.62
468.47	690.02
468.928	721.32
469.385	740.62
469.843	740.32
470.3	736.67
470.758	753.37
471.215	769.82
471.673	775.62
472.13	795.77
472.588	808.42
473.045	803.42
473.503	816.92
473.96	850.92
474.417	840.07
474.875	876.02
475.332	898.22
475.789	904.72
476.246	920.57
476.704	935.67
477.161	947.12
477.618	950.57
478.075	960.02
478.532	999.82
478.989	1020.12
479.446	1068.47
479.903	1053.42
480.36	1083.87
480.817	1076.62
481.274	1093.67
481.731	1121.82
482.188	1143.72
482.645	1164.87
483.102	1180.02
483.558	1217.92
484.015	1242.17
484.472	1230.52
484.929	1240.17
485.385	1241.97
485.842	1236.72
486.299	1258.32
486.755	1249.87
487.212	1234.62
487.668	1200.92
488.125	1191.17
488.582	1176.62
489.038	1197.17
489.494	1202.42
489.951	1203.42
490.407	1199.92
490.864	1210.32
491.32	1204.17
491.776	1205.32
492.233	1228.27
492.689	1226.42
493.145	1209.87
493.602	1210.17
494.058	1226.02
494.514	1240.37
494.97	1242.27
495.426	1258.27
495.882	1269.22
496.338	1271.72
496.794	1277.47
497.251	1283.67
497.707	1304.22
498.163	1304.37
498.618	1313.32
499.074	1312.32
499.53	1325.67
499.986	1332.12
500.442	1328.87
500.898	1313.02
501.354	1327.42
501.809	1337.62
502.265	1320.57
502.721	1334.57
503.177	1344.02
503.632	1345.92
504.088	1353.12
504.543	1371.62
504.999	1382.32
505.455	1384.57
505.91	1367.87
506.366	1374.97
506.821	1384.37
507.277	1368.32
507.732	1381.42
508.187	1370.72
508.643	1379.97
509.098	1383.77
509.553	1392.12
510.009	1426.17
510.464	1446.82
510.919	1451.87
511.375	1469.57
511.83	1484.82
512.285	1517.77
512.74	1552.62
513.195	1568.87
513.65	1587.12
514.105	1621.12
514.56	1638.72
515.015	1659.97
515.47	1669.17
515.925	1649.22
516.38	1648.72
516.835	1653.62
517.29	1653.72
517.745	1660.57
518.2	1620.22
518.655	1585.42
519.109	1565.22
519.564	1537.67
520.019	1523.97
520.474	1524.77
520.928	1510.92
521.383	1492.97
521.838	1491.97
522.292	1470.87
522.747	1458.72
523.201	1457.22
523.656	1443.97
524.11	1428.47
524.565	1422.47
525.019	1421.32
525.474	1422.47
525.928	1422.57
526.382	1417.32
526.837	1421.52
527.291	1418.37
527.745	1419.57
528.2	1412.77
528.654	1389.37
529.108	1392.77
529.562	1404.97
530.016	1397.22
530.47	1395.77
530.925	1393.52
531.379	1386.47
531.833	1409.97
532.287	1404.12
532.741	1398.17
533.195	1401.87
533.649	1401.07
534.103	1407.87
534.556	1396.47
535.01	1406.47
535.464	1406.32
535.918	1397.67
536.372	1412.32
536.826	1406.42
537.279	1399.02
537.733	1397.87
538.187	1403.37
538.64	1399.42
539.094	1417.82
539.548	1425.87
540.001	1424.77
540.455	1436.82
540.908	1447.07
541.362	1460.62
541.815	1466.02
542.269	1502.17
542.722	1493.42
543.175	1517.92
543.629	1515.27
544.082	1532.67
544.536	1551.07
544.989	1550.92
545.442	1565.57
545.895	1564.52
546.349	1565.02
546.802	1572.27
547.255	1576.87
547.708	1578.97
548.161	1599.92
548.614	1605.52
549.067	1619.67
549.52	1617.07
549.973	1590.77
550.426	1578.87
550.879	1561.92
551.332	1558.17
551.785	1569.42
552.238	1581.57
552.691	1588.07
553.144	1617.92
553.596	1640.07
554.049	1660.67
554.502	1701.67
554.955	1733.02
555.407	1757.57
555.86	1747.97
556.313	1721.72
556.765	1706.47
557.218	1681.82
557.67	1666.32
558.123	1640.62
558.576	1643.17
559.028	1635.17
559.48	1676.72
559.933	1658.52
560.385	1591.07
560.838	1537.42
561.29	1493.57
561.742	1487.67
562.195	1440.32
562.647	1436.57
563.099	1425.07
563.551	1428.37
564.004	1445.97
564.456	1424.27
564.908	1393.42
565.36	1357.42
565.812	1333.22
566.264	1314.12
566.716	1295.02
567.168	1278.92
567.62	1276.67
568.072	1255.17
568.524	1243.92
568.976	1246.07
569.428	1241.02
569.88	1243.17
570.332	1254.32
570.784	1261.07
571.235	1246.32
571.687	1257.77
572.139	1261.82
572.59	1276.17
573.042	1281.97
573.494	1276.27
573.945	1257.52
574.397	1225.52
574.849	1219.57
575.3	1229.62
575.752	1209.02
576.203	1189.57
576.655	1204.22
577.106	1181.47
577.557	1181.07
578.009	1178.67
578.46	1173.67
578.912	1160.87
579.363	1173.77
579.814	1168.32
580.265	1170.37
580.717	1173.97
581.168	1171.37
581.619	1176.82
582.07	1183.27
582.521	1180.02
582.972	1179.82
583.423	1180.92
583.875	1187.47
584.326	1193.92
584.777	1219.67
585.227	1238.52
585.678	1246.82
586.129	1266.42
586.58	1281.47
587.031	1304.52
587.482	1334.97
587.933	1354.82
588.384	1356.52
588.834	1337.27
589.285	1334.27
589.736	1335.62
590.186	1342.82
590.637	1334.32
591.088	1289.47
591.538	1261.87
591.989	1236.02
592.439	1227.92
592.89	1222.92
593.34	1211.87
593.791	1210.12
594.241	1195.52
594.692	1182.27
595.142	1188.87
595.593	1188.22
596.043	1192.72
596.493	1208.42
596.943	1199.57
597.394	1232.07
597.844	1249.52
598.294	1281.02
598.744	1321.57
599.195	1390.37
599.645	1479.07
600.095	1567.57
600.545	1636.27
600.995	1730.72
601.445	1798.47
601.895	1894.62
602.345	1968.32
602.795	1935.97
603.245	1839.52
603.695	1724.77
604.145	1626.92
604.594	1544.47
605.044	1454.57
605.494	1354.37
605.944	1264.87
606.393	1243.62
606.843	1217.67
607.293	1222.47
607.743	1210.82
608.192	1222.82
608.642	1221.37
609.091	1225.37
609.541	1229.97
609.99	1222.02
610.44	1194.77
610.889	1178.97
611.339	1162.32
611.788	1144.82
612.238	1149.62
612.687	1150.47
613.136	1159.52
613.586	1179.77
614.035	1174.07
614.484	1183.17
614.933	1181.67
615.383	1154.72
615.832	1132.52
616.281	1107.92
616.73	1084.92
617.179	1064.27
617.628	1038.92
618.077	1028.92
618.526	1012.42
618.975	998.32
619.424	988.77
619.873	987.42
620.322	983.42
620.771	969.92
621.22	961.77
621.669	946.92
622.118	924.47
622.567	916.37
623.015	896.77
623.464	904.62
623.913	880.82
624.361	886.17
624.81	875.17
625.259	887.32
625.707	879.52
626.156	886.82
626.604	903.52
627.053	908.42
627.501	905.42
627.95	918.17
628.398	921.87
628.847	911.12
629.295	901.62
629.744	901.57
630.192	884.42
630.64	872.57
631.089	857.87
631.537	820.57
631.985	812.62
632.433	810.72
632.881	795.52
633.33	807.97
633.778	804.87
634.226	812.77
634.674	820.77
635.122	826.82
635.57	838.22
636.018	854.72
636.466	847.27
636.914	847.67
637.362	860.47
637.81	874.67
638.258	908.42
638.705	913.72
639.153	943.67
639.601	948.62
640.049	966.87
640.497	1001.27
640.944	1023.37
641.392	964.82
641.84	898.97
642.287	842.62
642.735	798.62
643.182	786.47
643.63	779.52
644.078	778.42
644.525	773.37
644.973	785.57
645.42	780.32
645.867	782.47
646.315	783.97
646.762	790.52
647.21	786.12
647.657	800.77
648.104	790.17
648.551	755.57
648.999	747.32
649.446	744.22
649.893	745.67
650.34	739.57
650.787	766.07
651.234	798.52
651.682	859.22
652.129	951.92
652.576	1067.32
653.023	1229.12
653.47	1331.27
653.917	1385.12
654.363	1424.42
654.81	1503.67
655.257	1538.07
655.704	1223.92
656.151	946.82
656.598	828.57
657.044	778.02
657.491	748.22
657.938	737.22
658.385	717.17
658.831	723.72
659.278	709.07
659.724	706.77
660.171	705.97
660.618	677.57
661.064	667.07
661.511	676.67
661.957	675.17
662.404	682.37
662.85	690.02
663.296	699.22
663.743	697.12
664.189	694.32
664.635	696.62
665.082	700.67
665.528	695.37
665.974	675.72
666.42	668.02
666.867	671.82
667.313	629.72
667.759	631.57
668.205	631.17
668.651	635.47
669.097	646.87
669.543	646.72
669.989	652.32
670.435	651.67
670.881	658.07
671.327	691.62
671.773	744.67
672.219	803.67
672.665	875.52
673.11	918.17
673.556	929.02
674.002	971.02
674.448	981.72
674.893	826.77
675.339	711.37
675.785	648.02
676.23	617.52
676.676	595.27
677.122	579.27
677.567	558.12
678.013	540.72
678.458	538.47
678.904	531.87
679.349	525.07
679.794	535.72
680.24	536.02
680.685	521.62
681.131	521.82
681.576	526.92
682.021	532.72
682.466	540.92
682.912	542.87
683.357	570.52
683.802	618.72
684.247	687.87
684.692	738.37
685.137	782.92
685.583	799.27
686.028	854.52
686.473	803.87
686.918	685.27
687.363	621.42
687.807	590.52
688.252	557.27
688.697	533.57
689.142	515.22
689.587	519.67
690.032	531.27
690.477	543.27
690.921	588.27
691.366	611.52
691.811	645.47
692.255	702.02
692.7	851.17
693.145	1228.17
693.589	1867.87
694.034	2269.12
694.478	2493.82
694.923	2350.12
695.367	3427.82
695.812	2032.52
696.256	819.82
696.701	567.32
697.145	535.57
697.59	508.97
698.034	503.47
698.478	496.82
698.922	496.62
699.367	510.52
699.811	546.87
700.255	593.02
700.699	650.37
701.143	719.17
701.588	760.37
702.032	800.62
702.476	829.92
702.92	863.47
703.364	1120.27
703.808	1722.42
704.252	2177.42
704.696	2389.87
705.14	2300.42
705.584	3246.52
706.027	1751.47
706.471	849.82
706.915	612.37
707.359	537.17
707.803	498.57
708.246	484.67
708.69	482.67
709.134	474.47
709.577	475.77
710.021	481.52
710.465	479.07
710.908	472.82
711.352	496.62
711.795	543.62
712.239	593.82
712.682	605.12
713.126	599.67
713.569	690.67
714.012	549.82
714.456	465.97
714.899	445.27
715.342	423.22
715.786	402.62
716.229	396.92
716.672	388.42
717.115	392.72
717.558	391.17
718.002	396.62
718.445	417.27
718.888	448.97
719.331	460.92
719.774	475.32
720.217	458.97
720.66	433.22
721.103	407.02
721.546	384.82
721.989	367.62
722.432	367.02
722.874	361.42
723.317	366.27
723.76	395.57
724.203	497.32
724.645	678.52
725.088	813.12
725.531	811.07
725.974	912.12
726.416	809.02
726.859	473.77
727.301	382.02
727.744	362.37
728.187	367.07
728.629	371.17
729.071	399.47
729.514	415.52
729.956	437.22
730.399	442.97
730.841	443.92
731.283	429.17
731.726	415.17
732.168	421.67
732.61	443.47
733.053	482.67
733.495	535.27
733.937	603.42
734.379	713.72
734.821	914.42
735.263	1439.87
735.705	2581.42
736.148	3888.22
736.59	4027.47
737.032	4524.07
737.474	3687.97
737.916	1366.47
738.357	695.12
738.799	522.72
739.241	479.97
739.683	483.82
740.125	488.62
740.567	495.72
741.008	532.32
741.45	551.87
741.892	576.17
742.334	587.52
742.775	590.42
743.217	560.87
743.658	470.97
744.1	474.02
744.542	532.87
744.983	565.97
745.425	604.37
745.866	587.82
746.307	488.97
746.749	526.17
747.19	766.37
747.632	1504.22
748.073	2836.02
748.514	4018.42
748.956	5506.52
749.397	6527.47
749.838	4473.47
750.279	4397.02
750.72	2201.17
751.162	897.67
751.603	508.47
752.044	399.77
752.485	353.32
752.926	330.17
753.367	312.67
753.808	305.77
754.249	299.47
754.69	296.87
755.131	283.87
755.572	290.57
756.013	295.72
756.453	291.92
756.894	297.27
757.335	295.92
757.776	298.32
758.216	315.17
758.657	335.62
759.098	371.47
759.538	440.17
759.979	650.97
760.42	1314.72
760.86	3369.47
761.301	7208.02
761.741	8846.82
762.182	10687.62
762.622	6742.57
763.063	2305.22
763.503	919.17
763.943	530.42
764.384	420.32
764.824	358.22
765.264	329.02
765.705	312.07
766.145	290.27
766.585	278.77
767.025	270.97
767.465	270.87
767.906	275.57
768.346	303.02
768.786	345.27
769.226	508.17
769.666	1039.42
770.106	2375.77
770.546	3513.77
770.986	4146.27
771.426	3129.12
771.866	1250.22
772.306	541.62
772.745	335.32
773.185	278.57
773.625	266.62
774.065	273.17
774.505	384.92
774.944	668.92
775.384	978.32
775.824	1145.92
776.263	963.12
776.703	495.12
777.142	289.62
777.582	221.77
778.021	200.22
778.461	195.12
778.9	193.12
779.34	185.12
779.779	180.57
780.219	178.92
780.658	174.72
781.097	170.72
781.537	164.87
781.976	173.07
782.415	168.12
782.855	168.07
783.294	167.27
783.733	158.97
784.172	172.97
784.611	166.32
785.05	171.97
785.489	180.42
785.928	183.67
786.367	193.17
786.806	199.82
787.245	216.62
787.684	227.92
788.123	211.92
788.562	211.77
789.001	206.62
789.44	198.87
789.879	199.12
790.317	199.87
790.756	207.17
791.195	239.47
791.634	329.32
792.072	590.62
792.511	1501.07
792.95	2839.02
793.388	3637.12
793.827	2351.77
794.265	1029.52
794.704	479.52
795.142	290.47
795.581	235.62
796.019	213.12
796.458	213.12
796.896	219.02
797.334	251.97
797.773	339.82
798.211	658.97
798.649	1419.37
799.087	2436.02
799.526	3473.12
799.964	3666.47
800.402	2551.47
800.84	1107.82
801.278	526.42
801.716	317.77
802.154	252.57
802.592	235.72
803.03	235.17
803.468	245.27
803.906	244.47
804.344	234.72
804.782	230.12
805.22	232.87
805.658	243.57
806.096	263.67
806.533	287.17
806.971	371.32
807.409	545.27
807.847	1076.02
808.284	2812.47
808.722	5126.47
809.16	7191.12
809.597	9661.27
810.035	12486.62
810.472	8194.12
810.91	3315.12
811.347	1463.62
811.785	681.57
812.222	429.07
812.66	329.47
813.097	275.97
813.535	238.77
813.972	216.97
814.409	198.82
814.846	188.62
815.284	175.57
815.721	183.57
816.158	196.47
816.595	260.62
817.032	332.92
817.47	310.67
817.907	222.42
818.344	193.67
818.781	188.92
819.218	229.47
819.655	347.22
820.092	455.52
820.529	412.87
820.966	328.12
821.403	217.97
821.839	192.32
822.276	207.77
822.713	254.52
823.15	240.87
823.587	254.02
824.023	452.12
824.46	1168.17
824.897	2144.97
825.333	1703.37
825.77	748.92
826.206	380.07
826.643	219.37
827.08	164.77
827.516	139.97
827.953	128.12
828.389	123.77
828.825	117.52
829.262	117.77
829.698	114.52
830.135	102.67
830.571	103.72
831.007	101.47
831.443	103.02
831.88	105.42
832.316	109.17
832.752	106.82
833.188	108.67
833.624	113.17
834.06	114.07
834.497	114.27
834.933	119.32
835.369	124.12
835.805	134.52
836.241	144.32
836.677	153.87
837.112	181.37
837.548	226.92
837.984	334.62
838.42	724.22
838.856	2059.12
839.292	4245.92
839.727	3180.87
840.163	2051.37
840.599	3097.67
841.034	4996.72
841.47	2479.62
841.906	1165.87
842.341	604.12
842.777	425.87
843.212	436.52
843.648	269.87
844.083	183.22
844.519	143.22
844.954	115.42
845.39	104.57
845.825	105.67
846.261	102.17
846.696	94.72
847.131	92.92
847.566	92.17
848.002	95.62
848.437	99.72
848.872	99.42
849.307	134.07
849.742	246.42
850.177	669.87
850.613	1504.52
851.048	1100.17
851.483	476.97
851.918	255.47
852.353	139.22
852.788	98.72
853.223	91.92
853.657	83.72
854.092	78.12
854.527	70.17
854.962	80.57
855.397	91.17
855.832	77.82
856.266	69.92
856.701	65.62
857.136	71.12
857.57	87.67
858.005	106.52
858.44	92.02
858.874	82.12
859.309	89.52
859.743	87.92
860.178	81.12
860.612	87.32
861.047	123.32
861.481	171.62
861.915	115.22
862.35	88.87
862.784	69.37
863.218	64.62
863.653	71.17
864.087	89.87
864.521	111.17
864.955	188.57
865.39	352.52
865.824	251.07
866.258	305.02
866.692	471.37
867.126	344.32
867.56	180.27
867.994	113.67
868.428	92.07
868.862	123.42
869.296	106.27
869.73	139.92
870.164	116.02
870.598	102.92
871.031	77.47
871.465	67.97
871.899	51.47
872.333	47.47
872.766	49.27
873.2	48.17
873.634	46.82
874.067	53.37
874.501	54.52
874.935	54.87
875.368	54.02
875.802	45.47
876.235	43.67
876.669	45.17
877.102	35.82
877.535	39.22
877.969	38.42
878.402	40.62
878.836	34.97
879.269	38.77
879.702	38.42
880.135	40.17
880.569	44.82
881.002	36.12
881.435	41.97
881.868	33.37
882.301	33.62
882.734	35.97
883.167	40.22
883.601	36.42
884.034	38.57
884.467	28.92
884.899	34.67
885.332	30.27
885.765	31.97
886.198	32.42
886.631	30.97
887.064	32.32
887.497	31.02
887.929	34.47
888.362	27.32
888.795	27.72
889.228	36.82
889.66	28.57
890.093	29.97
890.526	31.57
890.958	27.37
891.391	35.17
891.823	29.37
892.256	32.92
892.688	33.57
893.121	31.32
893.553	29.82
893.985	26.67
894.418	27.57
894.85	26.17
895.282	25.37
895.715	24.77
896.147	24.07
896.579	21.42
897.011	27.32
897.444	30.62
897.876	20.62
898.308	27.77
898.74	30.32
899.172	32.82
899.604	30.02
900.036	27.17
900.468	25.47
900.9	32.62
901.332	36.77
901.764	35.67
902.196	32.57
902.628	36.42
903.06	58.12
903.491	62.77
903.923	47.32
904.355	44.07
904.787	51.47
905.218	41.27
905.65	39.32
906.082	34.57
906.513	29.82
906.945	32.92
907.376	33.47
907.808	37.47
908.239	34.27
908.671	46.62
909.102	46.37
909.534	63.92
909.965	129.57
910.397	339.27
910.828	1022.87
911.259	625.92
911.691	322.27
912.122	187.02
912.553	89.87
912.984	52.62
913.415	43.47
913.847	37.72
914.278	37.57
914.709	31.07
915.14	33.92
915.571	31.82
916.002	34.67
916.433	28.57
916.864	27.17
917.295	29.52
917.726	36.57
918.157	45.17
918.587	47.82
919.018	40.97
919.449	36.47
919.88	45.67
920.311	70.27
920.741	210.57
921.172	387.77
921.603	183.97
922.033	111.42
922.464	70.02
922.895	42.77
923.325	29.02
923.756	25.12
924.186	34.97
924.617	51.92
925.047	74.27
925.478	61.97
925.908	46.77
926.338	33.17
926.769	28.42
927.199	29.02
927.629	24.92
928.06	28.92
928.49	23.47
928.92	21.92
929.35	24.12
929.78	18.92
930.21	15.87
930.641	9.87
931.071	18.92
931.501	19.62
931.931	12.57
932.361	13.27
932.791	22.57
933.221	17.37
933.651	21.77
934.08	44.97
934.51	29.02
934.94	20.02
935.37	17.22
935.8	16.17
936.229	14.72
936.659	13.92
937.089	23.67
937.519	36.22
937.948	55.82
938.378	29.72
938.807	18.52
939.237	13.02
939.666	10.57
940.096	3.92
940.525	2.52
940.955	8.02
941.384	7.12
941.814	10.02
942.243	9.22
942.672	6.62
943.102	1.97
943.531	3.97
943.96	8.67
944.39	5.92
944.819	8.72
945.248	4.42
945.677	7.62
946.106	4.12
946.535	5.47
946.964	6.77
947.393	5.92
947.822	5.92
948.251	6.97
948.68	5.87
949.109	5.82
949.538	5.97
949.967	4.52
950.396	5.82
950.825	6.97
951.254	8.47
951.682	7.22
952.111	1.17
952.54	4.87
952.969	0.92
953.397	1.42
953.826	2.52
954.254	8.67
954.683	6.77
955.112	6.82
955.54	3.82
955.969	3.12
956.397	4.87
956.826	2.32
957.254	1.27
957.682	7.07
958.111	3.72
958.539	8.27
958.967	7.87
959.396	9.42
959.824	7.37
960.252	6.57
960.68	5.22
961.109	12.12
961.537	11.52
961.965	2.37
962.393	0.82
962.821	7.12
963.249	5.42
963.677	10.57
964.105	60.77
964.533	107.72
964.961	53.12
965.389	33.12
965.817	15.97
966.245	12.02
966.672	5.82
967.1	8.17
967.528	2.37
967.956	2.37
968.383	5.42
968.811	2.67
969.239	3.92
969.666	2.07
970.094	5.22
970.522	3.97
970.949	4.12
971.377	-4.38
971.804	4.47
972.232	2.57
972.659	0.12
973.087	4.87
973.514	-0.63
973.941	-3.13
974.369	-2.83
974.796	1.27
975.223	0.67
975.651	3.02
976.078	3.12
976.505	7.07
976.932	27.37
977.359	28.12
977.786	16.32
978.214	14.52
978.641	0.97
979.068	3.97
979.495	3.92
979.922	3.92
980.349	3.07
980.776	8.37
981.202	5.47
981.629	7.62
982.056	2.57
982.483	0.02
982.91	6.57
983.337	0.22
983.763	2.42
984.19	8.12
984.617	-1.18
985.043	2.77
985.47	7.57
985.897	5.72
986.323	6.27
986.75	-1.63
987.176	3.72
987.603	2.02
988.029	3.52
988.456	4.37
988.882	4.67
989.308	-2.93
989.735	-0.38
990.161	2.02
990.587	-3.78
991.014	2.67
991.44	4.57
991.866	5.92
992.292	-1.13
992.719	3.67
993.145	5.77
993.571	0.27
993.997	7.92
994.423	3.92
994.849	-0.23
995.275	7.02
995.701	4.82
996.127	0.32
996.553	1.52
996.979	1.22
997.405	4.22
997.83	3.82
998.256	3.77
998.682	0.92
999.108	2.52
999.534	-4.13
999.959	-2.88
1000.385	3.77
1000.811	-5.28
1001.236	-2.23
1001.662	4.12
1002.087	7.97
1002.513	6.07
1002.938	-2.63
1003.364	1.02
1003.789	0.22
1004.215	0.67
1004.64	2.67
1005.066	1.17
1005.491	7.37
1005.916	0.77
1006.342	2.37
1006.767	1.67
1007.192	7.17
1007.617	0.22
1008.042	0.02
1008.468	1.32
1008.893	4.52
1009.318	4.97
1009.743	12.92
1010.168	20.32
1010.593	19.17
1011.018	12.62
1011.443	2.12
1011.868	3.97
1012.293	2.42
1012.718	-0.93
1013.143	4.72
1013.567	6.67
1013.992	5.82
1014.417	1.92
1014.842	0.87
1015.267	2.57
1015.691	3.72
1016.116	7.22
1016.541	0.47
1016.965	2.67
1017.39	2.92
1017.814	-2.73
1018.239	-2.08
1018.663	-5.98
1019.088	0.57
1019.512	7.17
1019.937	-3.38
1020.361	-0.53
1020.785	-1.98
1021.21	-2.08
1021.634	-1.33
1022.058	2.62
1022.483	-2.83
1022.907	-1.13
1023.331	-1.03
1023.755	-2.33
1024.179	-2.38
1024.604	3.27
1025.028	2.17
1025.452	2.32
1025.876	2.32
1026.3	-0.83
1026.724	0.07
1027.148	2.57
1027.572	0.62
1027.996	1.22
1028.42	1.77
1028.843	-3.33
1029.267	-5.63
1029.691	-1.08
1030.115	2.62
1030.539	-0.08
1030.962	-0.73
1031.386	0.12
1031.81	-0.98
1032.233	-2.88
1032.657	-4.38
1033.08	-2.68
1033.504	-0.68
1033.927	-0.23
1034.351	0.42
1034.774	-5.48
1035.198	-3.83
1035.621	-1.03
1036.045	-0.58
1036.468	2.42
1036.891	-0.48
1037.315	2.67
1037.738	0.37
1038.161	0.47
1038.584	-1.18
1039.008	-1.83
1039.431	-0.93
1039.854	-7.18
1040.277	5.47
1040.7	2.37
1041.123	0.47
1041.546	-2.63
1041.969	1.27
1042.392	-0.43
1042.815	-10.18
1043.238	-1.28
1043.661	1.87
1044.084	-1.18
1044.507	-1.73
1044.93	0.82
1045.352	-3.18
1045.775	6.82
1046.198	-0.23
1046.621	5.02
1047.043	1.42
1047.466	2.62
1047.889	-2.28
1048.311	1.82
1048.734	-3.18
1049.156	-1.78
1049.579	0.82
1050.001	-3.68
1050.424	-0.18
1050.846	-8.58
1051.269	-3.78
1051.691	0.07
1052.113	2.57
1052.536	0.52
1052.958	-4.68
1053.38	1.92
1053.802	1.32
1054.225	-1.43
1054.647	1.47
1055.069	-1.03
1055.491	1.02
1055.913	3.82
1056.335	-8.23
1056.757	-1.83
1057.179	2.32
1057.601	-0.28
1058.023	3.32
1058.445	-4.18
1058.867	-1.33
1059.289	-1.03
1059.711	-0.83
1060.133	0.57
1060.555	-0.03
1060.976	1.97
1061.398	-4.28
1061.82	1.92
1062.241	-2.58
1062.663	2.17
1063.085	-3.28
1063.506	-5.58
1063.928	-3.63
1064.35	-1.68
1064.771	0.07
1065.193	-0.63
1065.614	-1.83
1066.035	3.17
1066.457	4.42
1066.878	-0.43
1067.3	-1.63
1067.721	2.32
1068.142	2.87
1068.564	3.02
1068.985	-1.38
1069.406	-5.03
1069.827	-0.63
1070.248	-3.68
1070.67	-2.63
1071.091	-6.73
1071.512	-4.13
1071.933	-0.28
1072.354	-3.33
1072.775	-1.78
1073.196	-0.58
1073.617	-3.88
1074.038	2.47
1074.459	-2.83
1074.88	-2.08
1075.3	-2.23
1075.721	-1.23
1076.142	-1.43
1076.563	-5.08
1076.983	5.32
1077.404	-8.08
1077.825	0.82
1078.246	-8.08
1078.666	-5.58
1079.087	-2.73
1079.507	1.77
1079.928	-1.58
1080.348	-4.73
1080.769	1.52
1081.189	-4.08
1081.61	-7.03
1082.03	1.47
1082.451	-2.43
1082.871	-3.03
1083.291	-3.83
1083.711	-2.08
1084.132	-1.03
1084.552	-1.08
1084.972	-4.58
1085.392	-3.28
1085.813	-0.88
1086.233	-6.38
1086.653	-4.38
1087.073	-5.98
1087.493	-0.23
1087.913	-5.28
1088.333	-2.63
1088.753	-0.43
1089.173	2.37
1089.593	1.57
1090.013	-3.38
1090.433	-6.38
1090.852	-0.38
1091.272	-2.03
1091.692	-2.53
1092.112	-4.38
1092.531	-2.18
1092.951	-3.73
1093.371	-3.73
1093.79	0.47
1094.21	-2.38
1094.63	-0.63
1095.049	0.12
1095.469	-7.08
1095.888	0.07
1096.308	-1.13
1096.727	-3.08
1097.146	-2.33
1097.566	-1.58
1097.985	-1.03
1098.405	1.92
1098.824	3.27
1099.243	-4.88
1099.662	-4.33
1100.082	-2.28
1100.501	0.57
1100.92	4.57
1101.339	-0.63
1101.758	3.62
