Data from MSPlasma+Separation6_Subt14_10-12-30-969.txt Node
Date: Fri Jul 21 10:12:30 EDT 2017
User: Ender
Spectrometer: HR+D1039
Trigger mode: 0
Integration Time (sec): 6.430000E-3
Scans to average: 20
Electric dark correction enabled: true
Nonlinearity correction enabled: false
Boxcar width: 0
XAxis mode: Wavelengths
Number of Pixels in Spectrum: 2048
>>>>>Begin Spectral Data<<<<<
187.836	1.29
188.309	1.29
188.782	1.29
189.255	-2.26
189.728	0.79
190.201	1.29
190.674	3.59
191.147	-5.06
191.619	-1.86
192.092	-2.21
192.565	-0.11
193.038	3.79
193.511	2.34
193.984	3.79
194.456	1.44
194.929	-1.06
195.402	-3.91
195.874	-1.86
196.347	2.74
196.82	0.69
197.292	-3.11
197.765	-2.41
198.237	-0.31
198.71	-3.66
199.182	-4.76
199.655	-1.51
200.127	1.64
200.6	-1.66
201.072	-1.41
201.544	-3.06
202.017	2.39
202.489	2.54
202.961	0.74
203.433	-5.16
203.906	3.44
204.378	-0.06
204.85	2.59
205.322	-2.26
205.794	2.24
206.266	-0.96
206.739	5.29
207.211	0.84
207.683	-0.76
208.155	3.24
208.627	-0.71
209.099	1.94
209.57	1.69
210.042	4.99
210.514	2.79
210.986	1.14
211.458	-0.56
211.93	-0.71
212.402	1.79
212.873	-6.31
213.345	-2.66
213.817	-3.51
214.288	-1.56
214.76	-3.16
215.232	-0.81
215.703	0.34
216.175	1.79
216.646	2.19
217.118	-1.06
217.589	1.14
218.061	-1.16
218.532	-1.06
219.004	2.59
219.475	0.09
219.946	-1.76
220.418	1.44
220.889	1.79
221.36	5.29
221.832	5.54
222.303	3.49
222.774	4.64
223.245	-1.51
223.717	-2.61
224.188	1.64
224.659	0.64
225.13	-2.11
225.601	3.94
226.072	4.34
226.543	3.74
227.014	2.44
227.485	0.59
227.956	6.99
228.427	9.89
228.898	2.59
229.369	4.09
229.839	3.24
230.31	6.54
230.781	7.24
231.252	6.04
231.722	4.79
232.193	1.49
232.664	8.29
233.135	1.09
233.605	3.99
234.076	12.39
234.546	6.59
235.017	6.19
235.487	6.94
235.958	7.19
236.428	11.04
236.899	7.44
237.369	13.39
237.84	12.24
238.31	9.19
238.78	7.04
239.251	9.54
239.721	5.79
240.191	8.79
240.662	7.84
241.132	11.34
241.602	8.99
242.072	8.59
242.542	8.59
243.013	6.84
243.483	12.79
243.953	7.99
244.423	11.14
244.893	10.54
245.363	17.69
245.833	11.89
246.303	15.94
246.773	14.84
247.243	15.99
247.712	16.59
248.182	15.34
248.652	14.89
249.122	13.64
249.592	17.49
250.061	13.79
250.531	13.34
251.001	15.19
251.471	18.19
251.94	16.94
252.41	19.39
252.879	21.04
253.349	23.14
253.818	23.34
254.288	24.04
254.757	21.54
255.227	22.19
255.696	19.24
256.166	25.59
256.635	22.54
257.105	22.14
257.574	22.74
258.043	21.39
258.513	22.94
258.982	20.44
259.451	24.99
259.92	20.79
260.389	26.29
260.859	22.19
261.328	26.34
261.797	23.64
262.266	29.94
262.735	29.09
263.204	25.04
263.673	27.24
264.142	23.94
264.611	28.94
265.08	27.94
265.549	28.69
266.018	33.14
266.487	30.04
266.955	25.04
267.424	34.24
267.893	34.79
268.362	29.04
268.83	31.49
269.299	29.14
269.768	31.64
270.236	28.59
270.705	38.09
271.174	33.39
271.642	30.89
272.111	33.54
272.579	33.04
273.048	36.79
273.516	36.59
273.985	36.29
274.453	33.79
274.922	35.24
275.39	33.19
275.858	38.29
276.327	39.84
276.795	38.89
277.263	37.94
277.731	35.64
278.2	44.49
278.668	36.69
279.136	41.54
279.604	40.79
280.072	34.74
280.54	45.29
281.008	46.99
281.477	46.64
281.945	44.19
282.413	46.54
282.881	43.14
283.348	41.64
283.816	44.99
284.284	46.89
284.752	44.64
285.22	54.49
285.688	44.24
286.156	44.74
286.623	47.19
287.091	52.49
287.559	53.89
288.026	52.69
288.494	53.54
288.962	51.94
289.429	55.89
289.897	51.14
290.364	43.39
290.832	53.59
291.3	54.89
291.767	52.94
292.234	53.99
292.702	54.64
293.169	57.64
293.637	57.79
294.104	55.59
294.571	57.84
295.039	66.79
295.506	58.14
295.973	61.19
296.44	56.89
296.908	63.34
297.375	62.09
297.842	61.24
298.309	57.69
298.776	62.69
299.243	64.99
299.71	60.09
300.177	64.89
300.644	64.24
301.111	67.84
301.578	71.59
302.045	65.04
302.512	65.19
302.979	73.79
303.446	76.19
303.913	74.19
304.379	78.44
304.846	77.14
305.313	76.64
305.78	80.74
306.246	76.44
306.713	85.54
307.18	78.49
307.646	81.89
308.113	76.49
308.579	88.24
309.046	86.34
309.512	84.19
309.979	92.34
310.445	87.99
310.912	92.74
311.378	90.44
311.845	92.69
312.311	91.19
312.777	92.64
313.244	96.34
313.71	98.94
314.176	100.69
314.642	97.99
315.109	97.39
315.575	98.04
316.041	100.34
316.507	99.44
316.973	104.09
317.439	105.59
317.905	102.74
318.371	104.64
318.837	104.74
319.303	109.74
319.769	102.54
320.235	110.84
320.701	111.49
321.167	105.89
321.633	112.74
322.099	109.59
322.564	114.14
323.03	107.39
323.496	116.79
323.962	111.99
324.427	115.74
324.893	111.14
325.359	121.69
325.824	123.34
326.29	127.44
326.755	117.94
327.221	120.14
327.686	131.74
328.152	129.79
328.617	129.09
329.083	132.04
329.548	133.34
330.014	130.14
330.479	134.04
330.944	137.34
331.41	137.09
331.875	131.39
332.34	130.49
332.805	139.79
333.271	137.64
333.736	137.29
334.201	133.89
334.666	148.29
335.131	138.79
335.596	143.94
336.061	146.84
336.526	147.34
336.991	145.64
337.456	141.79
337.921	138.89
338.386	141.79
338.851	143.89
339.316	144.94
339.781	138.74
340.246	148.94
340.711	145.49
341.175	150.04
341.64	154.34
342.105	157.89
342.569	162.29
343.034	153.74
343.499	156.04
343.963	163.99
344.428	163.49
344.893	166.54
345.357	171.54
345.822	169.44
346.286	175.89
346.751	178.84
347.215	177.69
347.679	189.64
348.144	198.94
348.608	200.64
349.073	198.49
349.537	201.74
350.001	200.99
350.465	205.44
350.93	205.54
351.394	204.14
351.858	203.99
352.322	208.59
352.786	215.04
353.25	215.19
353.715	216.84
354.179	224.64
354.643	230.99
355.107	230.44
355.571	229.94
356.035	232.59
356.498	225.74
356.962	226.59
357.426	221.29
357.89	219.74
358.354	219.14
358.818	216.94
359.281	222.99
359.745	221.54
360.209	225.44
360.673	219.79
361.136	225.14
361.6	224.04
362.064	229.09
362.527	234.79
362.991	230.79
363.454	234.74
363.918	240.64
364.381	242.04
364.845	233.29
365.308	237.44
365.772	244.79
366.235	239.94
366.698	235.09
367.162	235.04
367.625	241.14
368.088	248.99
368.552	249.24
369.015	241.74
369.478	251.54
369.941	247.09
370.404	254.99
370.867	250.09
371.331	253.59
371.794	260.84
372.257	263.34
372.72	266.54
373.183	262.94
373.646	264.19
374.109	259.89
374.572	264.94
375.035	273.49
375.497	272.44
375.96	277.59
376.423	279.94
376.886	281.74
377.349	284.99
377.811	289.09
378.274	282.99
378.737	286.29
379.199	288.09
379.662	290.39
380.125	297.24
380.587	294.29
381.05	302.19
381.512	302.74
381.975	310.44
382.437	318.94
382.9	316.49
383.362	316.74
383.825	316.34
384.287	321.74
384.75	319.14
385.212	327.49
385.674	330.19
386.136	333.49
386.599	329.89
387.061	328.54
387.523	326.94
387.985	339.09
388.447	336.54
388.91	335.54
389.372	341.09
389.834	340.34
390.296	332.64
390.758	338.64
391.22	337.44
391.682	337.64
392.144	334.84
392.606	341.99
393.068	351.74
393.529	376.34
393.991	382.69
394.453	359.69
394.915	350.39
395.377	335.09
395.838	344.04
396.3	340.09
396.762	358.84
397.224	348.69
397.685	351.19
398.147	354.59
398.608	367.19
399.07	366.09
399.531	363.99
399.993	371.49
400.454	380.59
400.916	379.29
401.377	385.39
401.839	385.39
402.3	384.19
402.762	408.89
403.223	437.79
403.684	436.34
404.145	415.79
404.607	398.54
405.068	389.99
405.529	392.59
405.99	396.39
406.451	399.59
406.913	394.14
407.374	391.99
407.835	396.49
408.296	411.34
408.757	410.39
409.218	424.89
409.679	426.49
410.14	436.94
410.601	446.24
411.062	451.89
411.522	454.89
411.983	458.34
412.444	471.84
412.905	477.39
413.366	502.29
413.826	530.64
414.287	610.69
414.748	745.69
415.208	768.34
415.669	625.44
416.13	558.99
416.59	549.24
417.051	574.94
417.511	616.89
417.972	654.44
418.432	714.89
418.893	800.74
419.353	772.24
419.814	570.29
420.274	495.59
420.734	492.34
421.195	504.69
421.655	499.29
422.115	510.39
422.576	504.19
423.036	511.59
423.496	530.14
423.956	552.59
424.416	593.49
424.876	675.89
425.336	655.94
425.797	639.34
426.257	626.64
426.717	576.29
427.177	517.44
427.637	510.44
428.097	520.94
428.556	540.39
429.016	586.94
429.476	566.19
429.936	540.14
430.396	527.64
430.856	535.59
431.315	537.19
431.775	585.34
432.235	640.79
432.694	649.64
433.154	591.89
433.614	574.59
434.073	568.24
434.533	519.94
434.993	512.44
435.452	529.14
435.912	521.39
436.371	532.89
436.83	525.89
437.29	530.64
437.749	521.39
438.209	523.29
438.668	541.29
439.127	555.14
439.587	550.64
440.046	531.49
440.505	549.54
440.964	556.39
441.424	570.79
441.883	584.44
442.342	562.69
442.801	545.54
443.26	548.89
443.719	551.09
444.178	541.94
444.637	559.09
445.096	561.64
445.555	573.84
446.014	574.69
446.473	566.64
446.932	568.79
447.391	582.29
447.849	581.24
448.308	577.29
448.767	576.49
449.226	591.94
449.685	595.69
450.143	635.74
450.602	624.44
451.061	583.54
451.519	592.99
451.978	585.54
452.436	578.99
452.895	583.69
453.353	584.54
453.812	579.34
454.27	575.54
454.729	581.39
455.187	579.84
455.646	594.29
456.104	586.14
456.562	596.94
457.021	597.49
457.479	575.89
457.937	598.09
458.395	608.09
458.854	604.14
459.312	596.04
459.77	607.19
460.228	609.19
460.686	615.99
461.144	618.09
461.602	611.89
462.06	618.99
462.518	634.39
462.976	623.64
463.434	632.74
463.892	646.99
464.35	645.34
464.808	655.49
465.266	663.84
465.724	673.84
466.181	672.29
466.639	665.99
467.097	697.09
467.555	716.69
468.012	708.24
468.47	712.54
468.928	734.84
469.385	759.14
469.843	757.89
470.3	755.84
470.758	775.94
471.215	786.74
471.673	801.54
472.13	815.69
472.588	837.39
473.045	827.79
473.503	845.74
473.96	870.59
474.417	877.19
474.875	903.99
475.332	925.34
475.789	933.79
476.246	946.59
476.704	965.44
477.161	968.64
477.618	966.19
478.075	990.89
478.532	1022.74
478.989	1048.59
479.446	1092.79
479.903	1091.49
480.36	1116.09
480.817	1103.49
481.274	1110.44
481.731	1156.59
482.188	1172.89
482.645	1194.94
483.102	1202.74
483.558	1241.59
484.015	1268.59
484.472	1272.24
484.929	1274.54
485.385	1272.99
485.842	1274.74
486.299	1286.54
486.755	1271.64
487.212	1257.99
487.668	1221.04
488.125	1220.49
488.582	1201.79
489.038	1214.89
489.494	1222.54
489.951	1219.54
490.407	1226.74
490.864	1237.29
491.32	1233.44
491.776	1240.89
492.233	1251.64
492.689	1258.04
493.145	1230.64
493.602	1230.19
494.058	1258.59
494.514	1253.09
494.97	1266.34
495.426	1278.99
495.882	1287.24
496.338	1290.79
496.794	1302.34
497.251	1290.79
497.707	1320.99
498.163	1326.89
498.618	1326.69
499.074	1325.64
499.53	1341.44
499.986	1342.04
500.442	1344.89
500.898	1329.34
501.354	1347.49
501.809	1348.19
502.265	1358.79
502.721	1364.84
503.177	1361.54
503.632	1373.04
504.088	1373.99
504.543	1399.84
504.999	1405.04
505.455	1401.34
505.91	1379.24
506.366	1392.24
506.821	1404.84
507.277	1390.24
507.732	1391.44
508.187	1398.34
508.643	1411.24
509.098	1412.09
509.553	1424.59
510.009	1444.34
510.464	1467.24
510.919	1468.94
511.375	1494.09
511.83	1508.54
512.285	1543.94
512.74	1562.59
513.195	1588.09
513.65	1618.04
514.105	1642.19
514.56	1643.09
515.015	1678.24
515.47	1692.24
515.925	1667.64
516.38	1665.49
516.835	1675.64
517.29	1667.84
517.745	1665.64
518.2	1641.39
518.655	1595.89
519.109	1581.24
519.564	1556.39
520.019	1544.69
520.474	1529.69
520.928	1513.44
521.383	1506.09
521.838	1502.79
522.292	1488.54
522.747	1478.24
523.201	1479.24
523.656	1457.19
524.11	1456.04
524.565	1442.99
525.019	1457.54
525.474	1447.19
525.928	1434.09
526.382	1440.59
526.837	1436.14
527.291	1432.14
527.745	1430.79
528.2	1425.39
528.654	1414.29
529.108	1418.09
529.562	1417.24
530.016	1409.49
530.47	1416.54
530.925	1411.14
531.379	1405.69
531.833	1416.04
532.287	1411.64
532.741	1404.09
533.195	1419.34
533.649	1416.59
534.103	1413.84
534.556	1395.89
535.01	1414.54
535.464	1404.09
535.918	1410.44
536.372	1417.79
536.826	1406.09
537.279	1399.79
537.733	1407.99
538.187	1406.59
538.64	1402.69
539.094	1423.84
539.548	1435.99
540.001	1440.84
540.455	1439.84
540.908	1449.79
541.362	1471.29
541.815	1479.19
542.269	1509.39
542.722	1505.89
543.175	1525.44
543.629	1529.84
544.082	1541.24
544.536	1553.44
544.989	1576.34
545.442	1578.99
545.895	1571.54
546.349	1568.29
546.802	1583.79
547.255	1583.29
547.708	1610.14
548.161	1622.34
548.614	1624.59
549.067	1633.24
549.52	1611.04
549.973	1589.69
550.426	1575.14
550.879	1562.34
551.332	1566.94
551.785	1587.34
552.238	1585.49
552.691	1604.14
553.144	1623.09
553.596	1651.69
554.049	1674.09
554.502	1716.34
554.955	1737.89
555.407	1768.84
555.86	1749.04
556.313	1706.44
556.765	1698.69
557.218	1685.84
557.67	1674.54
558.123	1647.49
558.576	1651.24
559.028	1640.94
559.48	1675.04
559.933	1662.64
560.385	1597.89
560.838	1540.69
561.29	1495.09
561.742	1483.09
562.195	1453.89
562.647	1437.74
563.099	1435.69
563.551	1431.54
564.004	1439.54
564.456	1425.89
564.908	1396.84
565.36	1356.79
565.812	1328.14
566.264	1320.09
566.716	1302.39
567.168	1283.64
567.62	1281.79
568.072	1275.64
568.524	1260.14
568.976	1253.49
569.428	1244.99
569.88	1248.79
570.332	1261.29
570.784	1253.99
571.235	1249.09
571.687	1261.24
572.139	1258.59
572.59	1276.39
573.042	1275.39
573.494	1277.64
573.945	1263.49
574.397	1233.49
574.849	1226.99
575.3	1226.24
575.752	1211.09
576.203	1199.99
576.655	1201.74
577.106	1176.24
577.557	1176.89
578.009	1173.64
578.46	1174.19
578.912	1166.54
579.363	1167.69
579.814	1176.64
580.265	1174.44
580.717	1168.29
581.168	1172.59
581.619	1181.09
582.07	1192.29
582.521	1181.19
582.972	1175.89
583.423	1181.99
583.875	1181.34
584.326	1195.94
584.777	1215.29
585.227	1234.79
585.678	1259.89
586.129	1263.64
586.58	1277.24
587.031	1298.54
587.482	1341.04
587.933	1361.24
588.384	1365.19
588.834	1344.29
589.285	1331.09
589.736	1338.29
590.186	1346.29
590.637	1329.99
591.088	1291.94
591.538	1261.29
591.989	1236.14
592.439	1226.79
592.89	1216.79
593.34	1216.39
593.791	1198.09
594.241	1185.94
594.692	1182.99
595.142	1180.74
595.593	1191.69
596.043	1188.09
596.493	1192.34
596.943	1193.49
597.394	1241.19
597.844	1252.34
598.294	1278.54
598.744	1328.09
599.195	1396.49
599.645	1478.84
600.095	1562.84
600.545	1642.49
600.995	1729.69
601.445	1801.09
601.895	1898.14
602.345	1977.64
602.795	1934.14
603.245	1851.04
603.695	1728.84
604.145	1614.94
604.594	1531.89
605.044	1452.19
605.494	1348.49
605.944	1265.24
606.393	1234.04
606.843	1209.49
607.293	1218.29
607.743	1205.89
608.192	1216.69
608.642	1225.74
609.091	1230.74
609.541	1223.44
609.99	1218.54
610.44	1194.24
610.889	1175.99
611.339	1156.34
611.788	1143.99
612.238	1147.09
612.687	1147.69
613.136	1157.69
613.586	1168.04
614.035	1170.44
614.484	1173.54
614.933	1172.74
615.383	1159.39
615.832	1126.44
616.281	1117.49
616.73	1090.64
617.179	1056.74
617.628	1038.04
618.077	1024.09
618.526	1015.69
618.975	999.79
619.424	977.09
619.873	983.34
620.322	977.34
620.771	971.19
621.22	958.14
621.669	931.44
622.118	924.19
622.567	914.04
623.015	892.19
623.464	890.09
623.913	879.49
624.361	879.79
624.81	883.44
625.259	886.59
625.707	875.44
626.156	879.54
626.604	905.09
627.053	901.64
627.501	907.94
627.95	904.94
628.398	920.84
628.847	911.04
629.295	906.89
629.744	897.24
630.192	878.74
630.64	863.64
631.089	849.54
631.537	810.99
631.985	815.39
632.433	803.59
632.881	799.64
633.33	801.84
633.778	805.64
634.226	808.39
634.674	817.94
635.122	826.19
635.57	832.64
636.018	844.34
636.466	844.14
636.914	839.74
637.362	845.79
637.81	872.24
638.258	908.19
638.705	902.64
639.153	941.34
639.601	946.99
640.049	960.54
640.497	995.59
640.944	1028.04
641.392	956.14
641.84	886.34
642.287	834.19
642.735	804.89
643.182	786.79
643.63	780.24
644.078	768.04
644.525	763.94
644.973	776.64
645.42	777.59
645.867	788.24
646.315	781.04
646.762	790.04
647.21	787.44
647.657	795.04
648.104	778.99
648.551	747.54
648.999	743.64
649.446	734.89
649.893	736.49
650.34	751.69
650.787	774.09
651.234	789.64
651.682	848.84
652.129	942.79
652.576	1079.79
653.023	1240.54
653.47	1334.99
653.917	1391.59
654.363	1438.54
654.81	1502.89
655.257	1548.84
655.704	1222.04
656.151	951.94
656.598	834.24
657.044	772.34
657.491	747.64
657.938	729.04
658.385	720.09
658.831	717.49
659.278	715.24
659.724	706.64
660.171	700.49
660.618	676.94
661.064	656.64
661.511	667.79
661.957	667.44
662.404	671.79
662.85	679.74
663.296	691.89
663.743	685.64
664.189	695.39
664.635	695.34
665.082	697.54
665.528	693.74
665.974	679.74
666.42	668.79
666.867	661.49
667.313	628.99
667.759	633.29
668.205	623.54
668.651	631.74
669.097	636.89
669.543	628.99
669.989	648.64
670.435	645.29
670.881	660.54
671.327	687.99
671.773	744.84
672.219	808.54
672.665	872.69
673.11	905.54
673.556	926.74
674.002	971.29
674.448	989.64
674.893	825.44
675.339	707.04
675.785	649.04
676.23	615.79
676.676	584.29
677.122	575.89
677.567	560.29
678.013	542.54
678.458	535.64
678.904	529.24
679.349	525.14
679.794	532.94
680.24	530.94
680.685	519.19
681.131	518.44
681.576	521.24
682.021	527.29
682.466	535.24
682.912	542.29
683.357	564.74
683.802	622.29
684.247	685.04
684.692	737.79
685.137	776.89
685.583	787.59
686.028	855.69
686.473	802.34
686.918	676.29
687.363	620.59
687.807	584.74
688.252	553.89
688.697	521.34
689.142	511.34
689.587	512.09
690.032	528.89
690.477	543.29
690.921	575.79
691.366	608.14
691.811	638.74
692.255	698.29
692.7	850.89
693.145	1228.69
693.589	1890.99
694.034	2306.64
694.478	2512.84
694.923	2340.19
695.367	3403.79
695.812	2000.94
696.256	804.59
696.701	577.59
697.145	524.84
697.59	501.54
698.034	494.94
698.478	495.49
698.922	495.54
699.367	513.89
699.811	541.89
700.255	589.99
700.699	648.54
701.143	716.29
701.588	762.94
702.032	796.74
702.476	820.89
702.92	860.74
703.364	1120.64
703.808	1722.54
704.252	2208.94
704.696	2395.34
705.14	2295.29
705.584	3232.74
706.027	1742.84
706.471	834.89
706.915	613.59
707.359	540.34
707.803	499.84
708.246	482.24
708.69	477.79
709.134	480.59
709.577	474.39
710.021	479.09
710.465	475.59
710.908	466.04
711.352	487.94
711.795	539.79
712.239	593.84
712.682	601.29
713.126	596.74
713.569	683.24
714.012	550.09
714.456	468.09
714.899	438.09
715.342	422.84
715.786	401.04
716.229	391.04
716.672	376.64
717.115	381.84
717.558	392.29
718.002	401.64
718.445	425.84
718.888	444.39
719.331	461.09
719.774	466.69
720.217	456.69
720.66	426.69
721.103	405.09
721.546	371.84
721.989	366.04
722.432	360.44
722.874	362.09
723.317	363.74
723.76	395.54
724.203	496.74
724.645	676.69
725.088	821.49
725.531	812.49
725.974	908.34
726.416	801.74
726.859	465.99
727.301	382.59
727.744	360.54
728.187	361.59
728.629	375.34
729.071	392.74
729.514	414.24
729.956	435.29
730.399	441.84
730.841	434.94
731.283	427.94
731.726	408.19
732.168	423.24
732.61	443.29
733.053	476.99
733.495	537.29
733.937	602.49
734.379	707.84
734.821	905.29
735.263	1422.14
735.705	2571.89
736.148	3906.94
736.59	3992.49
737.032	4468.34
737.474	3647.39
737.916	1356.04
738.357	685.79
738.799	518.04
739.241	476.99
739.683	471.04
740.125	485.09
740.567	492.84
741.008	529.44
741.45	557.79
741.892	571.49
742.334	578.74
742.775	580.84
743.217	553.59
743.658	458.84
744.1	470.29
744.542	531.84
744.983	556.54
745.425	595.24
745.866	584.54
746.307	494.84
746.749	519.59
747.19	759.94
747.632	1501.69
748.073	2838.44
748.514	4010.74
748.956	5489.24
749.397	6504.89
749.838	4438.64
750.279	4341.04
750.72	2189.34
751.162	890.14
751.603	500.64
752.044	401.54
752.485	350.19
752.926	333.24
753.367	310.54
753.808	302.04
754.249	301.14
754.69	290.39
755.131	292.84
755.572	284.69
756.013	289.34
756.453	290.49
756.894	300.59
757.335	291.89
757.776	299.84
758.216	316.79
758.657	332.99
759.098	363.79
759.538	444.69
759.979	646.04
760.42	1304.74
760.86	3337.49
761.301	7178.64
761.741	8796.59
762.182	10525.74
762.622	6663.24
763.063	2301.64
763.503	918.49
763.943	528.59
764.384	413.44
764.824	360.79
765.264	329.99
765.705	308.04
766.145	293.34
766.585	281.09
767.025	271.84
767.465	275.29
767.906	278.04
768.346	294.44
768.786	338.99
769.226	509.59
769.666	1040.09
770.106	2368.24
770.546	3491.19
770.986	4116.64
771.426	3102.64
771.866	1236.34
772.306	880.89
772.745	676.99
773.185	622.24
773.625	616.14
774.065	626.84
774.505	722.19
774.944	989.29
775.384	1283.24
775.824	1427.39
776.263	1264.24
776.703	829.34
777.142	637.79
777.582	568.54
778.021	561.84
778.461	547.39
778.9	551.89
779.34	543.64
779.779	531.29
780.219	535.64
780.658	528.14
781.097	530.99
781.537	526.24
781.976	532.69
782.415	521.54
782.855	523.14
783.294	527.39
783.733	515.74
784.172	524.84
784.611	521.84
785.05	527.99
785.489	536.89
785.928	538.54
786.367	543.64
786.806	551.94
787.245	571.54
787.684	579.09
788.123	573.94
788.562	565.79
789.001	559.29
789.44	553.14
789.879	552.74
790.317	556.49
790.756	558.09
791.195	595.59
791.634	673.89
792.072	931.79
792.511	1781.84
792.95	3059.04
793.388	3770.74
793.827	2585.04
794.265	1338.84
794.704	820.29
795.142	643.14
795.581	586.59
796.019	568.29
796.458	567.64
796.896	576.84
797.334	600.04
797.773	685.54
798.211	996.59
798.649	1710.89
799.087	2658.09
799.526	3631.39
799.964	3826.89
800.402	2765.54
800.84	1413.89
801.278	864.79
801.716	665.49
802.154	601.44
802.592	587.99
803.03	593.19
803.468	599.39
803.906	596.74
804.344	588.04
804.782	584.09
805.22	587.04
805.658	592.09
806.096	609.69
806.533	638.79
806.971	717.19
807.409	874.24
807.847	1385.54
808.284	2987.99
808.722	5216.44
809.16	7130.14
809.597	9401.79
810.035	12022.09
810.472	7996.89
810.91	3475.74
811.347	1737.14
811.785	1006.74
812.222	769.34
812.66	675.69
813.097	622.59
813.535	591.84
813.972	565.04
814.409	550.04
814.846	546.94
815.284	536.79
815.721	541.89
816.158	548.89
816.595	608.99
817.032	678.49
817.47	652.79
817.907	573.44
818.344	546.79
818.781	544.29
819.218	575.94
819.655	688.44
820.092	795.64
820.529	752.39
820.966	666.89
821.403	571.74
821.839	544.24
822.276	560.49
822.713	603.24
823.15	590.69
823.587	604.39
824.023	790.49
824.46	1474.29
824.897	2383.44
825.333	1971.84
825.77	1074.84
826.206	726.49
826.643	568.49
827.08	516.39
827.516	500.64
827.953	489.19
828.389	487.54
828.825	480.39
829.262	476.54
829.698	467.09
830.135	461.34
830.571	462.54
831.007	462.89
831.443	468.04
831.88	466.79
832.316	470.79
832.752	466.74
833.188	471.19
833.624	473.04
834.06	476.89
834.497	473.19
834.933	475.89
835.369	487.44
835.805	496.59
836.241	496.44
836.677	513.39
837.112	538.09
837.548	581.59
837.984	685.09
838.42	1047.24
838.856	2298.09
839.292	4368.29
839.727	3354.44
840.163	2280.59
840.599	3259.04
841.034	5073.69
841.47	2716.64
841.906	1464.74
842.341	931.74
842.777	765.59
843.212	779.64
843.648	621.14
844.083	541.49
844.519	494.99
844.954	478.94
845.39	467.89
845.825	462.99
846.261	457.64
846.696	455.64
847.131	451.54
847.566	451.49
848.002	458.29
848.437	464.29
848.872	469.24
849.307	494.44
849.742	596.94
850.177	997.94
850.613	1779.34
851.048	1407.89
851.483	818.29
851.918	613.24
852.353	493.74
852.788	458.39
853.223	448.89
853.657	435.69
854.092	442.19
854.527	436.94
854.962	446.79
855.397	452.74
855.832	439.24
856.266	426.34
856.701	431.94
857.136	432.69
857.57	443.44
858.005	463.44
858.44	450.04
858.874	447.14
859.309	450.24
859.743	448.44
860.178	441.79
860.612	446.64
861.047	480.79
861.481	523.34
861.915	475.34
862.35	449.64
862.784	431.99
863.218	430.04
863.653	430.84
864.087	450.94
864.521	465.44
864.955	549.94
865.39	696.74
865.824	598.04
866.258	647.29
866.692	802.09
867.126	678.84
867.56	533.69
867.994	474.24
868.428	453.69
868.862	484.79
869.296	468.24
869.73	495.34
870.164	472.49
870.598	461.89
871.031	436.29
871.465	431.99
871.899	418.89
872.333	408.24
872.766	413.99
873.2	414.44
873.634	416.29
874.067	414.79
874.501	415.99
874.935	414.89
875.368	419.49
875.802	413.94
876.235	408.24
876.669	408.64
877.102	404.19
877.535	406.34
877.969	403.29
878.402	407.24
878.836	403.99
879.269	403.19
879.702	399.84
880.135	397.24
880.569	406.29
881.002	400.99
881.435	402.49
881.868	401.59
882.301	400.14
882.734	395.84
883.167	404.74
883.601	401.44
884.034	400.69
884.467	397.14
884.899	399.59
885.332	396.29
885.765	396.54
886.198	394.69
886.631	394.89
887.064	394.54
887.497	396.29
887.929	394.29
888.362	396.69
888.795	395.04
889.228	399.44
889.66	396.34
890.093	393.59
890.526	397.29
890.958	396.54
891.391	395.04
891.823	387.74
892.256	393.04
892.688	395.74
893.121	391.94
893.553	400.14
893.985	395.04
894.418	390.64
894.85	395.34
895.282	389.54
895.715	388.49
896.147	389.64
896.579	388.69
897.011	401.39
897.444	391.49
897.876	391.19
898.308	391.59
898.74	391.54
899.172	395.04
899.604	399.44
900.036	398.24
900.468	389.49
900.9	400.09
901.332	404.59
901.764	402.04
902.196	399.19
902.628	400.24
903.06	414.34
903.491	418.14
903.923	414.09
904.355	404.99
904.787	413.34
905.218	403.49
905.65	404.99
906.082	400.44
906.513	398.74
906.945	402.44
907.376	401.14
907.808	398.29
908.239	402.94
908.671	409.84
909.102	410.84
909.534	428.24
909.965	490.69
910.397	683.84
910.828	1324.94
911.259	959.84
911.691	673.69
912.122	540.74
912.553	459.44
912.984	413.89
913.415	403.49
913.847	404.59
914.278	400.94
914.709	394.69
915.14	395.04
915.571	395.49
916.002	391.39
916.433	394.19
916.864	393.69
917.295	394.69
917.726	405.39
918.157	411.24
918.587	408.14
919.018	404.44
919.449	404.99
919.88	405.39
920.311	432.39
920.741	562.94
921.172	724.09
921.603	538.84
922.033	470.64
922.464	432.84
922.895	408.14
923.325	394.34
923.756	386.74
924.186	396.54
924.617	414.09
925.047	435.74
925.478	428.24
925.908	404.14
926.338	401.69
926.769	391.24
927.199	393.59
927.629	387.74
928.06	394.44
928.49	394.99
928.92	387.19
929.35	388.79
929.78	380.74
930.21	384.14
930.641	378.49
931.071	382.54
931.501	385.64
931.931	376.64
932.361	380.09
932.791	384.89
933.221	385.74
933.651	391.84
934.08	410.84
934.51	389.19
934.94	390.64
935.37	383.74
935.8	380.29
936.229	380.04
936.659	380.64
937.089	385.39
937.519	397.24
937.948	418.84
938.378	393.19
938.807	387.09
939.237	375.59
939.666	377.89
940.096	370.94
940.525	371.19
940.955	376.84
941.384	372.89
941.814	374.69
942.243	369.29
942.672	374.69
943.102	371.54
943.531	374.34
943.96	373.24
944.39	374.49
944.819	376.99
945.248	374.14
945.677	374.09
946.106	373.14
946.535	374.59
946.964	375.59
947.393	368.34
947.822	372.69
948.251	374.19
948.68	376.84
949.109	370.14
949.538	373.79
949.967	373.24
950.396	373.99
950.825	374.39
951.254	371.99
951.682	365.89
952.111	366.09
952.54	372.29
952.969	368.94
953.397	368.29
953.826	365.89
954.254	375.59
954.683	368.19
955.112	373.34
955.54	371.34
955.969	369.99
956.397	372.49
956.826	368.94
957.254	370.09
957.682	372.59
958.111	371.54
958.539	370.54
958.967	374.14
959.396	377.99
959.824	371.74
960.252	374.09
960.68	371.74
961.109	375.19
961.537	378.29
961.965	369.39
962.393	374.29
962.821	375.79
963.249	373.89
963.677	374.29
964.105	425.84
964.533	471.04
964.961	414.84
965.389	394.34
965.817	383.49
966.245	376.24
966.672	370.14
967.1	375.79
967.528	362.94
967.956	368.59
968.383	368.74
968.811	366.49
969.239	370.84
969.666	369.69
970.094	368.99
970.522	366.64
970.949	373.64
971.377	363.19
971.804	369.14
972.232	365.64
972.659	364.84
973.087	372.54
973.514	366.84
973.941	368.54
974.369	366.74
974.796	372.49
975.223	364.74
975.651	370.94
976.078	366.94
976.505	376.69
976.932	387.44
977.359	395.99
977.786	382.44
978.214	376.79
978.641	372.49
979.068	368.94
979.495	368.54
979.922	368.24
980.349	369.94
980.776	368.89
981.202	370.99
981.629	372.74
982.056	368.69
982.483	366.09
982.91	369.14
983.337	368.44
983.763	367.24
984.19	372.44
984.617	364.74
985.043	368.14
985.47	371.29
985.897	369.59
986.323	374.79
986.75	365.89
987.176	370.14
987.603	368.89
988.029	370.19
988.456	373.49
988.882	367.84
989.308	365.59
989.735	365.89
990.161	368.69
990.587	365.69
991.014	372.29
991.44	368.74
991.866	371.44
992.292	367.24
992.719	368.89
993.145	373.39
993.571	368.04
993.997	375.24
994.423	371.99
994.849	363.94
995.275	370.34
995.701	368.99
996.127	362.34
996.553	367.59
996.979	369.54
997.405	370.84
997.83	366.99
998.256	369.94
998.682	367.39
999.108	372.49
999.534	363.39
999.959	367.79
1000.385	368.69
1000.811	369.14
1001.236	360.74
1001.662	367.29
1002.087	373.64
1002.513	370.44
1002.938	363.89
1003.364	368.39
1003.789	374.19
1004.215	369.54
1004.64	368.29
1005.066	368.59
1005.491	372.79
1005.916	371.69
1006.342	370.49
1006.767	369.19
1007.192	368.24
1007.617	368.24
1008.042	369.74
1008.468	371.09
1008.893	370.84
1009.318	372.89
1009.743	375.34
1010.168	387.24
1010.593	379.74
1011.018	378.79
1011.443	368.84
1011.868	370.79
1012.293	372.79
1012.718	364.74
1013.143	369.89
1013.567	371.94
1013.992	370.59
1014.417	369.04
1014.842	366.24
1015.267	366.94
1015.691	370.44
1016.116	370.39
1016.541	369.54
1016.965	369.49
1017.39	368.59
1017.814	367.04
1018.239	366.74
1018.663	361.39
1019.088	363.89
1019.512	372.14
1019.937	368.79
1020.361	366.24
1020.785	364.89
1021.21	363.94
1021.634	368.49
1022.058	367.34
1022.483	364.54
1022.907	364.94
1023.331	366.89
1023.755	361.69
1024.179	363.74
1024.604	371.34
1025.028	371.24
1025.452	369.74
1025.876	370.54
1026.3	367.54
1026.724	365.89
1027.148	367.74
1027.572	366.14
1027.996	369.94
1028.42	368.69
1028.843	365.14
1029.267	368.59
1029.691	370.39
1030.115	366.39
1030.539	368.49
1030.962	366.89
1031.386	369.49
1031.81	367.49
1032.233	363.24
1032.657	361.34
1033.08	368.94
1033.504	365.14
1033.927	366.09
1034.351	363.64
1034.774	359.44
1035.198	363.99
1035.621	368.54
1036.045	366.49
1036.468	371.29
1036.891	367.64
1037.315	369.94
1037.738	365.34
1038.161	363.19
1038.584	369.34
1039.008	366.69
1039.431	358.79
1039.854	361.94
1040.277	371.14
1040.7	365.64
1041.123	368.64
1041.546	364.94
1041.969	370.34
1042.392	370.24
1042.815	363.14
1043.238	359.54
1043.661	366.89
1044.084	363.09
1044.507	365.59
1044.93	366.44
1045.352	369.59
1045.775	367.49
1046.198	365.04
1046.621	367.84
1047.043	366.49
1047.466	371.24
1047.889	367.84
1048.311	367.24
1048.734	366.34
1049.156	365.99
1049.579	367.94
1050.001	360.94
1050.424	367.24
1050.846	362.69
1051.269	363.94
1051.691	364.54
1052.113	365.69
1052.536	362.49
1052.958	362.24
1053.38	369.09
1053.802	365.39
1054.225	369.64
1054.647	369.49
1055.069	367.94
1055.491	367.59
1055.913	367.49
1056.335	357.69
1056.757	359.44
1057.179	368.74
1057.601	365.99
1058.023	368.04
1058.445	359.14
1058.867	372.09
1059.289	366.54
1059.711	363.19
1060.133	369.84
1060.555	362.99
1060.976	373.24
1061.398	362.24
1061.82	362.84
1062.241	363.79
1062.663	368.94
1063.085	361.24
1063.506	357.89
1063.928	363.84
1064.35	367.59
1064.771	365.29
1065.193	360.29
1065.614	364.34
1066.035	368.14
1066.457	369.29
1066.878	366.79
1067.3	362.99
1067.721	367.99
1068.142	368.09
1068.564	369.64
1068.985	365.79
1069.406	364.04
1069.827	363.84
1070.248	360.64
1070.67	363.04
1071.091	361.24
1071.512	366.24
1071.933	362.34
1072.354	361.79
1072.775	365.99
1073.196	367.24
1073.617	360.14
1074.038	365.44
1074.459	363.34
1074.88	365.24
1075.3	366.24
1075.721	361.29
1076.142	365.64
1076.563	362.74
1076.983	369.19
1077.404	359.54
1077.825	364.74
1078.246	359.99
1078.666	360.54
1079.087	365.29
1079.507	360.84
1079.928	364.79
1080.348	363.84
1080.769	367.44
1081.189	361.44
1081.61	361.74
1082.03	369.44
1082.451	368.34
1082.871	359.79
1083.291	363.59
1083.711	363.79
1084.132	359.84
1084.552	362.64
1084.972	362.79
1085.392	366.29
1085.813	365.14
1086.233	363.34
1086.653	367.09
1087.073	366.94
1087.493	365.24
1087.913	362.44
1088.333	368.09
1088.753	370.19
1089.173	370.74
1089.593	369.84
1090.013	365.79
1090.433	363.34
1090.852	367.09
1091.272	363.24
1091.692	363.94
1092.112	364.54
1092.531	362.04
1092.951	364.29
1093.371	361.39
1093.79	364.59
1094.21	363.54
1094.63	364.04
1095.049	364.04
1095.469	356.34
1095.888	370.44
1096.308	366.29
1096.727	363.29
1097.146	363.89
1097.566	363.49
1097.985	364.49
1098.405	368.04
1098.824	364.69
1099.243	362.29
1099.662	361.44
1100.082	357.74
1100.501	361.79
1100.92	372.19
1101.339	370.44
1101.758	371.99
