Data from MSPlasma+Separation6_Subt14_10-12-43-598.txt Node
Date: Fri Jul 21 10:12:43 EDT 2017
User: Ender
Spectrometer: HR+D1039
Trigger mode: 0
Integration Time (sec): 6.430000E-3
Scans to average: 20
Electric dark correction enabled: true
Nonlinearity correction enabled: false
Boxcar width: 0
XAxis mode: Wavelengths
Number of Pixels in Spectrum: 2048
>>>>>Begin Spectral Data<<<<<
187.836	1.12
188.309	1.12
188.782	1.12
189.255	-3.53
189.728	-1.13
190.201	-1.08
190.674	-1.33
191.147	-1.08
191.619	1.12
192.092	0.72
192.565	-2.13
193.038	2.47
193.511	5.77
193.984	0.77
194.456	-0.23
194.929	-0.23
195.402	-2.33
195.874	1.17
196.347	0.77
196.82	-0.28
197.292	-2.48
197.765	-1.83
198.237	-4.78
198.71	-6.53
199.182	0.72
199.655	-0.88
200.127	-0.88
200.6	-3.33
201.072	1.22
201.544	-5.43
202.017	-1.48
202.489	-1.13
202.961	-3.33
203.433	-5.48
203.906	0.17
204.378	1.07
204.85	-1.03
205.322	-4.08
205.794	2.97
206.266	-4.88
206.739	2.87
207.211	-2.23
207.683	-1.28
208.155	2.62
208.627	0.47
209.099	4.07
209.57	-0.98
210.042	4.07
210.514	0.02
210.986	-6.78
211.458	-4.93
211.93	0.02
212.402	1.22
212.873	-2.78
213.345	-1.58
213.817	0.22
214.288	-1.18
214.76	2.42
215.232	0.47
215.703	-0.08
216.175	2.42
216.646	2.07
217.118	-1.73
217.589	-5.38
218.061	-3.73
218.532	-5.28
219.004	1.02
219.475	-1.38
219.946	-1.48
220.418	3.72
220.889	1.72
221.36	1.12
221.832	2.57
222.303	4.57
222.774	6.37
223.245	0.62
223.717	1.17
224.188	4.87
224.659	7.52
225.13	-0.93
225.601	2.57
226.072	6.52
226.543	2.82
227.014	1.47
227.485	3.82
227.956	5.57
228.427	4.32
228.898	4.97
229.369	2.02
229.839	3.32
230.31	4.72
230.781	4.07
231.252	8.27
231.722	5.02
232.193	4.37
232.664	3.37
233.135	2.97
233.605	3.72
234.076	8.82
234.546	4.07
235.017	6.52
235.487	4.92
235.958	8.67
236.428	10.67
236.899	9.52
237.369	13.12
237.84	9.32
238.31	10.27
238.78	6.02
239.251	6.02
239.721	6.57
240.191	5.47
240.662	10.02
241.132	6.42
241.602	10.02
242.072	7.57
242.542	9.42
243.013	7.32
243.483	11.52
243.953	8.42
244.423	10.52
244.893	10.22
245.363	17.82
245.833	12.42
246.303	11.52
246.773	14.92
247.243	13.07
247.712	12.82
248.182	11.82
248.652	12.77
249.122	13.87
249.592	17.47
250.061	14.67
250.531	14.87
251.001	13.37
251.471	18.57
251.94	16.47
252.41	16.32
252.879	15.97
253.349	22.82
253.818	19.97
254.288	23.37
254.757	21.72
255.227	21.12
255.696	18.97
256.166	22.52
256.635	21.47
257.105	16.57
257.574	23.47
258.043	21.12
258.513	25.92
258.982	21.72
259.451	24.37
259.92	20.92
260.389	21.72
260.859	24.27
261.328	21.62
261.797	21.17
262.266	27.27
262.735	29.07
263.204	24.22
263.673	21.22
264.142	18.87
264.611	27.72
265.08	29.97
265.549	22.42
266.018	24.32
266.487	32.07
266.955	23.57
267.424	32.82
267.893	28.92
268.362	31.17
268.83	29.07
269.299	30.72
269.768	33.27
270.236	31.02
270.705	37.67
271.174	36.02
271.642	28.22
272.111	30.12
272.579	31.47
273.048	31.47
273.516	36.17
273.985	31.67
274.453	35.22
274.922	28.77
275.39	30.62
275.858	36.87
276.327	35.57
276.795	35.52
277.263	35.72
277.731	32.52
278.2	42.67
278.668	37.82
279.136	41.22
279.604	42.77
280.072	38.37
280.54	38.77
281.008	46.07
281.477	42.17
281.945	38.17
282.413	39.42
282.881	39.12
283.348	42.07
283.816	43.17
284.284	41.32
284.752	41.97
285.22	47.72
285.688	45.42
286.156	48.57
286.623	48.57
287.091	45.82
287.559	46.72
288.026	55.02
288.494	49.42
288.962	47.32
289.429	48.67
289.897	46.57
290.364	47.37
290.832	54.62
291.3	54.47
291.767	51.62
292.234	53.27
292.702	47.62
293.169	51.87
293.637	55.12
294.104	56.87
294.571	53.07
295.039	61.57
295.506	50.82
295.973	60.62
296.44	52.32
296.908	63.02
297.375	60.12
297.842	67.07
298.309	57.72
298.776	62.97
299.243	60.47
299.71	66.07
300.177	65.72
300.644	61.72
301.111	63.87
301.578	66.87
302.045	62.22
302.512	63.17
302.979	69.12
303.446	70.92
303.913	68.07
304.379	77.42
304.846	69.62
305.313	76.77
305.78	78.52
306.246	80.37
306.713	77.47
307.18	81.92
307.646	75.92
308.113	74.27
308.579	82.62
309.046	84.42
309.512	82.37
309.979	88.82
310.445	83.92
310.912	83.97
311.378	87.32
311.845	90.12
312.311	89.72
312.777	87.47
313.244	93.02
313.71	93.37
314.176	91.07
314.642	91.82
315.109	88.82
315.575	91.37
316.041	93.72
316.507	92.77
316.973	98.17
317.439	99.57
317.905	93.62
318.371	93.82
318.837	97.47
319.303	98.37
319.769	100.82
320.235	98.82
320.701	101.52
321.167	99.87
321.633	100.67
322.099	97.32
322.564	104.17
323.03	108.77
323.496	103.67
323.962	108.17
324.427	111.32
324.893	110.42
325.359	117.22
325.824	112.82
326.29	117.52
326.755	112.77
327.221	116.02
327.686	126.02
328.152	116.67
328.617	124.27
329.083	121.47
329.548	124.57
330.014	128.02
330.479	128.92
330.944	127.07
331.41	131.12
331.875	123.92
332.34	127.22
332.805	136.67
333.271	131.87
333.736	125.42
334.201	131.37
334.666	141.17
335.131	139.82
335.596	140.52
336.061	135.82
336.526	136.17
336.991	133.92
337.456	132.62
337.921	133.32
338.386	133.32
338.851	132.07
339.316	135.07
339.781	135.32
340.246	141.77
340.711	137.37
341.175	137.77
341.64	144.67
342.105	154.67
342.569	154.52
343.034	150.07
343.499	148.82
343.963	159.67
344.428	157.07
344.893	160.27
345.357	165.52
345.822	161.67
346.286	166.62
346.751	172.97
347.215	175.47
347.679	178.32
348.144	184.87
348.608	188.82
349.073	186.27
349.537	189.02
350.001	191.12
350.465	188.27
350.93	192.92
351.394	196.97
351.858	200.02
352.322	204.57
352.786	199.07
353.25	199.57
353.715	205.87
354.179	212.27
354.643	213.72
355.107	214.02
355.571	214.52
356.035	209.62
356.498	212.12
356.962	216.12
357.426	211.57
357.89	212.12
358.354	205.42
358.818	201.27
359.281	206.37
359.745	212.22
360.209	207.37
360.673	204.02
361.136	210.97
361.6	211.52
362.064	215.57
362.527	222.72
362.991	216.07
363.454	215.67
363.918	226.32
364.381	224.47
364.845	224.02
365.308	220.12
365.772	230.42
366.235	227.82
366.698	226.32
367.162	220.42
367.625	234.22
368.088	233.07
368.552	227.42
369.015	228.92
369.478	235.32
369.941	238.52
370.404	244.07
370.867	234.42
371.331	238.57
371.794	244.07
372.257	243.07
372.72	239.77
373.183	241.37
373.646	248.47
374.109	244.92
374.572	250.67
375.035	250.62
375.497	254.77
375.96	260.07
376.423	260.77
376.886	262.17
377.349	266.67
377.811	274.67
378.274	274.07
378.737	267.22
379.199	266.32
379.662	276.67
380.125	278.22
380.587	286.27
381.05	289.57
381.512	287.87
381.975	293.67
382.437	299.32
382.9	297.97
383.362	297.47
383.825	299.47
384.287	302.12
384.75	302.87
385.212	307.97
385.674	309.32
386.136	313.02
386.599	312.42
387.061	308.57
387.523	310.82
387.985	313.72
388.447	318.22
388.91	320.82
389.372	319.07
389.834	321.22
390.296	310.17
390.758	316.32
391.22	315.82
391.682	312.82
392.144	315.12
392.606	318.47
393.068	332.77
393.529	354.52
393.991	361.42
394.453	340.52
394.915	328.72
395.377	319.87
395.838	324.67
396.3	326.62
396.762	332.72
397.224	331.22
397.685	337.72
398.147	336.67
398.608	336.22
399.07	344.02
399.531	342.37
399.993	357.22
400.454	357.72
400.916	350.27
401.377	359.72
401.839	368.92
402.3	365.97
402.762	385.22
403.223	410.22
403.684	404.67
404.145	388.67
404.607	379.32
405.068	367.07
405.529	373.12
405.99	369.62
406.451	378.42
406.913	368.17
407.374	374.32
407.835	372.32
408.296	386.27
408.757	386.32
409.218	396.72
409.679	397.67
410.14	412.37
410.601	420.07
411.062	425.82
411.522	432.92
411.983	434.37
412.444	440.77
412.905	457.07
413.366	476.62
413.826	496.57
414.287	576.32
414.748	704.62
415.208	717.52
415.669	588.47
416.13	526.17
416.59	521.52
417.051	542.97
417.511	570.82
417.972	618.67
418.432	679.12
418.893	762.07
419.353	725.82
419.814	536.67
420.274	466.87
420.734	462.52
421.195	476.52
421.655	464.37
422.115	480.67
422.576	480.12
423.036	481.42
423.496	498.72
423.956	525.67
424.416	557.97
424.876	618.72
425.336	632.92
425.797	606.87
426.257	590.27
426.717	538.92
427.177	487.17
427.637	481.12
428.097	495.37
428.556	512.27
429.016	550.42
429.476	534.42
429.936	503.92
430.396	489.92
430.856	499.72
431.315	506.52
431.775	553.17
432.235	606.62
432.694	619.47
433.154	566.87
433.614	554.17
434.073	534.07
434.533	491.07
434.993	483.47
435.452	499.32
435.912	492.47
436.371	501.62
436.83	501.37
437.29	494.37
437.749	498.62
438.209	495.47
438.668	501.27
439.127	512.67
439.587	514.72
440.046	502.97
440.505	520.27
440.964	527.42
441.424	539.77
441.883	544.02
442.342	531.72
442.801	514.02
443.26	515.92
443.719	512.12
444.178	514.57
444.637	526.82
445.096	530.42
445.555	538.82
446.014	541.77
446.473	521.97
446.932	529.92
447.391	544.42
447.849	548.12
448.308	535.07
448.767	540.47
449.226	557.17
449.685	573.32
450.143	594.67
450.602	591.77
451.061	557.32
451.519	558.97
451.978	543.77
452.436	546.12
452.895	555.72
453.353	543.37
453.812	541.52
454.27	542.37
454.729	550.12
455.187	556.57
455.646	556.02
456.104	552.52
456.562	563.37
457.021	569.62
457.479	543.37
457.937	566.27
458.395	577.82
458.854	575.32
459.312	568.02
459.77	564.97
460.228	579.82
460.686	581.52
461.144	588.07
461.602	574.27
462.06	582.22
462.518	603.52
462.976	595.37
463.434	599.97
463.892	610.57
464.35	609.87
464.808	618.22
465.266	631.77
465.724	635.07
466.181	635.07
466.639	635.62
467.097	656.97
467.555	681.02
468.012	678.67
468.47	680.67
468.928	699.27
469.385	716.82
469.843	723.42
470.3	717.87
470.758	739.32
471.215	742.27
471.673	750.52
472.13	781.57
472.588	789.52
473.045	796.42
473.503	795.67
473.96	826.02
474.417	827.17
474.875	858.17
475.332	878.72
475.789	887.92
476.246	884.02
476.704	921.67
477.161	917.52
477.618	927.32
478.075	941.97
478.532	973.47
478.989	999.17
479.446	1043.17
479.903	1034.77
480.36	1054.82
480.817	1048.52
481.274	1061.27
481.731	1098.57
482.188	1116.62
482.645	1134.47
483.102	1144.62
483.558	1184.17
484.015	1209.37
484.472	1207.82
484.929	1220.02
485.385	1214.17
485.842	1209.52
486.299	1225.57
486.755	1210.57
487.212	1196.82
487.668	1176.12
488.125	1166.27
488.582	1146.32
489.038	1152.67
489.494	1168.02
489.951	1168.17
490.407	1167.17
490.864	1175.27
491.32	1178.17
491.776	1177.52
492.233	1194.57
492.689	1184.72
493.145	1176.37
493.602	1175.47
494.058	1194.27
494.514	1200.97
494.97	1205.02
495.426	1230.62
495.882	1229.32
496.338	1229.82
496.794	1247.22
497.251	1236.92
497.707	1256.57
498.163	1274.82
498.618	1267.37
499.074	1264.87
499.53	1288.12
499.986	1286.32
500.442	1281.92
500.898	1270.82
501.354	1283.52
501.809	1291.87
502.265	1294.17
502.721	1289.77
503.177	1299.32
503.632	1310.47
504.088	1320.22
504.543	1332.52
504.999	1339.97
505.455	1343.47
505.91	1327.52
506.366	1330.02
506.821	1336.82
507.277	1323.97
507.732	1328.27
508.187	1331.72
508.643	1348.32
509.098	1341.77
509.553	1356.72
510.009	1379.97
510.464	1403.82
510.919	1402.97
511.375	1428.27
511.83	1441.02
512.285	1469.97
512.74	1499.42
513.195	1517.67
513.65	1535.52
514.105	1569.62
514.56	1575.37
515.015	1610.37
515.47	1613.32
515.925	1588.22
516.38	1592.32
516.835	1596.42
517.29	1588.82
517.745	1591.87
518.2	1563.67
518.655	1521.52
519.109	1499.47
519.564	1481.62
520.019	1469.72
520.474	1464.22
520.928	1453.07
521.383	1438.72
521.838	1436.42
522.292	1428.62
522.747	1415.42
523.201	1417.42
523.656	1388.32
524.11	1384.62
524.565	1379.77
525.019	1382.77
525.474	1384.97
525.928	1368.37
526.382	1375.67
526.837	1381.27
527.291	1369.97
527.745	1364.07
528.2	1361.67
528.654	1343.37
529.108	1342.57
529.562	1349.22
530.016	1349.67
530.47	1345.62
530.925	1344.87
531.379	1345.02
531.833	1363.27
532.287	1355.62
532.741	1348.02
533.195	1352.17
533.649	1344.92
534.103	1356.87
534.556	1346.12
535.01	1357.12
535.464	1339.82
535.918	1352.77
536.372	1357.02
536.826	1363.82
537.279	1340.57
537.733	1348.17
538.187	1351.42
538.64	1348.32
539.094	1359.32
539.548	1381.07
540.001	1381.97
540.455	1394.57
540.908	1391.92
541.362	1411.22
541.815	1421.02
542.269	1449.52
542.722	1444.97
543.175	1456.37
543.629	1471.22
544.082	1490.27
544.536	1502.57
544.989	1495.42
545.442	1512.77
545.895	1513.42
546.349	1517.47
546.802	1514.22
547.255	1514.32
547.708	1532.57
548.161	1551.62
548.614	1547.57
549.067	1561.77
549.52	1545.57
549.973	1535.57
550.426	1519.27
550.879	1503.87
551.332	1506.92
551.785	1513.57
552.238	1531.27
552.691	1527.87
553.144	1559.12
553.596	1584.82
554.049	1603.62
554.502	1640.82
554.955	1677.92
555.407	1690.22
555.86	1669.57
556.313	1644.37
556.765	1642.32
557.218	1606.22
557.67	1610.17
558.123	1583.02
558.576	1575.67
559.028	1576.27
559.48	1612.02
559.933	1594.57
560.385	1538.62
560.838	1479.97
561.29	1431.12
561.742	1426.67
562.195	1388.32
562.647	1381.02
563.099	1373.62
563.551	1365.87
564.004	1383.62
564.456	1371.97
564.908	1341.07
565.36	1303.47
565.812	1269.17
566.264	1260.52
566.716	1246.22
567.168	1233.97
567.62	1231.47
568.072	1222.47
568.524	1213.22
568.976	1205.07
569.428	1194.12
569.88	1189.47
570.332	1207.02
570.784	1214.27
571.235	1197.67
571.687	1208.67
572.139	1203.92
572.59	1222.92
573.042	1228.57
573.494	1229.42
573.945	1209.67
574.397	1177.17
574.849	1176.42
575.3	1184.17
575.752	1161.12
576.203	1153.92
576.655	1160.12
577.106	1133.47
577.557	1132.07
578.009	1126.92
578.46	1130.72
578.912	1120.92
579.363	1131.47
579.814	1123.72
580.265	1120.22
580.717	1129.77
581.168	1122.32
581.619	1132.72
582.07	1146.42
582.521	1137.87
582.972	1131.87
583.423	1132.27
583.875	1140.67
584.326	1147.17
584.777	1168.37
585.227	1188.72
585.678	1203.82
586.129	1216.57
586.58	1226.77
587.031	1255.17
587.482	1288.32
587.933	1304.12
588.384	1299.22
588.834	1299.37
589.285	1285.57
589.736	1289.27
590.186	1290.97
590.637	1265.42
591.088	1234.17
591.538	1215.17
591.989	1195.47
592.439	1186.27
592.89	1166.52
593.34	1164.77
593.791	1164.02
594.241	1146.22
594.692	1145.37
595.142	1140.02
595.593	1145.27
596.043	1150.72
596.493	1153.07
596.943	1153.92
597.394	1178.62
597.844	1201.42
598.294	1227.92
598.744	1272.57
599.195	1347.22
599.645	1428.57
600.095	1504.72
600.545	1582.77
600.995	1670.07
601.445	1731.72
601.895	1824.92
602.345	1896.82
602.795	1860.52
603.245	1776.62
603.695	1659.02
604.145	1562.17
604.594	1473.77
605.044	1395.02
605.494	1292.67
605.944	1223.87
606.393	1197.32
606.843	1165.62
607.293	1176.37
607.743	1166.22
608.192	1172.02
608.642	1184.97
609.091	1173.32
609.541	1168.82
609.99	1173.92
610.44	1149.97
610.889	1134.52
611.339	1118.12
611.788	1098.27
612.238	1103.72
612.687	1113.27
613.136	1122.02
613.586	1134.37
614.035	1123.67
614.484	1134.57
614.933	1140.02
615.383	1113.47
615.832	1084.72
616.281	1078.92
616.73	1047.97
617.179	1021.62
617.628	1002.22
618.077	980.32
618.526	978.17
618.975	966.02
619.424	947.72
619.873	950.12
620.322	944.67
620.771	939.37
621.22	925.22
621.669	904.82
622.118	885.17
622.567	880.47
623.015	863.02
623.464	862.22
623.913	843.72
624.361	853.97
624.81	843.17
625.259	851.57
625.707	836.27
626.156	852.12
626.604	862.62
627.053	878.37
627.501	871.67
627.95	885.47
628.398	885.27
628.847	880.82
629.295	874.52
629.744	861.07
630.192	850.27
630.64	832.22
631.089	814.42
631.537	785.52
631.985	778.62
632.433	780.22
632.881	773.22
633.33	777.87
633.778	770.32
634.226	786.02
634.674	788.22
635.122	796.17
635.57	806.22
636.018	820.97
636.466	820.27
636.914	814.62
637.362	829.92
637.81	840.22
638.258	873.02
638.705	876.87
639.153	905.87
639.601	917.07
640.049	926.77
640.497	954.62
640.944	995.37
641.392	928.82
641.84	853.67
642.287	808.42
642.735	774.32
643.182	755.42
643.63	748.42
644.078	749.12
644.525	745.02
644.973	751.77
645.42	752.42
645.867	757.82
646.315	752.72
646.762	767.22
647.21	766.52
647.657	765.27
648.104	753.42
648.551	723.87
648.999	716.37
649.446	716.32
649.893	710.92
650.34	714.37
650.787	747.47
651.234	769.62
651.682	823.67
652.129	911.37
652.576	1037.67
653.023	1194.52
653.47	1296.72
653.917	1351.77
654.363	1389.87
654.81	1468.72
655.257	1490.67
655.704	1188.02
656.151	919.37
656.598	802.62
657.044	738.12
657.491	721.97
657.938	705.02
658.385	694.62
658.831	697.97
659.278	682.87
659.724	681.92
660.171	675.57
660.618	653.42
661.064	641.47
661.511	644.52
661.957	646.77
662.404	652.87
662.85	657.82
663.296	666.17
663.743	662.17
664.189	666.92
664.635	669.27
665.082	672.62
665.528	665.87
665.974	652.17
666.42	640.02
666.867	638.27
667.313	606.37
667.759	603.02
668.205	609.62
668.651	613.67
669.097	611.82
669.543	615.62
669.989	626.27
670.435	627.17
670.881	636.62
671.327	667.02
671.773	714.62
672.219	785.82
672.665	841.37
673.11	878.77
673.556	899.97
674.002	929.47
674.448	947.97
674.893	791.57
675.339	684.77
675.785	628.32
676.23	597.52
676.676	569.87
677.122	557.07
677.567	534.82
678.013	522.22
678.458	517.32
678.904	512.97
679.349	512.32
679.794	512.67
680.24	505.77
680.685	499.22
681.131	503.92
681.576	511.37
682.021	508.07
682.466	512.42
682.912	522.12
683.357	550.12
683.802	599.82
684.247	664.52
684.692	711.37
685.137	745.52
685.583	773.17
686.028	822.27
686.473	771.42
686.918	656.67
687.363	594.22
687.807	564.62
688.252	535.37
688.697	512.87
689.142	496.22
689.587	496.12
690.032	513.57
690.477	520.72
690.921	553.72
691.366	593.62
691.811	616.22
692.255	677.32
692.7	809.37
693.145	1179.52
693.589	1820.72
694.034	2199.77
694.478	2403.37
694.923	2244.27
695.367	3250.62
695.812	1934.22
696.256	776.67
696.701	552.12
697.145	507.32
697.59	483.32
698.034	475.77
698.478	478.62
698.922	478.82
699.367	497.47
699.811	522.77
700.255	565.67
700.699	630.62
701.143	697.97
701.588	727.52
702.032	766.77
702.476	789.42
702.92	838.02
703.364	1075.67
703.808	1682.12
704.252	2122.32
704.696	2298.72
705.14	2215.52
705.584	3098.77
706.027	1674.67
706.471	819.27
706.915	594.37
707.359	514.72
707.803	486.12
708.246	467.47
708.69	463.52
709.134	454.67
709.577	461.17
710.021	461.77
710.465	461.22
710.908	451.87
711.352	474.92
711.795	520.92
712.239	561.32
712.682	582.17
713.126	579.12
713.569	652.87
714.012	520.57
714.456	445.22
714.899	427.92
715.342	407.37
715.786	396.32
716.229	374.47
716.672	359.72
717.115	368.62
717.558	372.72
718.002	382.82
718.445	406.12
718.888	430.97
719.331	438.87
719.774	449.82
720.217	439.07
720.66	405.62
721.103	388.22
721.546	366.52
721.989	354.72
722.432	354.77
722.874	351.77
723.317	351.82
723.76	387.72
724.203	485.47
724.645	654.97
725.088	782.82
725.531	772.07
725.974	873.92
726.416	769.67
726.859	451.87
727.301	367.37
727.744	348.32
728.187	355.62
728.629	358.92
729.071	377.32
729.514	400.07
729.956	414.12
730.399	426.92
730.841	424.42
731.283	412.52
731.726	391.22
732.168	406.32
732.61	426.37
733.053	466.02
733.495	510.57
733.937	580.07
734.379	687.42
734.821	869.72
735.263	1378.42
735.705	2488.22
736.148	3723.57
736.59	3848.52
737.032	4263.87
737.474	3496.17
737.916	1302.37
738.357	668.92
738.799	507.72
739.241	461.97
739.683	462.22
740.125	472.92
740.567	481.87
741.008	512.67
741.45	538.37
741.892	557.92
742.334	562.17
742.775	563.72
743.217	533.22
743.658	443.07
744.1	452.02
744.542	514.17
744.983	543.82
745.425	578.52
745.866	555.47
746.307	471.22
746.749	505.72
747.19	740.47
747.632	1453.42
748.073	2735.27
748.514	3865.07
748.956	5242.02
749.397	6253.02
749.838	4259.67
750.279	4185.82
750.72	2101.87
751.162	862.92
751.603	482.22
752.044	384.52
752.485	335.52
752.926	311.82
753.367	299.22
753.808	291.97
754.249	284.27
754.69	283.07
755.131	279.17
755.572	280.97
756.013	276.77
756.453	282.52
756.894	282.17
757.335	280.97
757.776	287.97
758.216	302.12
758.657	319.92
759.098	353.82
759.538	425.52
759.979	618.22
760.42	1253.97
760.86	3224.87
761.301	6935.87
761.741	8473.97
762.182	10117.22
762.622	6417.17
763.063	2197.82
763.503	884.02
763.943	503.67
764.384	400.17
764.824	343.62
765.264	318.07
765.705	298.42
766.145	286.22
766.585	274.22
767.025	257.07
767.465	265.12
767.906	269.67
768.346	285.87
768.786	331.62
769.226	491.17
769.666	1005.57
770.106	2277.87
770.546	3366.62
770.986	3955.02
771.426	2987.32
771.866	1202.17
772.306	528.27
772.745	319.37
773.185	263.22
773.625	252.62
774.065	260.22
774.505	363.22
774.944	645.32
775.384	937.67
775.824	1085.02
776.263	923.57
776.703	479.67
777.142	274.12
777.582	209.22
778.021	200.12
778.461	186.87
778.9	191.02
779.34	181.97
779.779	176.02
780.219	172.77
780.658	168.92
781.097	169.12
781.537	161.47
781.976	161.72
782.415	159.02
782.855	162.22
783.294	159.62
783.733	157.12
784.172	165.37
784.611	165.52
785.05	168.22
785.489	170.42
785.928	172.72
786.367	182.42
786.806	188.47
787.245	212.22
787.684	216.57
788.123	211.97
788.562	198.67
789.001	196.92
789.44	191.37
789.879	186.62
790.317	191.07
790.756	203.02
791.195	233.52
791.634	310.22
792.072	574.52
792.511	1426.27
792.95	2721.67
793.388	3450.07
793.827	2245.17
794.265	982.02
794.704	464.42
795.142	281.17
795.581	225.17
796.019	203.67
796.458	204.32
796.896	212.12
797.334	245.87
797.773	333.47
798.211	638.57
798.649	1364.42
799.087	2330.07
799.526	3298.37
799.964	3492.77
800.402	2436.52
800.84	1063.82
801.278	506.97
801.716	299.87
802.154	236.22
802.592	226.97
803.03	230.37
803.468	233.57
803.906	230.32
804.344	225.82
804.782	222.52
805.22	222.32
805.658	230.97
806.096	250.77
806.533	278.72
806.971	356.87
807.409	517.07
807.847	1038.47
808.284	2678.62
808.722	4869.87
809.16	6883.07
809.597	9187.57
810.035	11877.62
810.472	7747.72
810.91	3165.82
811.347	1401.02
811.785	652.87
812.222	406.47
812.66	315.97
813.097	265.57
813.535	226.17
813.972	204.07
814.409	191.82
814.846	181.42
815.284	172.27
815.721	175.42
816.158	185.57
816.595	248.02
817.032	318.07
817.47	291.67
817.907	206.22
818.344	179.92
818.781	180.62
819.218	213.62
819.655	323.02
820.092	441.32
820.529	399.87
820.966	311.22
821.403	211.72
821.839	183.12
822.276	200.77
822.713	241.72
823.15	228.17
823.587	242.87
824.023	438.42
824.46	1124.02
824.897	2033.52
825.333	1618.22
825.77	716.17
826.206	364.32
826.643	207.22
827.08	159.97
827.516	134.32
827.953	128.57
828.389	117.47
828.825	112.27
829.262	109.82
829.698	107.72
830.135	96.77
830.571	94.12
831.007	99.57
831.443	99.97
831.88	101.02
832.316	102.12
832.752	102.47
833.188	108.47
833.624	107.82
834.06	110.72
834.497	108.77
834.933	112.07
835.369	119.62
835.805	130.27
836.241	137.32
836.677	147.62
837.112	175.37
837.548	213.97
837.984	317.27
838.42	688.27
838.856	1958.72
839.292	4037.07
839.727	3026.32
840.163	1961.07
840.599	2947.12
841.034	4743.37
841.47	2384.92
841.906	1111.92
842.341	572.37
842.777	405.57
843.212	424.32
843.648	253.82
844.083	173.57
844.519	133.82
844.954	114.27
845.39	98.97
845.825	100.27
846.261	96.32
846.696	90.62
847.131	84.47
847.566	91.72
848.002	94.62
848.437	98.52
848.872	99.57
849.307	128.12
849.742	231.02
850.177	644.47
850.613	1433.62
851.048	1041.62
851.483	459.67
851.918	248.37
852.353	131.87
852.788	95.77
853.223	87.67
853.657	71.17
854.092	71.07
854.527	71.57
854.962	79.57
855.397	88.27
855.832	75.77
856.266	66.02
856.701	61.82
857.136	65.32
857.57	81.02
858.005	104.27
858.44	83.82
858.874	78.67
859.309	84.42
859.743	84.22
860.178	79.07
860.612	88.47
861.047	110.87
861.481	159.67
861.915	109.07
862.35	81.67
862.784	65.32
863.218	58.82
863.653	66.02
864.087	81.67
864.521	104.72
864.955	186.47
865.39	331.92
865.824	242.62
866.258	291.92
866.692	454.87
867.126	326.82
867.56	173.52
867.994	109.62
868.428	90.22
868.862	114.07
869.296	104.27
869.73	129.07
870.164	107.47
870.598	98.87
871.031	74.27
871.465	67.22
871.899	52.22
872.333	43.47
872.766	46.92
873.2	51.07
873.634	44.27
874.067	48.62
874.501	48.67
874.935	46.22
875.368	48.12
875.802	48.02
876.235	44.02
876.669	38.22
877.102	39.77
877.535	35.87
877.969	35.97
878.402	42.47
878.836	36.42
879.269	31.42
879.702	38.62
880.135	39.07
880.569	41.77
881.002	35.72
881.435	34.67
881.868	34.72
882.301	38.67
882.734	33.62
883.167	39.92
883.601	34.87
884.034	34.82
884.467	29.97
884.899	29.77
885.332	25.02
885.765	30.77
886.198	28.17
886.631	27.97
887.064	28.62
887.497	28.17
887.929	28.47
888.362	27.37
888.795	26.77
889.228	31.52
889.66	30.72
890.093	28.52
890.526	26.97
890.958	30.17
891.391	32.22
891.823	28.32
892.256	30.62
892.688	29.12
893.121	23.42
893.553	30.77
893.985	21.12
894.418	22.37
894.85	28.72
895.282	30.02
895.715	26.27
896.147	22.22
896.579	21.12
897.011	27.87
897.444	27.22
897.876	22.17
898.308	22.22
898.74	27.32
899.172	25.27
899.604	24.92
900.036	28.07
900.468	20.87
900.9	29.57
901.332	35.47
901.764	40.67
902.196	33.82
902.628	38.02
903.06	49.97
903.491	57.32
903.923	43.67
904.355	47.57
904.787	41.42
905.218	39.17
905.65	39.52
906.082	30.52
906.513	28.67
906.945	31.42
907.376	28.97
907.808	33.82
908.239	37.22
908.671	41.47
909.102	42.02
909.534	58.92
909.965	122.07
910.397	321.42
910.828	972.92
911.259	595.52
911.691	308.47
912.122	177.47
912.553	87.57
912.984	44.57
913.415	43.17
913.847	35.32
914.278	34.57
914.709	28.02
915.14	28.57
915.571	27.77
916.002	26.67
916.433	28.37
916.864	29.17
917.295	31.12
917.726	33.57
918.157	38.62
918.587	42.87
919.018	42.22
919.449	33.97
919.88	42.67
920.311	70.52
920.741	197.02
921.172	361.27
921.603	174.42
922.033	109.82
922.464	67.72
922.895	41.87
923.325	29.32
923.756	24.22
924.186	32.77
924.617	49.12
925.047	70.32
925.478	58.57
925.908	41.17
926.338	35.02
926.769	25.77
927.199	24.62
927.629	24.77
928.06	28.32
928.49	25.92
928.92	26.87
929.35	24.22
929.78	14.67
930.21	16.72
930.641	9.57
931.071	12.72
931.501	16.67
931.931	11.77
932.361	14.82
932.791	20.62
933.221	19.47
933.651	25.42
934.08	43.22
934.51	28.12
934.94	25.77
935.37	18.02
935.8	11.27
936.229	9.67
936.659	14.02
937.089	28.02
937.519	35.67
937.948	48.47
938.378	28.12
938.807	17.87
939.237	9.52
939.666	9.62
940.096	10.02
940.525	3.97
940.955	8.42
941.384	7.07
941.814	6.82
942.243	9.32
942.672	3.97
943.102	5.07
943.531	3.32
943.96	-0.03
944.39	9.47
944.819	6.32
945.248	6.12
945.677	9.97
946.106	6.87
946.535	4.97
946.964	6.27
947.393	6.57
947.822	4.42
948.251	7.57
948.68	6.02
949.109	3.22
949.538	1.82
949.967	4.77
950.396	7.22
950.825	5.32
951.254	2.92
951.682	4.22
952.111	1.02
952.54	5.37
952.969	1.67
953.397	-0.88
953.826	1.17
954.254	5.62
954.683	4.02
955.112	5.72
955.54	2.42
955.969	2.72
956.397	1.22
956.826	4.27
957.254	4.72
957.682	-0.48
958.111	9.77
958.539	4.27
958.967	-1.78
959.396	9.47
959.824	5.67
960.252	10.82
960.68	7.57
961.109	7.67
961.537	10.12
961.965	1.62
962.393	4.32
962.821	1.82
963.249	5.62
963.677	10.92
964.105	56.37
964.533	105.87
964.961	45.57
965.389	24.17
965.817	10.17
966.245	9.47
966.672	7.42
967.1	6.22
967.528	-0.43
967.956	3.17
968.383	8.07
968.811	1.17
969.239	2.27
969.666	5.32
970.094	0.32
970.522	-1.08
970.949	5.27
971.377	-3.73
971.804	1.02
972.232	3.47
972.659	-1.08
973.087	2.37
973.514	-2.38
973.941	-0.68
974.369	-2.58
974.796	-1.53
975.223	0.27
975.651	9.87
976.078	1.32
976.505	9.47
976.932	21.02
977.359	27.57
977.786	13.42
978.214	14.12
978.641	1.47
979.068	0.87
979.495	5.72
979.922	6.07
980.349	8.42
980.776	8.52
981.202	1.32
981.629	4.02
982.056	3.52
982.483	-4.68
982.91	4.72
983.337	-1.28
983.763	4.02
984.19	4.72
984.617	0.17
985.043	2.52
985.47	6.52
985.897	0.82
986.323	3.12
986.75	0.72
987.176	2.02
987.603	0.42
988.029	4.42
988.456	7.07
988.882	1.37
989.308	-2.58
989.735	-0.58
990.161	2.67
990.587	3.32
991.014	1.47
991.44	2.72
991.866	3.02
992.292	0.62
992.719	3.67
993.145	2.17
993.571	4.37
993.997	6.92
994.423	2.87
994.849	-7.53
995.275	4.77
995.701	8.37
996.127	-6.48
996.553	-0.68
996.979	-0.78
997.405	3.02
997.83	-0.03
998.256	4.07
998.682	0.62
999.108	3.87
999.534	-6.53
999.959	1.97
1000.385	3.27
1000.811	-0.58
1001.236	0.77
1001.662	-1.58
1002.087	5.47
1002.513	3.62
1002.938	-4.18
1003.364	0.62
1003.789	1.37
1004.215	0.67
1004.64	2.62
1005.066	2.87
1005.491	7.62
1005.916	5.62
1006.342	2.77
1006.767	3.07
1007.192	1.07
1007.617	3.62
1008.042	-0.73
1008.468	1.82
1008.893	4.42
1009.318	7.87
1009.743	6.57
1010.168	19.52
1010.593	17.47
1011.018	11.27
1011.443	5.22
1011.868	6.12
1012.293	1.72
1012.718	0.92
1013.143	0.97
1013.567	4.32
1013.992	0.07
1014.417	0.02
1014.842	0.32
1015.267	-0.33
1015.691	4.67
1016.116	5.87
1016.541	-1.13
1016.965	-0.88
1017.39	3.27
1017.814	0.37
1018.239	0.27
1018.663	-6.63
1019.088	-4.08
1019.512	4.17
1019.937	-3.23
1020.361	-0.28
1020.785	-0.98
1021.21	-5.28
1021.634	-1.48
1022.058	1.17
1022.483	-3.18
1022.907	-2.78
1023.331	-1.63
1023.755	-2.03
1024.179	-0.33
1024.604	1.77
1025.028	1.12
1025.452	7.77
1025.876	2.17
1026.3	2.47
1026.724	0.67
1027.148	6.22
1027.572	-3.18
1027.996	2.22
1028.42	0.57
1028.843	-3.13
1029.267	-0.33
1029.691	5.07
1030.115	-4.23
1030.539	-2.13
1030.962	0.82
1031.386	1.42
1031.81	-5.08
1032.233	0.42
1032.657	-3.53
1033.08	0.92
1033.504	-3.58
1033.927	-4.18
1034.351	-1.33
1034.774	-2.48
1035.198	-0.83
1035.621	-0.78
1036.045	-7.38
1036.468	3.37
1036.891	-0.93
1037.315	3.02
1037.738	1.97
1038.161	1.32
1038.584	-0.53
1039.008	-0.78
1039.431	-0.83
1039.854	-5.38
1040.277	2.02
1040.7	-3.48
1041.123	-0.88
1041.546	-1.33
1041.969	3.92
1042.392	3.97
1042.815	-5.43
1043.238	-7.08
1043.661	1.02
1044.084	-4.63
1044.507	2.87
1044.93	-0.93
1045.352	0.47
1045.775	3.07
1046.198	2.22
1046.621	2.37
1047.043	-3.73
1047.466	5.12
1047.889	-1.98
1048.311	3.32
1048.734	-3.03
1049.156	-2.23
1049.579	-3.73
1050.001	-3.88
1050.424	-2.13
1050.846	0.67
1051.269	-5.03
1051.691	-2.83
1052.113	-0.28
1052.536	-1.68
1052.958	-2.93
1053.38	1.62
1053.802	5.82
1054.225	2.27
1054.647	0.07
1055.069	-1.73
1055.491	-1.33
1055.913	-0.03
1056.335	-9.28
1056.757	0.07
1057.179	-5.33
1057.601	-4.13
1058.023	1.37
1058.445	-2.28
1058.867	2.37
1059.289	-1.18
1059.711	-3.28
1060.133	-0.68
1060.555	-2.78
1060.976	-1.13
1061.398	-3.63
1061.82	0.27
1062.241	-3.78
1062.663	-0.28
1063.085	-4.88
1063.506	-6.83
1063.928	-4.63
1064.35	-1.68
1064.771	-1.43
1065.193	-3.88
1065.614	-4.48
1066.035	3.22
1066.457	1.42
1066.878	-4.03
1067.3	-4.63
1067.721	3.17
1068.142	2.27
1068.564	-1.58
1068.985	-1.98
1069.406	-1.68
1069.827	-1.38
1070.248	-3.68
1070.67	-2.23
1071.091	-7.63
1071.512	-4.43
1071.933	-1.48
1072.354	-7.13
1072.775	-0.33
1073.196	-0.13
1073.617	-4.53
1074.038	-0.53
1074.459	-4.68
1074.88	-5.98
1075.3	-0.18
1075.721	-1.28
1076.142	-3.98
1076.563	-2.28
1076.983	0.67
1077.404	-4.28
1077.825	-0.58
1078.246	-4.03
1078.666	-1.93
1079.087	-4.43
1079.507	-5.93
1079.928	-0.28
1080.348	-3.13
1080.769	-3.33
1081.189	-2.63
1081.61	-6.18
1082.03	1.77
1082.451	-4.78
1082.871	-4.48
1083.291	-2.33
1083.711	-4.38
1084.132	-2.58
1084.552	-3.58
1084.972	-8.83
1085.392	-3.23
1085.813	1.07
1086.233	-2.68
1086.653	-1.33
1087.073	-4.88
1087.493	-3.68
1087.913	-4.03
1088.333	-0.03
1088.753	0.12
1089.173	4.07
1089.593	3.27
1090.013	0.22
1090.433	-3.63
1090.852	1.27
1091.272	-1.83
1091.692	-0.88
1092.112	-4.58
1092.531	-6.58
1092.951	-5.13
1093.371	-3.88
1093.79	-4.18
1094.21	-3.13
1094.63	1.22
1095.049	-0.63
1095.469	-6.38
1095.888	-0.83
1096.308	1.77
1096.727	-4.23
1097.146	-4.73
1097.566	-4.78
1097.985	1.97
1098.405	-2.38
1098.824	2.42
1099.243	-3.58
1099.662	-2.73
1100.082	-2.13
1100.501	-2.08
1100.92	4.37
1101.339	1.02
1101.758	3.27
