Data from MSPlasma+Separation6_Subt14_10-13-04-204.txt Node
Date: Fri Jul 21 10:13:04 EDT 2017
User: Ender
Spectrometer: HR+D1039
Trigger mode: 0
Integration Time (sec): 6.430000E-3
Scans to average: 20
Electric dark correction enabled: true
Nonlinearity correction enabled: false
Boxcar width: 0
XAxis mode: Wavelengths
Number of Pixels in Spectrum: 2048
>>>>>Begin Spectral Data<<<<<
187.836	-1.82
188.309	-1.82
188.782	-1.82
189.255	1.48
189.728	-0.17
190.201	-0.67
190.674	-2.02
191.147	-2.02
191.619	-0.77
192.092	-0.77
192.565	-0.62
193.038	4.18
193.511	1.88
193.984	2.03
194.456	1.28
194.929	-1.97
195.402	-1.72
195.874	1.78
196.347	4.73
196.82	0.13
197.292	-2.82
197.765	2.68
198.237	-0.42
198.71	-6.22
199.182	-1.47
199.655	3.48
200.127	-0.97
200.6	0.38
201.072	0.33
201.544	-2.62
202.017	2.38
202.489	-0.52
202.961	0.73
203.433	-3.52
203.906	-0.12
204.378	-0.77
204.85	-2.32
205.322	-2.47
205.794	0.43
206.266	-3.42
206.739	1.88
207.211	-1.17
207.683	-0.22
208.155	1.58
208.627	-5.77
209.099	3.73
209.57	0.33
210.042	-0.87
210.514	0.08
210.986	-0.67
211.458	-3.47
211.93	3.18
212.402	0.08
212.873	0.18
213.345	-2.22
213.817	4.13
214.288	-3.27
214.76	2.18
215.232	-1.97
215.703	-0.57
216.175	0.28
216.646	1.13
217.118	0.23
217.589	-6.12
218.061	-3.67
218.532	-6.22
219.004	1.28
219.475	-0.47
219.946	3.23
220.418	5.03
220.889	2.18
221.36	6.83
221.832	5.08
222.303	4.63
222.774	1.93
223.245	0.73
223.717	-4.77
224.188	1.08
224.659	2.43
225.13	-4.32
225.601	-3.12
226.072	-0.77
226.543	5.88
227.014	1.78
227.485	3.83
227.956	-0.92
228.427	9.28
228.898	1.53
229.369	2.58
229.839	2.03
230.31	10.33
230.781	5.18
231.252	4.93
231.722	5.98
232.193	6.03
232.664	5.78
233.135	7.43
233.605	7.33
234.076	13.68
234.546	8.93
235.017	10.08
235.487	9.78
235.958	3.78
236.428	6.68
236.899	8.18
237.369	12.58
237.84	8.13
238.31	10.23
238.78	9.03
239.251	10.28
239.721	7.93
240.191	12.03
240.662	10.28
241.132	13.73
241.602	12.28
242.072	7.83
242.542	8.63
243.013	5.63
243.483	12.28
243.953	9.03
244.423	13.23
244.893	10.78
245.363	16.28
245.833	12.93
246.303	12.43
246.773	19.83
247.243	11.38
247.712	13.88
248.182	13.13
248.652	20.18
249.122	17.33
249.592	17.88
250.061	13.83
250.531	16.78
251.001	19.63
251.471	19.18
251.94	19.58
252.41	18.68
252.879	18.88
253.349	27.43
253.818	19.23
254.288	20.18
254.757	20.93
255.227	22.33
255.696	20.48
256.166	21.18
256.635	21.58
257.105	26.93
257.574	26.63
258.043	22.33
258.513	25.63
258.982	24.98
259.451	26.88
259.92	18.68
260.389	28.13
260.859	25.53
261.328	27.73
261.797	23.88
262.266	29.43
262.735	30.43
263.204	23.73
263.673	33.78
264.142	23.53
264.611	24.88
265.08	29.08
265.549	25.38
266.018	29.98
266.487	30.18
266.955	29.68
267.424	33.43
267.893	32.33
268.362	34.53
268.83	33.13
269.299	29.38
269.768	34.43
270.236	30.18
270.705	40.48
271.174	33.48
271.642	30.73
272.111	33.63
272.579	34.98
273.048	34.73
273.516	38.13
273.985	41.23
274.453	34.98
274.922	35.48
275.39	35.38
275.858	39.23
276.327	39.33
276.795	40.28
277.263	44.23
277.731	39.68
278.2	46.28
278.668	42.28
279.136	42.93
279.604	43.08
280.072	43.98
280.54	43.68
281.008	47.83
281.477	48.08
281.945	41.03
282.413	45.88
282.881	48.78
283.348	48.98
283.816	46.73
284.284	49.78
284.752	47.43
285.22	51.53
285.688	50.23
286.156	55.78
286.623	49.13
287.091	48.28
287.559	50.18
288.026	57.78
288.494	57.53
288.962	53.68
289.429	54.53
289.897	56.88
290.364	52.68
290.832	54.23
291.3	51.78
291.767	56.98
292.234	59.23
292.702	63.13
293.169	62.03
293.637	62.28
294.104	65.33
294.571	62.28
295.039	64.88
295.506	60.83
295.973	66.58
296.44	57.53
296.908	68.63
297.375	61.98
297.842	64.13
298.309	62.78
298.776	63.88
299.243	71.03
299.71	67.43
300.177	67.18
300.644	66.73
301.111	69.98
301.578	73.93
302.045	70.68
302.512	72.03
302.979	75.18
303.446	76.03
303.913	76.78
304.379	81.43
304.846	79.83
305.313	87.83
305.78	86.43
306.246	81.63
306.713	80.18
307.18	86.33
307.646	87.58
308.113	82.88
308.579	87.78
309.046	93.83
309.512	90.63
309.979	95.83
310.445	87.28
310.912	92.68
311.378	95.68
311.845	102.23
312.311	92.13
312.777	97.18
313.244	99.63
313.71	100.88
314.176	101.68
314.642	96.78
315.109	102.53
315.575	98.68
316.041	100.83
316.507	95.83
316.973	110.73
317.439	105.68
317.905	103.98
318.371	106.93
318.837	105.18
319.303	104.98
319.769	105.28
320.235	110.58
320.701	111.88
321.167	112.88
321.633	111.83
322.099	104.53
322.564	114.03
323.03	114.38
323.496	110.53
323.962	116.03
324.427	122.33
324.893	120.23
325.359	122.98
325.824	127.58
326.29	126.12
326.755	123.73
327.221	124.98
327.686	134.58
328.152	131.18
328.617	134.83
329.083	134.28
329.548	139.43
330.014	138.28
330.479	139.38
330.944	139.33
331.41	143.83
331.875	134.03
332.34	139.53
332.805	139.12
333.271	138.73
333.736	139.33
334.201	141.38
334.666	150.58
335.131	148.43
335.596	150.53
336.061	143.48
336.526	147.38
336.991	145.28
337.456	147.58
337.921	143.78
338.386	143.08
338.851	143.73
339.316	144.38
339.781	143.53
340.246	151.23
340.711	148.83
341.175	156.23
341.64	156.33
342.105	159.83
342.569	168.33
343.034	156.03
343.499	160.88
343.963	172.68
344.428	172.02
344.893	174.08
345.357	177.33
345.822	175.83
346.286	176.62
346.751	179.13
347.215	181.73
347.679	187.73
348.144	195.58
348.608	195.93
349.073	198.83
349.537	207.83
350.001	207.58
350.465	207.42
350.93	209.78
351.394	211.98
351.858	208.28
352.322	211.73
352.786	212.43
353.25	209.23
353.715	214.33
354.179	229.98
354.643	229.43
355.107	232.58
355.571	230.98
356.035	230.12
356.498	227.48
356.962	221.83
357.426	221.93
357.89	221.77
358.354	218.63
358.818	220.43
359.281	226.08
359.745	223.78
360.209	218.83
360.673	226.53
361.136	222.83
361.6	225.78
362.064	232.78
362.527	239.52
362.991	236.33
363.454	236.38
363.918	243.68
364.381	240.38
364.845	235.83
365.308	238.83
365.772	240.08
366.235	245.28
366.698	239.88
367.162	239.53
367.625	237.33
368.088	245.93
368.552	246.58
369.015	248.83
369.478	246.38
369.941	251.88
370.404	252.98
370.867	248.48
371.331	251.23
371.794	263.73
372.257	262.98
372.72	256.73
373.183	269.38
373.646	262.33
374.109	260.13
374.572	267.28
375.035	276.02
375.497	270.08
375.96	273.48
376.423	281.88
376.886	286.88
377.349	289.23
377.811	286.18
378.274	285.62
378.737	282.88
379.199	288.23
379.662	291.68
380.125	295.38
380.587	299.18
381.05	298.93
381.512	301.38
381.975	317.18
382.437	319.18
382.9	312.73
383.362	312.12
383.825	319.08
384.287	319.12
384.75	321.13
385.212	318.77
385.674	327.18
386.136	338.38
386.599	327.73
387.061	322.08
387.523	329.78
387.985	330.88
388.447	335.08
388.91	337.13
389.372	340.12
389.834	340.93
390.296	328.73
390.758	337.58
391.22	333.18
391.682	339.17
392.144	339.92
392.606	340.42
393.068	349.38
393.529	373.88
393.991	380.98
394.453	361.13
394.915	344.83
395.377	341.98
395.838	341.73
396.3	347.73
396.762	348.52
397.224	351.43
397.685	347.63
398.147	350.88
398.608	355.03
399.07	362.53
399.531	360.43
399.993	375.18
400.454	377.88
400.916	376.98
401.377	384.28
401.839	387.27
402.3	380.68
402.762	397.43
403.223	435.93
403.684	433.78
404.145	407.53
404.607	394.68
405.068	385.23
405.529	393.92
405.99	393.98
406.451	399.48
406.913	392.28
407.374	395.88
407.835	392.28
408.296	413.58
408.757	408.68
409.218	416.93
409.679	419.68
410.14	427.03
410.601	441.33
411.062	442.48
411.522	448.28
411.983	449.83
412.444	460.68
412.905	474.18
413.366	499.17
413.826	525.03
414.287	607.28
414.748	737.88
415.208	758.58
415.669	619.98
416.13	556.83
416.59	539.53
417.051	562.48
417.511	605.93
417.972	647.58
418.432	708.23
418.893	794.48
419.353	762.68
419.814	564.28
420.274	497.08
420.734	486.93
421.195	503.73
421.655	497.63
422.115	503.13
422.576	505.18
423.036	499.33
423.496	519.28
423.956	545.33
424.416	586.73
424.876	662.33
425.336	655.62
425.797	633.93
426.257	626.48
426.717	567.83
427.177	515.93
427.637	512.62
428.097	516.28
428.556	533.12
429.016	576.08
429.476	565.93
429.936	528.73
430.396	523.62
430.856	531.48
431.315	534.88
431.775	575.73
432.235	632.67
432.694	643.98
433.154	594.98
433.614	582.03
434.073	572.48
434.533	518.33
434.993	507.88
435.452	524.73
435.912	519.38
436.371	527.78
436.83	528.12
437.29	525.08
437.749	520.08
438.209	522.62
438.668	531.73
439.127	540.33
439.587	541.53
440.046	534.48
440.505	546.88
440.964	551.23
441.424	571.52
441.883	591.08
442.342	563.33
442.801	537.83
443.26	556.03
443.719	547.93
444.178	543.53
444.637	554.48
445.096	552.23
445.555	561.43
446.014	562.77
446.473	561.62
446.932	569.68
447.391	567.73
447.849	580.28
448.308	573.62
448.767	571.92
449.226	586.28
449.685	604.08
450.143	632.18
450.602	625.33
451.061	592.43
451.519	592.33
451.978	580.93
452.436	568.58
452.895	593.18
453.353	579.68
453.812	571.78
454.27	576.83
454.729	575.98
455.187	585.53
455.646	586.17
456.104	588.83
456.562	598.68
457.021	599.63
457.479	573.98
457.937	598.53
458.395	604.33
458.854	601.78
459.312	595.18
459.77	599.98
460.228	611.67
460.686	618.18
461.144	624.18
461.602	609.83
462.06	616.38
462.518	631.38
462.976	624.28
463.434	629.48
463.892	640.78
464.35	652.18
464.808	658.53
465.266	670.78
465.724	674.83
466.181	681.18
466.639	671.02
467.097	695.28
467.555	714.13
468.012	710.73
468.47	713.67
468.928	737.43
469.385	761.68
469.843	764.33
470.3	762.23
470.758	777.43
471.215	795.68
471.673	799.08
472.13	816.13
472.588	832.33
473.045	829.38
473.503	839.68
473.96	865.98
474.417	874.13
474.875	902.03
475.332	922.43
475.789	933.78
476.246	945.02
476.704	974.78
477.161	983.23
477.618	981.03
478.075	995.73
478.532	1017.53
478.989	1055.28
479.446	1106.97
479.903	1093.93
480.36	1116.28
480.817	1103.83
481.274	1119.53
481.731	1165.43
482.188	1178.73
482.645	1200.98
483.102	1209.68
483.558	1248.93
484.015	1269.22
484.472	1267.27
484.929	1280.83
485.385	1274.68
485.842	1284.22
486.299	1295.58
486.755	1284.38
487.212	1267.08
487.668	1229.28
488.125	1233.18
488.582	1216.03
489.038	1216.23
489.494	1227.62
489.951	1231.12
490.407	1240.98
490.864	1248.92
491.32	1241.78
491.776	1248.18
492.233	1262.62
492.689	1254.23
493.145	1249.28
493.602	1241.53
494.058	1262.72
494.514	1267.98
494.97	1271.42
495.426	1308.02
495.882	1303.88
496.338	1293.98
496.794	1318.38
497.251	1309.72
497.707	1335.77
498.163	1344.38
498.618	1346.82
499.074	1338.07
499.53	1361.23
499.986	1363.07
500.442	1361.12
500.898	1350.68
501.354	1359.68
501.809	1369.33
502.265	1372.28
502.721	1378.22
503.177	1375.93
503.632	1392.28
504.088	1398.73
504.543	1414.68
504.999	1422.62
505.455	1416.38
505.91	1402.03
506.366	1410.48
506.821	1418.53
507.277	1402.93
507.732	1413.12
508.187	1410.83
508.643	1422.48
509.098	1425.92
509.553	1442.98
510.009	1462.28
510.464	1487.43
510.919	1496.67
511.375	1511.28
511.83	1534.82
512.285	1555.83
512.74	1583.43
513.195	1608.47
513.65	1641.63
514.105	1667.08
514.56	1671.78
515.015	1699.22
515.47	1708.92
515.925	1687.53
516.38	1689.33
516.835	1701.33
517.29	1691.18
517.745	1684.48
518.2	1662.73
518.655	1632.58
519.109	1603.28
519.564	1567.88
520.019	1561.18
520.474	1562.83
520.928	1551.67
521.383	1534.08
521.838	1524.43
522.292	1517.73
522.747	1494.52
523.201	1491.58
523.656	1479.42
524.11	1478.62
524.565	1463.28
525.019	1455.08
525.474	1465.38
525.928	1458.72
526.382	1455.28
526.837	1459.58
527.291	1456.08
527.745	1446.83
528.2	1455.17
528.654	1432.88
529.108	1440.93
529.562	1439.33
530.016	1433.62
530.47	1434.98
530.925	1435.38
531.379	1432.33
531.833	1458.22
532.287	1445.98
532.741	1426.03
533.195	1436.68
533.649	1444.28
534.103	1438.17
534.556	1430.92
535.01	1446.53
535.464	1432.72
535.918	1426.12
536.372	1456.73
536.826	1436.83
537.279	1435.93
537.733	1424.12
538.187	1436.92
538.64	1439.72
539.094	1443.33
539.548	1468.68
540.001	1457.42
540.455	1474.43
540.908	1486.38
541.362	1493.13
541.815	1504.38
542.269	1529.38
542.722	1536.42
543.175	1552.28
543.629	1561.78
544.082	1577.83
544.536	1595.83
544.989	1595.02
545.442	1611.63
545.895	1604.53
546.349	1608.98
546.802	1609.62
547.255	1610.73
547.708	1621.92
548.161	1650.63
548.614	1658.53
549.067	1658.97
549.52	1641.92
549.973	1625.22
550.426	1602.43
550.879	1606.23
551.332	1597.73
551.785	1616.27
552.238	1629.83
552.691	1627.03
553.144	1656.83
553.596	1683.18
554.049	1701.32
554.502	1732.02
554.955	1767.12
555.407	1809.22
555.86	1778.38
556.313	1757.03
556.765	1741.43
557.218	1705.33
557.67	1708.03
558.123	1695.28
558.576	1678.22
559.028	1668.12
559.48	1699.53
559.933	1692.57
560.385	1644.42
560.838	1575.83
561.29	1531.98
561.742	1518.18
562.195	1482.03
562.647	1468.58
563.099	1457.83
563.551	1462.48
564.004	1476.98
564.456	1458.23
564.908	1419.38
565.36	1391.97
565.812	1354.32
566.264	1338.18
566.716	1329.48
567.168	1304.12
567.62	1306.28
568.072	1292.97
568.524	1283.92
568.976	1279.78
569.428	1274.88
569.88	1271.03
570.332	1276.62
570.784	1277.58
571.235	1278.23
571.687	1282.68
572.139	1287.63
572.59	1304.92
573.042	1309.52
573.494	1302.83
573.945	1286.58
574.397	1254.78
574.849	1239.58
575.3	1249.08
575.752	1230.18
576.203	1228.22
576.655	1227.17
577.106	1210.08
577.557	1203.33
578.009	1200.97
578.46	1216.48
578.912	1187.78
579.363	1205.78
579.814	1205.03
580.265	1202.78
580.717	1199.48
581.168	1192.88
581.619	1194.93
582.07	1214.88
582.521	1210.42
582.972	1205.18
583.423	1208.58
583.875	1210.17
584.326	1220.88
584.777	1242.27
585.227	1259.73
585.678	1286.68
586.129	1287.12
586.58	1306.62
587.031	1326.08
587.482	1369.98
587.933	1386.52
588.384	1396.82
588.834	1376.93
589.285	1361.08
589.736	1375.53
590.186	1378.62
590.637	1356.22
591.088	1319.08
591.538	1289.83
591.989	1269.83
592.439	1256.47
592.89	1240.97
593.34	1241.93
593.791	1224.58
594.241	1220.08
594.692	1209.93
595.142	1219.63
595.593	1216.92
596.043	1217.77
596.493	1236.98
596.943	1229.43
597.394	1267.13
597.844	1273.97
598.294	1315.27
598.744	1352.33
599.195	1435.03
599.645	1526.13
600.095	1592.33
600.545	1686.73
600.995	1756.88
601.445	1835.73
601.895	1937.92
602.345	1997.12
602.795	1980.18
603.245	1887.62
603.695	1764.08
604.145	1663.67
604.594	1582.28
605.044	1490.98
605.494	1388.83
605.944	1312.18
606.393	1276.22
606.843	1239.62
607.293	1239.77
607.743	1241.62
608.192	1250.08
608.642	1257.38
609.091	1257.22
609.541	1251.53
609.99	1253.03
610.44	1221.78
610.889	1207.98
611.339	1186.08
611.788	1174.38
612.238	1176.42
612.687	1183.83
613.136	1195.93
613.586	1202.48
614.035	1197.88
614.484	1208.28
614.933	1200.48
615.383	1187.48
615.832	1151.68
616.281	1138.33
616.73	1114.53
617.179	1097.38
617.628	1068.78
618.077	1050.93
618.526	1033.38
618.975	1029.67
619.424	1013.13
619.873	1011.18
620.322	1004.42
620.771	998.48
621.22	984.33
621.669	960.92
622.118	947.48
622.567	940.12
623.015	918.18
623.464	923.38
623.913	906.08
624.361	910.03
624.81	904.88
625.259	903.08
625.707	900.43
626.156	907.42
626.604	915.53
627.053	930.58
627.501	923.43
627.95	938.58
628.398	945.18
628.847	929.73
629.295	920.93
629.744	920.23
630.192	902.48
630.64	885.53
631.089	872.73
631.537	844.13
631.985	831.28
632.433	831.67
632.881	819.28
633.33	828.03
633.778	828.78
634.226	832.53
634.674	842.17
635.122	840.53
635.57	861.58
636.018	872.18
636.466	867.38
636.914	867.88
637.362	883.28
637.81	897.18
638.258	922.23
638.705	927.58
639.153	962.68
639.601	969.18
640.049	985.73
640.497	1017.43
640.944	1045.23
641.392	982.43
641.84	911.98
642.287	865.38
642.735	825.38
643.182	808.23
643.63	799.48
644.078	789.68
644.525	791.53
644.973	799.23
645.42	798.83
645.867	797.08
646.315	801.83
646.762	807.63
647.21	811.52
647.657	813.17
648.104	806.73
648.551	769.93
648.999	768.78
649.446	765.58
649.893	763.48
650.34	760.67
650.787	782.98
651.234	817.53
651.682	885.28
652.129	962.18
652.576	1094.12
653.023	1261.97
653.47	1363.77
653.917	1415.18
654.363	1458.12
654.81	1529.18
655.257	1580.98
655.704	1247.33
656.151	978.13
656.598	855.08
657.044	785.63
657.491	769.02
657.938	753.78
658.385	741.13
658.831	739.73
659.278	728.88
659.724	721.73
660.171	725.58
660.618	695.43
661.064	681.88
661.511	693.73
661.957	683.58
662.404	697.43
662.85	704.78
663.296	710.52
663.743	706.33
664.189	720.23
664.635	714.73
665.082	701.98
665.528	712.73
665.974	685.18
666.42	689.93
666.867	683.33
667.313	645.93
667.759	642.98
668.205	644.58
668.651	647.12
669.097	651.43
669.543	651.38
669.989	661.98
670.435	663.28
670.881	669.28
671.327	705.73
671.773	759.83
672.219	825.43
672.665	888.88
673.11	931.78
673.556	952.68
674.002	990.28
674.448	1011.98
674.893	848.53
675.339	721.62
675.785	672.08
676.23	636.58
676.676	601.98
677.122	595.53
677.567	578.73
678.013	551.18
678.458	552.08
678.904	550.67
679.349	543.98
679.794	546.28
680.24	543.58
680.685	532.03
681.131	535.83
681.576	542.68
682.021	545.13
682.466	551.58
682.912	550.53
683.357	583.23
683.802	636.23
684.247	704.78
684.692	752.98
685.137	800.62
685.583	823.23
686.028	876.08
686.473	826.93
686.918	697.03
687.363	631.02
687.807	603.58
688.252	570.83
688.697	544.83
689.142	523.93
689.587	533.08
690.032	537.68
690.477	553.93
690.921	586.93
691.366	626.68
691.811	649.98
692.255	712.02
692.7	871.48
693.145	1250.88
693.589	1919.58
694.034	2326.57
694.478	2554.22
694.923	2398.07
695.367	3523.62
695.812	2077.23
696.256	828.48
696.701	597.98
697.145	552.23
697.59	525.38
698.034	516.27
698.478	516.63
698.922	512.67
699.367	528.12
699.811	557.98
700.255	598.23
700.699	667.58
701.143	731.03
701.588	776.03
702.032	819.33
702.476	836.78
702.92	880.38
703.364	1141.98
703.808	1759.28
704.252	2249.57
704.696	2431.08
705.14	2363.48
705.584	3329.72
706.027	1776.03
706.471	864.68
706.915	631.93
707.359	553.28
707.803	514.73
708.246	493.83
708.69	492.08
709.134	487.43
709.577	477.23
710.021	488.03
710.465	487.63
710.908	476.38
711.352	503.73
711.795	559.18
712.239	608.73
712.682	627.63
713.126	612.63
713.569	706.18
714.012	566.23
714.456	480.98
714.899	449.93
715.342	428.98
715.786	414.88
716.229	399.48
716.672	388.62
717.115	393.68
717.558	403.83
718.002	407.48
718.445	430.98
718.888	451.18
719.331	464.03
719.774	477.78
720.217	470.92
720.66	440.03
721.103	417.88
721.546	388.28
721.989	380.18
722.432	372.83
722.874	375.02
723.317	382.58
723.76	412.48
724.203	504.28
724.645	686.13
725.088	834.92
725.531	821.43
725.974	934.88
726.416	828.48
726.859	489.42
727.301	395.38
727.744	375.63
728.187	376.23
728.629	379.88
729.071	404.08
729.514	428.28
729.956	442.67
730.399	451.53
730.841	451.68
731.283	437.03
731.726	423.78
732.168	430.63
732.61	453.88
733.053	486.53
733.495	548.18
733.937	611.73
734.379	727.48
734.821	929.43
735.263	1455.78
735.705	2625.18
736.148	3975.28
736.59	4112.03
737.032	4617.82
737.474	3765.92
737.916	1390.23
738.357	698.52
738.799	531.28
739.241	493.28
739.683	494.23
740.125	500.78
740.567	503.78
741.008	543.03
741.45	567.53
741.892	593.98
742.334	600.18
742.775	607.08
743.217	570.48
743.658	477.53
744.1	481.48
744.542	541.38
744.983	573.98
745.425	613.62
745.866	602.88
746.307	500.73
746.749	537.67
747.19	776.63
747.632	1544.23
748.073	2895.27
748.514	4107.83
748.956	5628.83
749.397	6654.43
749.838	4549.97
750.279	4504.32
750.72	2250.68
751.162	914.98
751.603	519.08
752.044	411.03
752.485	363.68
752.926	338.78
753.367	322.68
753.808	312.83
754.249	307.03
754.69	308.33
755.131	297.88
755.572	293.83
756.013	295.63
756.453	301.43
756.894	304.23
757.335	302.48
757.776	303.43
758.216	322.43
758.657	344.83
759.098	376.58
759.538	453.73
759.979	663.23
760.42	1325.07
760.86	3422.28
761.301	7365.78
761.741	9040.98
762.182	10918.53
762.622	6892.57
763.063	2358.83
763.503	944.68
763.943	545.23
764.384	425.23
764.824	362.23
765.264	337.98
765.705	321.27
766.145	300.67
766.585	288.48
767.025	278.03
767.465	277.38
767.906	283.83
768.346	303.28
768.786	345.48
769.226	518.68
769.666	1057.53
770.106	2411.62
770.546	3577.78
770.986	4261.68
771.426	3211.47
771.866	1278.42
772.306	554.98
772.745	341.43
773.185	282.78
773.625	268.88
774.065	282.93
774.505	391.02
774.944	679.83
775.384	997.08
775.824	1163.12
776.263	982.58
776.703	509.48
777.142	292.53
777.582	228.03
778.021	207.73
778.461	198.08
778.9	196.68
779.34	196.73
779.779	183.53
780.219	184.48
780.658	180.83
781.097	181.48
781.537	175.67
781.976	167.92
782.415	174.53
782.855	171.38
783.294	169.23
783.733	167.08
784.172	173.43
784.611	171.67
785.05	172.23
785.489	181.62
785.928	188.63
786.367	191.88
786.806	202.93
787.245	224.13
787.684	224.98
788.123	223.63
788.562	215.78
789.001	207.08
789.44	201.43
789.879	199.13
790.317	203.08
790.756	213.93
791.195	241.98
791.634	334.23
792.072	614.33
792.511	1526.43
792.95	2923.73
793.388	3717.68
793.827	2401.68
794.265	1055.72
794.704	494.33
795.142	296.33
795.581	243.63
796.019	217.08
796.458	216.13
796.896	219.93
797.334	256.63
797.773	347.27
798.211	677.77
798.649	1449.12
799.087	2477.22
799.526	3533.62
799.964	3741.38
800.402	2615.07
800.84	1135.62
801.278	543.03
801.716	324.83
802.154	262.78
802.592	236.48
803.03	243.58
803.468	252.12
803.906	252.98
804.344	244.13
804.782	233.58
805.22	238.13
805.658	248.63
806.096	264.78
806.533	294.78
806.971	381.03
807.409	544.38
807.847	1096.33
808.284	2846.77
808.722	5227.38
809.16	7341.58
809.597	9808.88
810.035	12715.38
810.472	8359.73
810.91	3370.98
811.347	1491.83
811.785	695.98
812.222	429.48
812.66	333.08
813.097	283.12
813.535	242.88
813.972	221.23
814.409	198.83
814.846	193.58
815.284	182.68
815.721	183.67
816.158	197.73
816.595	263.73
817.032	336.93
817.47	314.18
817.907	226.67
818.344	193.38
818.781	186.98
819.218	232.98
819.655	351.73
820.092	460.88
820.529	420.68
820.966	330.78
821.403	228.13
821.839	193.58
822.276	209.23
822.713	261.13
823.15	244.53
823.587	252.58
824.023	467.18
824.46	1201.43
824.897	2183.07
825.333	1738.62
825.77	759.23
826.206	389.17
826.643	221.28
827.08	165.28
827.516	144.68
827.953	132.08
828.389	127.53
828.825	125.23
829.262	121.38
829.698	109.63
830.135	104.88
830.571	107.43
831.007	107.53
831.443	106.93
831.88	104.43
832.316	113.68
832.752	110.23
833.188	109.73
833.624	113.18
834.06	118.28
834.497	120.28
834.933	120.53
835.369	128.88
835.805	139.62
836.241	147.28
836.677	163.23
837.112	181.08
837.548	233.33
837.984	344.83
838.42	733.98
838.856	2096.38
839.292	4336.88
839.727	3260.93
840.163	2078.73
840.599	3145.48
841.034	5118.03
841.47	2555.07
841.906	1178.73
842.341	612.83
842.777	434.33
843.212	448.98
843.648	279.13
844.083	190.58
844.519	140.88
844.954	123.58
845.39	108.13
845.825	101.33
846.261	95.58
846.696	93.63
847.131	93.58
847.566	97.18
848.002	96.23
848.437	105.18
848.872	104.83
849.307	138.98
849.742	253.18
850.177	695.38
850.613	1540.17
851.048	1122.93
851.483	485.83
851.918	262.58
852.353	146.88
852.788	97.33
853.223	90.18
853.657	78.78
854.092	82.13
854.527	79.33
854.962	81.38
855.397	91.63
855.832	78.28
856.266	72.83
856.701	70.78
857.136	73.68
857.57	87.18
858.005	106.73
858.44	92.93
858.874	83.48
859.309	89.98
859.743	86.08
860.178	79.62
860.612	92.18
861.047	120.58
861.481	175.03
861.915	117.83
862.35	89.13
862.784	65.23
863.218	66.48
863.653	72.58
864.087	90.08
864.521	109.48
864.955	197.28
865.39	352.68
865.824	255.13
866.258	307.68
866.692	477.63
867.126	351.13
867.56	183.68
867.994	113.48
868.428	97.78
868.862	124.13
869.296	112.58
869.73	138.68
870.164	113.53
870.598	108.23
871.031	70.88
871.465	70.63
871.899	56.68
872.333	44.78
872.766	45.03
873.2	45.03
873.634	46.28
874.067	54.78
874.501	46.63
874.935	52.13
875.368	56.03
875.802	52.33
876.235	46.38
876.669	46.38
877.102	36.62
877.535	36.48
877.969	38.88
878.402	34.78
878.836	41.33
879.269	38.28
879.702	42.13
880.135	40.08
880.569	39.98
881.002	36.13
881.435	35.08
881.868	38.58
882.301	40.23
882.734	36.08
883.167	41.63
883.601	39.28
884.034	38.03
884.467	33.23
884.899	34.98
885.332	30.48
885.765	33.53
886.198	27.53
886.631	30.58
887.064	30.98
887.497	28.03
887.929	31.03
888.362	26.08
888.795	30.78
889.228	34.53
889.66	31.43
890.093	28.38
890.526	31.83
890.958	28.83
891.391	34.93
891.823	27.68
892.256	30.43
892.688	29.48
893.121	25.03
893.553	28.58
893.985	25.13
894.418	21.43
894.85	34.53
895.282	31.53
895.715	25.68
896.147	25.43
896.579	23.53
897.011	31.03
897.444	32.63
897.876	20.13
898.308	25.03
898.74	26.43
899.172	27.88
899.604	28.53
900.036	26.03
900.468	22.98
900.9	28.43
901.332	40.13
901.764	37.78
902.196	34.98
902.628	33.33
903.06	55.98
903.491	57.23
903.923	46.28
904.355	51.28
904.787	50.78
905.218	39.93
905.65	39.93
906.082	37.48
906.513	36.08
906.945	33.93
907.376	31.58
907.808	36.98
908.239	36.38
908.671	41.48
909.102	50.03
909.534	66.18
909.965	129.38
910.397	347.43
910.828	1051.78
911.259	642.48
911.691	336.13
912.122	189.63
912.553	100.08
912.984	48.73
913.415	43.13
913.847	36.93
914.278	32.78
914.709	31.33
915.14	33.73
915.571	33.43
916.002	28.03
916.433	26.38
916.864	27.23
917.295	25.58
917.726	36.83
918.157	46.93
918.587	42.48
919.018	41.43
919.449	36.38
919.88	41.78
920.311	69.78
920.741	210.43
921.172	394.42
921.603	186.98
922.033	108.48
922.464	69.98
922.895	45.23
923.325	28.33
923.756	27.83
924.186	34.18
924.617	46.63
925.047	71.88
925.478	66.23
925.908	46.43
926.338	32.53
926.769	27.48
927.199	29.43
927.629	24.53
928.06	31.13
928.49	26.68
928.92	21.62
929.35	20.63
929.78	21.23
930.21	15.08
930.641	12.68
931.071	15.48
931.501	12.78
931.931	13.18
932.361	14.63
932.791	19.08
933.221	17.13
933.651	29.68
934.08	49.83
934.51	28.58
934.94	26.38
935.37	19.63
935.8	13.98
936.229	16.98
936.659	17.73
937.089	23.68
937.519	41.43
937.948	52.68
938.378	34.73
938.807	16.78
939.237	10.58
939.666	10.03
940.096	6.98
940.525	1.33
940.955	8.53
941.384	3.88
941.814	4.08
942.243	3.48
942.672	1.98
943.102	1.73
943.531	2.23
943.96	4.88
944.39	8.23
944.819	9.28
945.248	3.78
945.677	3.73
946.106	3.93
946.535	5.83
946.964	6.98
947.393	6.13
947.822	4.58
948.251	7.38
948.68	8.62
949.109	5.63
949.538	5.62
949.967	4.68
950.396	6.53
950.825	4.63
951.254	7.08
951.682	-0.27
952.111	0.78
952.54	1.23
952.969	1.38
953.397	-2.72
953.826	3.43
954.254	4.78
954.683	9.08
955.112	6.43
955.54	3.88
955.969	1.83
956.397	5.88
956.826	3.53
957.254	3.28
957.682	5.88
958.111	4.13
958.539	5.13
958.967	2.13
959.396	5.13
959.824	6.38
960.252	3.18
960.68	3.33
961.109	1.73
961.537	6.18
961.965	-0.32
962.393	4.43
962.821	4.48
963.249	2.23
963.677	8.28
964.105	60.58
964.533	111.33
964.961	50.23
965.389	29.28
965.817	15.78
966.245	8.23
966.672	4.58
967.1	6.93
967.528	1.83
967.956	4.23
968.383	7.98
968.811	1.18
969.239	2.53
969.666	6.18
970.094	3.78
970.522	-2.17
970.949	0.53
971.377	-1.42
971.804	-1.02
972.232	1.73
972.659	2.38
973.087	2.53
973.514	-0.37
973.941	0.63
974.369	0.63
974.796	3.38
975.223	1.83
975.651	3.38
976.078	1.48
976.505	6.98
976.932	22.03
977.359	32.13
977.786	17.93
978.214	12.68
978.641	1.53
979.068	2.33
979.495	0.93
979.922	2.83
980.349	4.88
980.776	6.83
981.202	1.08
981.629	9.08
982.056	2.88
982.483	-3.32
982.91	7.03
983.337	-2.97
983.763	2.12
984.19	6.13
984.617	-2.12
985.043	3.13
985.47	7.63
985.897	2.78
986.323	4.38
986.75	1.23
987.176	4.03
987.603	1.23
988.029	3.43
988.456	5.83
988.882	1.13
989.308	-1.82
989.735	1.68
990.161	2.53
990.587	-0.52
991.014	0.18
991.44	0.83
991.866	-0.27
992.292	2.48
992.719	-1.57
993.145	5.88
993.571	3.62
993.997	5.63
994.423	5.93
994.849	-0.67
995.275	3.48
995.701	2.43
996.127	-2.12
996.553	-0.52
996.979	-0.72
997.405	6.08
997.83	0.18
998.256	3.63
998.682	3.58
999.108	5.28
999.534	-5.32
999.959	-2.67
1000.385	2.28
1000.811	0.18
1001.236	-7.07
1001.662	-5.57
1002.087	2.78
1002.513	4.13
1002.938	-2.82
1003.364	-0.37
1003.789	4.83
1004.215	-0.87
1004.64	-2.17
1005.066	2.28
1005.491	0.73
1005.916	2.48
1006.342	0.78
1006.767	2.98
1007.192	3.73
1007.617	3.93
1008.042	0.43
1008.468	0.53
1008.893	3.08
1009.318	6.28
1009.743	6.98
1010.168	20.33
1010.593	20.93
1011.018	6.73
1011.443	-0.12
1011.868	3.03
1012.293	2.68
1012.718	-0.12
1013.143	1.13
1013.567	4.03
1013.992	1.48
1014.417	1.33
1014.842	-1.97
1015.267	-1.67
1015.691	2.63
1016.116	-0.02
1016.541	3.08
1016.965	-1.87
1017.39	2.28
1017.814	-6.57
1018.239	-1.02
1018.663	-6.47
1019.088	-1.82
1019.512	2.43
1019.937	-0.77
1020.361	-3.87
1020.785	-1.92
1021.21	-9.77
1021.634	-1.12
1022.058	2.43
1022.483	-4.27
1022.907	-5.72
1023.331	-3.57
1023.755	-5.22
1024.179	-1.52
1024.604	-0.57
1025.028	0.28
1025.452	3.73
1025.876	-0.72
1026.3	1.68
1026.724	-4.38
1027.148	-0.67
1027.572	-1.27
1027.996	-0.92
1028.42	-2.82
1028.843	1.98
1029.267	-4.32
1029.691	1.83
1030.115	0.58
1030.539	0.13
1030.962	-0.82
1031.386	0.68
1031.81	0.03
1032.233	0.23
1032.657	-3.57
1033.08	-3.02
1033.504	-1.17
1033.927	0.88
1034.351	-3.87
1034.774	-5.17
1035.198	-4.37
1035.621	-4.57
1036.045	-2.62
1036.468	2.12
1036.891	0.33
1037.315	2.58
1037.738	-3.62
1038.161	1.58
1038.584	1.83
1039.008	-0.38
1039.431	-1.82
1039.854	-4.97
1040.277	-2.42
1040.7	-2.17
1041.123	-2.07
1041.546	-3.07
1041.969	4.83
1042.392	1.53
1042.815	-6.77
1043.238	-1.57
1043.661	0.03
1044.084	-2.92
1044.507	-1.62
1044.93	-3.92
1045.352	6.68
1045.775	5.08
1046.198	2.03
1046.621	0.18
1047.043	-3.57
1047.466	2.28
1047.889	-3.82
1048.311	5.83
1048.734	-3.27
1049.156	-2.22
1049.579	-3.38
1050.001	-1.62
1050.424	-1.77
1050.846	1.23
1051.269	-6.57
1051.691	1.33
1052.113	-1.32
1052.536	-1.22
1052.958	-6.92
1053.38	-2.92
1053.802	1.38
1054.225	0.13
1054.647	1.13
1055.069	-2.32
1055.491	-4.17
1055.913	-3.07
1056.335	-8.17
1056.757	-5.62
1057.179	-1.67
1057.601	-0.12
1058.023	2.78
1058.445	-7.17
1058.867	-0.42
1059.289	-1.27
1059.711	-4.22
1060.133	-0.22
1060.555	-4.42
1060.976	-0.97
1061.398	-1.97
1061.82	-0.82
1062.241	-1.27
1062.663	-1.92
1063.085	-5.12
1063.506	-7.87
1063.928	-2.52
1064.35	-2.02
1064.771	0.03
1065.193	-3.12
1065.614	1.83
1066.035	1.53
1066.457	0.83
1066.878	0.33
1067.3	-4.67
1067.721	-3.17
1068.142	1.23
1068.564	-2.97
1068.985	-2.02
1069.406	-7.17
1069.827	0.03
1070.248	-3.42
1070.67	-8.27
1071.091	-8.52
1071.512	-4.32
1071.933	0.43
1072.354	-7.17
1072.775	-1.72
1073.196	-3.92
1073.617	-5.97
1074.038	-3.72
1074.459	-9.67
1074.88	-3.12
1075.3	-0.97
1075.721	-1.82
1076.142	-4.77
1076.563	-7.27
1076.983	1.98
1077.404	-4.62
1077.825	-0.42
1078.246	-4.92
1078.666	-5.07
1079.087	-2.42
1079.507	-5.37
1079.928	-1.82
1080.348	-3.72
1080.769	-4.52
1081.189	-1.77
1081.61	-8.77
1082.03	2.03
1082.451	1.03
1082.871	-4.22
1083.291	-0.42
1083.711	-4.02
1084.132	-4.72
1084.552	-7.47
1084.972	-8.17
1085.392	-7.97
1085.813	-1.87
1086.233	-6.42
1086.653	1.98
1087.073	-1.67
1087.493	-1.52
1087.913	-3.27
1088.333	-1.42
1088.753	-0.37
1089.173	0.93
1089.593	0.53
1090.013	-3.67
1090.433	-5.62
1090.852	-0.02
1091.272	-8.67
1091.692	1.63
1092.112	-6.42
1092.531	-7.42
1092.951	-3.37
1093.371	-0.67
1093.79	-2.97
1094.21	-1.82
1094.63	-3.42
1095.049	-2.67
1095.469	-7.62
1095.888	-2.37
1096.308	-2.42
1096.727	-1.32
1097.146	-6.87
1097.566	-4.27
1097.985	-3.47
1098.405	-0.77
1098.824	-0.92
1099.243	-0.72
1099.662	-6.32
1100.082	-1.97
1100.501	-0.77
1100.92	2.83
1101.339	-0.17
1101.758	3.53
