Data from MSPlasma+Separation6_Subt14_10-12-39-483.txt Node
Date: Fri Jul 21 10:12:39 EDT 2017
User: Ender
Spectrometer: HR+D1039
Trigger mode: 0
Integration Time (sec): 6.430000E-3
Scans to average: 20
Electric dark correction enabled: true
Nonlinearity correction enabled: false
Boxcar width: 0
XAxis mode: Wavelengths
Number of Pixels in Spectrum: 2048
>>>>>Begin Spectral Data<<<<<
187.836	-2.6
188.309	-2.6
188.782	-2.6
189.255	-1.65
189.728	2
190.201	-1.05
190.674	3.2
191.147	0.6
191.619	1
192.092	-0.4
192.565	-4.3
193.038	2.2
193.511	5
193.984	0.85
194.456	-1.95
194.929	-1.1
195.402	-2.2
195.874	0.45
196.347	4.4
196.82	-0.3
197.292	-2.6
197.765	0.2
198.237	0.75
198.71	-0.3
199.182	2.15
199.655	0.3
200.127	4.75
200.6	-2.2
201.072	1.4
201.544	-0.15
202.017	2.9
202.489	0.05
202.961	-0.25
203.433	-1.1
203.906	3.2
204.378	-3.25
204.85	-2.2
205.322	-3.55
205.794	2.6
206.266	-1.05
206.739	3.3
207.211	-5.9
207.683	-2.2
208.155	-1.45
208.627	-0.9
209.099	3.3
209.57	1.2
210.042	6.25
210.514	2.25
210.986	0.1
211.458	-6.85
211.93	-2.7
212.402	-3.55
212.873	-3.5
213.345	-5.15
213.817	-0.15
214.288	-1.1
214.76	0.85
215.232	1.6
215.703	0.55
216.175	0.5
216.646	-2.2
217.118	0.25
217.589	-1.95
218.061	1.7
218.532	-3.4
219.004	1.75
219.475	2.05
219.946	0.7
220.418	8.35
220.889	7.65
221.36	1
221.832	5.3
222.303	-1.35
222.774	3.95
223.245	-4.2
223.717	2.1
224.188	2.55
224.659	1.85
225.13	-0.55
225.601	6.4
226.072	3.8
226.543	4.8
227.014	1.6
227.485	4
227.956	0.05
228.427	7.3
228.898	5.05
229.369	5.75
229.839	1.1
230.31	8.6
230.781	4.2
231.252	7
231.722	6.25
232.193	6.45
232.664	5.25
233.135	5.45
233.605	5.35
234.076	8.95
234.546	9.5
235.017	6.85
235.487	5.7
235.958	8.05
236.428	5.6
236.899	3.55
237.369	11.85
237.84	13.85
238.31	9.6
238.78	5.1
239.251	3.85
239.721	0.6
240.191	7.05
240.662	9.2
241.132	5.4
241.602	14.3
242.072	13.25
242.542	9.05
243.013	9.4
243.483	12.05
243.953	6.7
244.423	8.65
244.893	10.8
245.363	16.05
245.833	13.35
246.303	16.35
246.773	17
247.243	13.3
247.712	12.5
248.182	17.6
248.652	18.7
249.122	16.05
249.592	14.75
250.061	10.15
250.531	18.9
251.001	19.9
251.471	11.25
251.94	14.8
252.41	19.9
252.879	18.45
253.349	21.8
253.818	19.15
254.288	22.35
254.757	17.35
255.227	19.75
255.696	19.05
256.166	22.05
256.635	23
257.105	22.5
257.574	20.55
258.043	22.95
258.513	21.85
258.982	18.8
259.451	22.95
259.92	19.45
260.389	21.75
260.859	20.15
261.328	26.45
261.797	21.55
262.266	29.65
262.735	26.9
263.204	15
263.673	26.2
264.142	21.55
264.611	29.15
265.08	24.6
265.549	23.65
266.018	29.75
266.487	30.6
266.955	27.45
267.424	29.9
267.893	31.5
268.362	33.45
268.83	31.25
269.299	25.8
269.768	30.1
270.236	26.7
270.705	35.25
271.174	32.35
271.642	34.9
272.111	33.7
272.579	29
273.048	33.8
273.516	34.8
273.985	35.1
274.453	35.45
274.922	31.95
275.39	32.2
275.858	38.05
276.327	36.8
276.795	34.7
277.263	38.85
277.731	35.15
278.2	42.1
278.668	39.3
279.136	41.4
279.604	40.2
280.072	37.75
280.54	39.3
281.008	43.35
281.477	36.85
281.945	38.2
282.413	42.45
282.881	40.4
283.348	35.4
283.816	43.25
284.284	43.6
284.752	42.7
285.22	46.15
285.688	44.05
286.156	46.8
286.623	45.85
287.091	44.6
287.559	48
288.026	53.35
288.494	48.95
288.962	51.15
289.429	49.4
289.897	49
290.364	47.15
290.832	49.7
291.3	50.15
291.767	52.2
292.234	55.25
292.702	54.65
293.169	57.6
293.637	57.1
294.104	58.15
294.571	55.7
295.039	58.6
295.506	48.75
295.973	54.15
296.44	50.85
296.908	54.7
297.375	55.75
297.842	61.95
298.309	54.15
298.776	55.15
299.243	63.05
299.71	63.25
300.177	65.7
300.644	63.45
301.111	60.75
301.578	63.3
302.045	65.35
302.512	63.1
302.979	72.45
303.446	67.95
303.913	68.95
304.379	71.1
304.846	73.25
305.313	76.35
305.78	77.65
306.246	72.35
306.713	74.7
307.18	80.9
307.646	77.4
308.113	75.85
308.579	82
309.046	82.2
309.512	80.5
309.979	87.05
310.445	77.8
310.912	82.75
311.378	87.95
311.845	88.2
312.311	85.05
312.777	82.2
313.244	88.6
313.71	90.05
314.176	90.65
314.642	95.4
315.109	89.05
315.575	88.65
316.041	95.1
316.507	91.55
316.973	98.55
317.439	95.85
317.905	102.15
318.371	98.55
318.837	98.9
319.303	96.65
319.769	100.15
320.235	98.85
320.701	105.15
321.167	100.55
321.633	99.4
322.099	97.9
322.564	102
323.03	104.3
323.496	106.5
323.962	105.3
324.427	109.7
324.893	105.75
325.359	112.35
325.824	111.55
326.29	114.2
326.755	111.95
327.221	113.6
327.686	123.1
328.152	118.95
328.617	125.75
329.083	128.35
329.548	126.35
330.014	121.95
330.479	126.35
330.944	125
331.41	129.95
331.875	122.3
332.34	125.05
332.805	128.9
333.271	123
333.736	129.2
334.201	130.85
334.666	137.8
335.131	137.9
335.596	140.05
336.061	137.5
336.526	133.2
336.991	131.4
337.456	130.55
337.921	129.2
338.386	131.6
338.851	130.8
339.316	128.05
339.781	133.95
340.246	136.7
340.711	138.6
341.175	141.85
341.64	146.35
342.105	151.25
342.569	154.4
343.034	150.25
343.499	149.05
343.963	153.7
344.428	158.6
344.893	154.6
345.357	164.75
345.822	158
346.286	161.65
346.751	165.8
347.215	167.05
347.679	173.2
348.144	185.05
348.608	181.7
349.073	185.05
349.537	193.2
350.001	188.2
350.465	186.05
350.93	188.4
351.394	194.55
351.858	194.55
352.322	202.25
352.786	193.2
353.25	199
353.715	202.8
354.179	209.5
354.643	214.75
355.107	218.85
355.571	209.9
356.035	215.25
356.498	209.65
356.962	209.7
357.426	201.4
357.89	203.2
358.354	202.55
358.818	199.2
359.281	208.75
359.745	207.1
360.209	206.85
360.673	205.7
361.136	205.4
361.6	206.55
362.064	210.95
362.527	221.6
362.991	221.45
363.454	212.05
363.918	223.85
364.381	226
364.845	217.1
365.308	217.45
365.772	221.55
366.235	228.85
366.698	221.6
367.162	218.7
367.625	225.05
368.088	230.3
368.552	228.75
369.015	228.95
369.478	233.15
369.941	235.65
370.404	236.35
370.867	231.7
371.331	233.2
371.794	237.75
372.257	240.35
372.72	240.6
373.183	245.5
373.646	246.6
374.109	244
374.572	242.2
375.035	250.6
375.497	253.45
375.96	261.1
376.423	261.2
376.886	265.15
377.349	261.9
377.811	269.55
378.274	270.6
378.737	266.35
379.199	266.9
379.662	268.8
380.125	275.55
380.587	276.7
381.05	285.8
381.512	280.45
381.975	289.75
382.437	295.15
382.9	297.9
383.362	298.05
383.825	298.5
384.287	297.55
384.75	296.8
385.212	301.85
385.674	302.55
386.136	309.5
386.599	307.75
387.061	299.9
387.523	311.25
387.985	310.7
388.447	309.65
388.91	313.4
389.372	312.3
389.834	315.85
390.296	308.45
390.758	314.85
391.22	303.9
391.682	311.65
392.144	309.85
392.606	321.6
393.068	329.1
393.529	345.05
393.991	352.25
394.453	341.65
394.915	325.15
395.377	317.8
395.838	320.2
396.3	321.75
396.762	331.05
397.224	329.65
397.685	326.25
398.147	331.35
398.608	337.25
399.07	337.95
399.531	339.45
399.993	351.25
400.454	346.8
400.916	351.85
401.377	359.15
401.839	363.5
402.3	360.5
402.762	378
403.223	405.9
403.684	399.35
404.145	382.7
404.607	374.6
405.068	360
405.529	371.5
405.99	367.05
406.451	373.9
406.913	368.2
407.374	372.4
407.835	372.4
408.296	381.2
408.757	378.25
409.218	391
409.679	397.8
410.14	402.6
410.601	413.85
411.062	424.1
411.522	427.4
411.983	431.15
412.444	431.8
412.905	448
413.366	466.35
413.826	498.5
414.287	570.5
414.748	697.75
415.208	707.5
415.669	574.25
416.13	523.15
416.59	512.9
417.051	535.85
417.511	562.35
417.972	614.45
418.432	668.7
418.893	744.1
419.353	711.15
419.814	535.75
420.274	471.55
420.734	458.1
421.195	474.45
421.655	465.9
422.115	474.65
422.576	483.45
423.036	475.25
423.496	491.3
423.956	515.1
424.416	547.8
424.876	615.3
425.336	613.55
425.797	595.15
426.257	582.6
426.717	538
427.177	479.65
427.637	477.4
428.097	487.6
428.556	503.8
429.016	545.8
429.476	529.3
429.936	504.1
430.396	488.3
430.856	497.5
431.315	504.4
431.775	539.65
432.235	596.6
432.694	603.2
433.154	554.05
433.614	542.7
434.073	528.7
434.533	490.8
434.993	476.35
435.452	493.1
435.912	486.5
436.371	498.65
436.83	493.55
437.29	491.4
437.749	489.95
438.209	493.55
438.668	501.5
439.127	513.35
439.587	510.3
440.046	501.45
440.505	520.8
440.964	521.5
441.424	537.25
441.883	549.5
442.342	528.8
442.801	505.3
443.26	515.05
443.719	509.1
444.178	512.75
444.637	519.2
445.096	522.45
445.555	531.85
446.014	529.4
446.473	526.75
446.932	528
447.391	538
447.849	550.15
448.308	533.55
448.767	540.05
449.226	548.9
449.685	566
450.143	589.1
450.602	583.75
451.061	553.2
451.519	554.7
451.978	542.5
452.436	548.65
452.895	549.5
453.353	544
453.812	540.9
454.27	536.85
454.729	545.75
455.187	545.15
455.646	550
456.104	543.4
456.562	556.05
457.021	565.7
457.479	542.1
457.937	557.6
458.395	575.1
458.854	566.8
459.312	559.05
459.77	566.1
460.228	574.4
460.686	578.05
461.144	585.1
461.602	576.6
462.06	583.1
462.518	589.75
462.976	581.45
463.434	594.15
463.892	596.6
464.35	601.65
464.808	616.65
465.266	631.8
465.724	630.75
466.181	638.9
466.639	632.6
467.097	653.65
467.555	676.8
468.012	670.1
468.47	676.65
468.928	697.55
469.385	718.25
469.843	714
470.3	713.65
470.758	731.15
471.215	737.05
471.673	746.1
472.13	773.5
472.588	777.7
473.045	780.1
473.503	791.3
473.96	817.9
474.417	824.75
474.875	847.95
475.332	868.15
475.789	875.1
476.246	888.95
476.704	913.3
477.161	915.65
477.618	920.15
478.075	930.95
478.532	966.9
478.989	992.75
479.446	1039.3
479.903	1020.65
480.36	1049.5
480.817	1051.65
481.274	1055
481.731	1093.65
482.188	1107.4
482.645	1131.55
483.102	1139.05
483.558	1181.35
484.015	1194.35
484.472	1198.5
484.929	1201.5
485.385	1200.5
485.842	1210.5
486.299	1217.1
486.755	1209.2
487.212	1196.55
487.668	1153.2
488.125	1148.95
488.582	1136.45
489.038	1146.9
489.494	1166.4
489.951	1162.8
490.407	1162.4
490.864	1166.55
491.32	1159.2
491.776	1168.85
492.233	1189.05
492.689	1181.05
493.145	1170.55
493.602	1161.6
494.058	1175.75
494.514	1190.25
494.97	1194.2
495.426	1221.15
495.882	1221.9
496.338	1218.7
496.794	1238.2
497.251	1236.75
497.707	1250.6
498.163	1258.35
498.618	1260.05
499.074	1258.15
499.53	1273.55
499.986	1280.75
500.442	1274.45
500.898	1259.3
501.354	1276.8
501.809	1279.85
502.265	1276.85
502.721	1285.2
503.177	1287.45
503.632	1305.3
504.088	1305.9
504.543	1315.05
504.999	1331.3
505.455	1324.35
505.91	1323.65
506.366	1322.05
506.821	1318.25
507.277	1314.9
507.732	1320.8
508.187	1313.45
508.643	1332.9
509.098	1336.1
509.553	1358.1
510.009	1375
510.464	1391.25
510.919	1402.75
511.375	1425.55
511.83	1428.8
512.285	1461.05
512.74	1499.7
513.195	1507.7
513.65	1534.85
514.105	1558.95
514.56	1574.65
515.015	1593.2
515.47	1598.5
515.925	1576.95
516.38	1579.25
516.835	1588.55
517.29	1580.8
517.745	1575.5
518.2	1553.25
518.655	1517.9
519.109	1499.8
519.564	1468.1
520.019	1462.7
520.474	1447.25
520.928	1437.2
521.383	1433.65
521.838	1425.1
522.292	1414.35
522.747	1399.45
523.201	1402.2
523.656	1387.3
524.11	1382.45
524.565	1373.1
525.019	1375.65
525.474	1372.7
525.928	1365.85
526.382	1373.65
526.837	1362.9
527.291	1360.75
527.745	1358.35
528.2	1358.2
528.654	1335.95
529.108	1347.05
529.562	1349.9
530.016	1340
530.47	1339.95
530.925	1339.8
531.379	1334.5
531.833	1359.5
532.287	1355.2
532.741	1339.05
533.195	1343.2
533.649	1347.7
534.103	1340.75
534.556	1336.35
535.01	1349.95
535.464	1339.5
535.918	1343
536.372	1355.1
536.826	1344
537.279	1333.05
537.733	1334.4
538.187	1345.45
538.64	1336.7
539.094	1351.2
539.548	1369.55
540.001	1363.75
540.455	1380.9
540.908	1393.55
541.362	1402.4
541.815	1412.45
542.269	1439
542.722	1433.6
543.175	1454.3
543.629	1464.55
544.082	1470.35
544.536	1483.5
544.989	1492.15
545.442	1505
545.895	1505.3
546.349	1505.25
546.802	1513
547.255	1506.45
547.708	1519.8
548.161	1535.7
548.614	1539.5
549.067	1553.55
549.52	1531.85
549.973	1512.45
550.426	1504.75
550.879	1487.4
551.332	1498.7
551.785	1503.5
552.238	1521.6
552.691	1510.8
553.144	1541.05
553.596	1576.05
554.049	1593.45
554.502	1625.3
554.955	1663.35
555.407	1675.45
555.86	1659.25
556.313	1644.9
556.765	1619.7
557.218	1599.65
557.67	1599.85
558.123	1560
558.576	1569.15
559.028	1569.15
559.48	1590.75
559.933	1581.05
560.385	1530.3
560.838	1471.5
561.29	1427.8
561.742	1419.35
562.195	1380.15
562.647	1368.8
563.099	1363.9
563.551	1366.75
564.004	1381.75
564.456	1366.1
564.908	1330.6
565.36	1296.4
565.812	1266.45
566.264	1269.65
566.716	1247.55
567.168	1223.3
567.62	1223.45
568.072	1215.5
568.524	1208.1
568.976	1198.7
569.428	1186.3
569.88	1186.35
570.332	1202.6
570.784	1196.3
571.235	1194.95
571.687	1200.95
572.139	1197.7
572.59	1219.8
573.042	1216.7
573.494	1231.25
573.945	1197.3
574.397	1179.9
574.849	1172.05
575.3	1176.65
575.752	1156.1
576.203	1153.65
576.655	1145.05
577.106	1139.95
577.557	1122.4
578.009	1121.85
578.46	1130.8
578.912	1110.55
579.363	1127.5
579.814	1117.55
580.265	1123.2
580.717	1114.6
581.168	1117.6
581.619	1127.35
582.07	1135.3
582.521	1129.6
582.972	1127.5
583.423	1134.65
583.875	1133.35
584.326	1144.85
584.777	1156.95
585.227	1178.6
585.678	1192.4
586.129	1208.75
586.58	1211.45
587.031	1246.7
587.482	1284.8
587.933	1299.4
588.384	1300.9
588.834	1277
589.285	1272.75
589.736	1274.95
590.186	1287.15
590.637	1273.9
591.088	1225.6
591.538	1204.2
591.989	1187.35
592.439	1176.2
592.89	1169.15
593.34	1163.1
593.791	1155.25
594.241	1148.7
594.692	1138.05
595.142	1130.15
595.593	1124.65
596.043	1136
596.493	1157.6
596.943	1146.35
597.394	1182.8
597.844	1200.05
598.294	1221.7
598.744	1274.1
599.195	1337.4
599.645	1420.75
600.095	1501.8
600.545	1581.7
600.995	1648.1
601.445	1721.95
601.895	1823.75
602.345	1877.05
602.795	1859.05
603.245	1766.95
603.695	1658.05
604.145	1547.4
604.594	1470.8
605.044	1375.9
605.494	1281.35
605.944	1213.2
606.393	1189.6
606.843	1161.4
607.293	1161.55
607.743	1165.4
608.192	1172.8
608.642	1170.95
609.091	1171.25
609.541	1168.55
609.99	1165.9
610.44	1142.1
610.889	1127.05
611.339	1107.6
611.788	1093.65
612.238	1099.75
612.687	1106.3
613.136	1115.95
613.586	1121.3
614.035	1119.25
614.484	1125.55
614.933	1121.05
615.383	1107.4
615.832	1073.9
616.281	1070.4
616.73	1041.6
617.179	1018.15
617.628	994.75
618.077	978.9
618.526	959.15
618.975	964.4
619.424	939
619.873	953.45
620.322	930.7
620.771	938.4
621.22	914.7
621.669	901.15
622.118	886.8
622.567	866.9
623.015	855.45
623.464	863.3
623.913	838.15
624.361	843.95
624.81	840.85
625.259	841.75
625.707	842
626.156	847.95
626.604	864.05
627.053	864.55
627.501	863.9
627.95	876.25
628.398	884.3
628.847	869.35
629.295	871.9
629.744	866.6
630.192	844.95
630.64	830.25
631.089	811.2
631.537	789.1
631.985	771.25
632.433	776.9
632.881	773.6
633.33	776.6
633.778	772.25
634.226	778.6
634.674	780.35
635.122	786.75
635.57	806.4
636.018	813.55
636.466	810.45
636.914	801.5
637.362	817.5
637.81	839.1
638.258	870.9
638.705	872.15
639.153	898.25
639.601	906.3
640.049	926.5
640.497	951
640.944	976.7
641.392	924.25
641.84	847.95
642.287	796
642.735	768.9
643.182	750.05
643.63	737.75
644.078	739.35
644.525	735.1
644.973	752.6
645.42	755.9
645.867	751.5
646.315	748
646.762	754.85
647.21	753.95
647.657	763.4
648.104	753.35
648.551	714.7
648.999	720.45
649.446	714.1
649.893	712
650.34	713.05
650.787	741.2
651.234	764.65
651.682	830.9
652.129	907.8
652.576	1029.65
653.023	1200.8
653.47	1295.9
653.917	1347.2
654.363	1377.1
654.81	1444.05
655.257	1482.95
655.704	1169.35
656.151	922.2
656.598	800.15
657.044	741.85
657.491	721.1
657.938	705.95
658.385	693.05
658.831	686.8
659.278	678.6
659.724	671.6
660.171	666.85
660.618	654
661.064	634.95
661.511	642.05
661.957	649.05
662.404	654.65
662.85	658.55
663.296	664.95
663.743	667.5
664.189	667.05
664.635	671.55
665.082	665.85
665.528	665
665.974	637.45
666.42	634.8
666.867	637.65
667.313	611.75
667.759	607.05
668.205	605.2
668.651	607.4
669.097	602.2
669.543	605.75
669.989	621.8
670.435	615.85
670.881	630.5
671.327	665.3
671.773	714.45
672.219	773.85
672.665	835.9
673.11	878.4
673.556	888.05
674.002	932
674.448	943.45
674.893	789.8
675.339	678.95
675.785	618.9
676.23	587.05
676.676	564.85
677.122	547.5
677.567	530.8
678.013	515.8
678.458	512.6
678.904	510.4
679.349	498.25
679.794	506.65
680.24	505.5
680.685	493.5
681.131	509.35
681.576	502.35
682.021	512.6
682.466	515.65
682.912	509.7
683.357	546.2
683.802	601.15
684.247	657.25
684.692	709.5
685.137	747.05
685.583	763.2
686.028	815.5
686.473	767.5
686.918	645.5
687.363	588.8
687.807	557.45
688.252	530.8
688.697	511
689.142	496.25
689.587	485.9
690.032	506.7
690.477	519.1
690.921	556.15
691.366	593.35
691.811	616.5
692.255	668.6
692.7	810.9
693.145	1179.15
693.589	1814.1
694.034	2200.9
694.478	2385.55
694.923	2230.1
695.367	3215.15
695.812	1924.8
696.256	769.35
696.701	547.4
697.145	510.9
697.59	482
698.034	476.45
698.478	477.2
698.922	476.65
699.367	496.05
699.811	515.35
700.255	570.15
700.699	632.25
701.143	681.9
701.588	730.8
702.032	771.35
702.476	781
702.92	821.7
703.364	1069.9
703.808	1672.65
704.252	2112.75
704.696	2284.4
705.14	2194.3
705.584	3065.2
706.027	1663.6
706.471	808.4
706.915	586.7
707.359	515.8
707.803	480.7
708.246	456.8
708.69	461.45
709.134	451.95
709.577	456.05
710.021	460.25
710.465	457.25
710.908	452.65
711.352	474.4
711.795	522
712.239	566.7
712.682	580.7
713.126	571.3
713.569	655.65
714.012	527.6
714.456	451.65
714.899	422.4
715.342	408.2
715.786	387.4
716.229	380
716.672	363.35
717.115	364.8
717.558	374.6
718.002	383.65
718.445	404
718.888	427.15
719.331	437.5
719.774	450.15
720.217	438.75
720.66	411.4
721.103	384.9
721.546	360.85
721.989	353.25
722.432	349.35
722.874	345.1
723.317	347.9
723.76	386.55
724.203	476.05
724.645	648.25
725.088	778.85
725.531	773.8
725.974	870.35
726.416	763.9
726.859	450
727.301	367.35
727.744	349.4
728.187	348.65
728.629	355.5
729.071	380.3
729.514	396.2
729.956	414.2
730.399	424.85
730.841	426.1
731.283	405.2
731.726	390.15
732.168	399.8
732.61	421
733.053	459.5
733.495	514.3
733.937	577.95
734.379	682.4
734.821	866.95
735.263	1377.95
735.705	2480.6
736.148	3718
736.59	3818.1
737.032	4228.75
737.474	3472.85
737.916	1291.2
738.357	660.25
738.799	499.85
739.241	461.7
739.683	458.6
740.125	468.25
740.567	471.35
741.008	505.75
741.45	534.9
741.892	556.45
742.334	560.9
742.775	560.45
743.217	534.65
743.658	445.2
744.1	452.9
744.542	516.15
744.983	540.7
745.425	571.85
745.866	558.25
746.307	467.65
746.749	502.9
747.19	730.45
747.632	1448.7
748.073	2722.7
748.514	3839.3
748.956	5228
749.397	6185.25
749.838	4223.6
750.279	4125.9
750.72	2082.35
751.162	856.5
751.603	483.7
752.044	382.6
752.485	342.8
752.926	318.25
753.367	299.5
753.808	289.25
754.249	286.85
754.69	284.35
755.131	277.3
755.572	276.1
756.013	280.1
756.453	276.35
756.894	277.85
757.335	286.2
757.776	292.15
758.216	304.8
758.657	319.25
759.098	349
759.538	428.35
759.979	619.1
760.42	1250.15
760.86	3217.55
761.301	6907.9
761.741	8388.5
762.182	9976.1
762.622	6328
763.063	2201.25
763.503	871.75
763.943	501.1
764.384	395.75
764.824	339.15
765.264	314.5
765.705	295.85
766.145	277.6
766.585	269.2
767.025	260.2
767.465	253.45
767.906	263.8
768.346	286.5
768.786	324.6
769.226	487.95
769.666	1000.25
770.106	2268.15
770.546	3337.7
770.986	3906.75
771.426	2953.95
771.866	1191.2
772.306	522.5
772.745	322.15
773.185	262.15
773.625	254.55
774.065	263.2
774.505	366.55
774.944	643.7
775.384	935.1
775.824	1084.35
776.263	906.9
776.703	473.9
777.142	273.15
777.582	212.25
778.021	195.25
778.461	184.4
778.9	186.25
779.34	180.45
779.779	177.45
780.219	168.55
780.658	162.25
781.097	166.6
781.537	164.55
781.976	158.4
782.415	156.45
782.855	164.45
783.294	158.95
783.733	150.5
784.172	159.4
784.611	157.75
785.05	165.95
785.489	171.4
785.928	176.4
786.367	178.6
786.806	186.7
787.245	205.8
787.684	217.25
788.123	213.45
788.562	204.05
789.001	196.7
789.44	189.6
789.879	189
790.317	189.75
790.756	200.35
791.195	232.75
791.634	316.4
792.072	569.5
792.511	1415.5
792.95	2708.05
793.388	3404.7
793.827	2219.9
794.265	978.2
794.704	458.9
795.142	271.65
795.581	222.2
796.019	206.75
796.458	205.05
796.896	212.65
797.334	241.15
797.773	327.15
798.211	634.5
798.649	1345.8
799.087	2303.85
799.526	3272.4
799.964	3461.2
800.402	2399.95
800.84	1047.45
801.278	496.3
801.716	298.4
802.154	241.2
802.592	227.3
803.03	229.45
803.468	233.1
803.906	231.85
804.344	230.65
804.782	217
805.22	222.2
805.658	233
806.096	243.35
806.533	270.05
806.971	351.4
807.409	518.85
807.847	1033.55
808.284	2650.6
808.722	4843.65
809.16	6806.3
809.597	9120.95
810.035	11695.35
810.472	7641.75
810.91	3138.2
811.347	1391.2
811.785	646.5
812.222	404.6
812.66	311.3
813.097	260.15
813.535	224.45
813.972	207.1
814.409	187.65
814.846	175.7
815.284	168.05
815.721	173.5
816.158	190.65
816.595	245.5
817.032	317.1
817.47	293.65
817.907	208.3
818.344	183.85
818.781	178
819.218	209.2
819.655	328.05
820.092	434.45
820.529	390.35
820.966	304.6
821.403	209.7
821.839	178.05
822.276	196.15
822.713	244.3
823.15	231.8
823.587	241.05
824.023	430.7
824.46	1115.6
824.897	2021.1
825.333	1597.4
825.77	714.5
826.206	362.75
826.643	210.35
827.08	152.75
827.516	132.9
827.953	127.6
828.389	121
828.825	111.35
829.262	105.55
829.698	104.25
830.135	96.15
830.571	97.3
831.007	99.1
831.443	98.7
831.88	100.7
832.316	103.8
832.752	101.85
833.188	103.25
833.624	104.05
834.06	108.55
834.497	107.95
834.933	110.95
835.369	123.4
835.805	131.1
836.241	135.2
836.677	148.4
837.112	167.6
837.548	212.15
837.984	317.95
838.42	682.6
838.856	1947.75
839.292	3992.55
839.727	2996.55
840.163	1933.3
840.599	2920.3
841.034	4686.45
841.47	2363.1
841.906	1100.35
842.341	574.15
842.777	409.8
843.212	411.5
843.648	255.6
844.083	177.05
844.519	136.85
844.954	112
845.39	101.2
845.825	99.5
846.261	98.9
846.696	85.85
847.131	85.1
847.566	89.35
848.002	92.4
848.437	97.65
848.872	99.85
849.307	130.45
849.742	239.5
850.177	641.3
850.613	1411.1
851.048	1037.45
851.483	457.95
851.918	242
852.353	134.85
852.788	92.4
853.223	85.6
853.657	74.8
854.092	73.6
854.527	76.8
854.962	75.05
855.397	87.35
855.832	73.3
856.266	64.4
856.701	66
857.136	70.1
857.57	77.6
858.005	97.9
858.44	81.65
858.874	82.35
859.309	84.45
859.743	84.75
860.178	79.65
860.612	82.55
861.047	116.05
861.481	162.6
861.915	113.3
862.35	80.5
862.784	64.75
863.218	60.25
863.653	68.75
864.087	80.85
864.521	105.95
864.955	186
865.39	332.15
865.824	241.3
866.258	287.1
866.692	446.2
867.126	322.3
867.56	169
867.994	106.65
868.428	89.25
868.862	115.35
869.296	107.8
869.73	131.95
870.164	109.25
870.598	101.4
871.031	71.05
871.465	59.5
871.899	50.45
872.333	44.5
872.766	46.25
873.2	45.9
873.634	47.85
874.067	49.7
874.501	50.25
874.935	52.2
875.368	48.7
875.802	43.15
876.235	43.6
876.669	43.3
877.102	34.35
877.535	38.55
877.969	35.75
878.402	39.75
878.836	35.25
879.269	39.3
879.702	33.15
880.135	32.85
880.569	36.25
881.002	32.1
881.435	35.85
881.868	37.1
882.301	36.25
882.734	35.65
883.167	37.95
883.601	36.15
884.034	32.95
884.467	28.65
884.899	31.6
885.332	27.3
885.765	26.6
886.198	28.8
886.631	32.9
887.064	29.75
887.497	32.7
887.929	27.85
888.362	30.7
888.795	28.55
889.228	33.9
889.66	31.6
890.093	29.7
890.526	27.65
890.958	30.4
891.391	29.9
891.823	25.85
892.256	27.5
892.688	30.9
893.121	23.8
893.553	31
893.985	27.45
894.418	25.15
894.85	27.7
895.282	28.15
895.715	23.8
896.147	21.05
896.579	26.25
897.011	33.1
897.444	28.2
897.876	20.3
898.308	22.3
898.74	28.1
899.172	27.6
899.604	27.8
900.036	27.7
900.468	21.9
900.9	31.4
901.332	35.35
901.764	35.65
902.196	35.65
902.628	31.5
903.06	48.65
903.491	54.4
903.923	48.7
904.355	43.75
904.787	45.25
905.218	33.95
905.65	35.75
906.082	36.85
906.513	31
906.945	32.15
907.376	34.55
907.808	33.9
908.239	36.1
908.671	39.2
909.102	46.4
909.534	64.95
909.965	123.35
910.397	319.55
910.828	955.25
911.259	585.35
911.691	305.9
912.122	174.35
912.553	86.05
912.984	45.35
913.415	46.25
913.847	35.9
914.278	32
914.709	30
915.14	23.3
915.571	29.85
916.002	28.95
916.433	27.6
916.864	26.45
917.295	28.65
917.726	32.15
918.157	43.65
918.587	40.05
919.018	40.7
919.449	37.8
919.88	41.1
920.311	68.2
920.741	198.35
921.172	359.1
921.603	172.45
922.033	110.95
922.464	66.85
922.895	42.75
923.325	29.55
923.756	22.35
924.186	34
924.617	43.8
925.047	70
925.478	58.95
925.908	43.6
926.338	31.05
926.769	27.35
927.199	28.3
927.629	22.6
928.06	26.75
928.49	25.9
928.92	22.05
929.35	23.3
929.78	12.15
930.21	19.4
930.641	11.2
931.071	13.95
931.501	10.1
931.931	13.4
932.361	13.25
932.791	21.3
933.221	18.3
933.651	26.3
934.08	49.15
934.51	27
934.94	20.05
935.37	16.5
935.8	15.35
936.229	7.35
936.659	14.4
937.089	24.2
937.519	38
937.948	52.55
938.378	29.5
938.807	13.9
939.237	7.2
939.666	10.25
940.096	7.8
940.525	2.55
940.955	7
941.384	5.2
941.814	7.25
942.243	5
942.672	7.05
943.102	5.15
943.531	4.65
943.96	4.3
944.39	3.1
944.819	11.35
945.248	2.35
945.677	6.85
946.106	6.3
946.535	6.7
946.964	7.95
947.393	8.7
947.822	3.55
948.251	5.05
948.68	9.1
949.109	6.7
949.538	5.1
949.967	7.5
950.396	3.05
950.825	8.65
951.254	7.8
951.682	1.4
952.111	-0.55
952.54	5.45
952.969	1.5
953.397	0.15
953.826	5.75
954.254	5.95
954.683	3.7
955.112	9.95
955.54	3.8
955.969	6.35
956.397	8.45
956.826	3.3
957.254	4
957.682	2.7
958.111	6
958.539	4.05
958.967	6.4
959.396	8.25
959.824	3.1
960.252	6.7
960.68	6.25
961.109	10.4
961.537	8.15
961.965	3.15
962.393	3.45
962.821	1.45
963.249	3.05
963.677	7.4
964.105	59.7
964.533	102.1
964.961	48.9
965.389	26.8
965.817	16.85
966.245	4.4
966.672	2.85
967.1	7
967.528	-2.85
967.956	6.15
968.383	1.5
968.811	1.8
969.239	4.7
969.666	5.25
970.094	2.7
970.522	1.6
970.949	4.7
971.377	-4.7
971.804	-0.65
972.232	-1.85
972.659	6.95
973.087	8.35
973.514	0.25
973.941	-0.1
974.369	-0.7
974.796	2.55
975.223	1.2
975.651	5.5
976.078	2.75
976.505	7.85
976.932	20.6
977.359	32.5
977.786	23.15
978.214	12.2
978.641	6.95
979.068	7.15
979.495	2.25
979.922	2.7
980.349	9.25
980.776	1.95
981.202	4
981.629	5.55
982.056	3.45
982.483	-0.65
982.91	7.4
983.337	0.45
983.763	4.25
984.19	5.35
984.617	1.75
985.043	3.4
985.47	4.05
985.897	6.8
986.323	8.9
986.75	7.95
987.176	3
987.603	0.95
988.029	6.15
988.456	5.45
988.882	-0.9
989.308	-1.5
989.735	0.95
990.161	6
990.587	1.15
991.014	-1.25
991.44	0.35
991.866	1.9
992.292	-1
992.719	7.3
993.145	5
993.571	2.6
993.997	2.95
994.423	4.4
994.849	-2.1
995.275	2.55
995.701	2.55
996.127	-5.95
996.553	2.8
996.979	-0.15
997.405	1.55
997.83	3.65
998.256	6
998.682	0.9
999.108	-1.25
999.534	-0.65
999.959	-0.2
1000.385	3.15
1000.811	-2.2
1001.236	-1.1
1001.662	2.4
1002.087	7.9
1002.513	4.5
1002.938	-0
1003.364	2.15
1003.789	2.05
1004.215	0.05
1004.64	4.75
1005.066	7.25
1005.491	6.05
1005.916	0.95
1006.342	3.9
1006.767	4.9
1007.192	3.45
1007.617	5.25
1008.042	4.55
1008.468	2.5
1008.893	6.85
1009.318	7.4
1009.743	8.3
1010.168	21.9
1010.593	17.15
1011.018	9.35
1011.443	4.75
1011.868	6.1
1012.293	3.7
1012.718	-1.6
1013.143	2.85
1013.567	7.35
1013.992	3.8
1014.417	1
1014.842	-1.95
1015.267	1.45
1015.691	4.3
1016.116	1.85
1016.541	2.3
1016.965	4.5
1017.39	2
1017.814	-2.95
1018.239	-3.85
1018.663	-4.4
1019.088	-4.05
1019.512	3.05
1019.937	-5.65
1020.361	1.65
1020.785	-2.8
1021.21	-3.85
1021.634	1.95
1022.058	8.85
1022.483	-3.3
1022.907	-4.7
1023.331	-5.45
1023.755	2.8
1024.179	-2.45
1024.604	-0.45
1025.028	-0.9
1025.452	3
1025.876	7.15
1026.3	1.05
1026.724	-1.2
1027.148	-0.75
1027.572	-2.2
1027.996	2.3
1028.42	-1.05
1028.843	-1.15
1029.267	0.15
1029.691	2.9
1030.115	1.2
1030.539	-0.3
1030.962	-3.8
1031.386	-2.55
1031.81	-1.15
1032.233	-3.55
1032.657	-5.15
1033.08	5.95
1033.504	-4.15
1033.927	-2.55
1034.351	-1.6
1034.774	-1.3
1035.198	-0.05
1035.621	-1.9
1036.045	1.4
1036.468	6.95
1036.891	0.15
1037.315	0.05
1037.738	-3.05
1038.161	0.7
1038.584	2.85
1039.008	-2.35
1039.431	-2.45
1039.854	-5.25
1040.277	1.25
1040.7	-4.05
1041.123	1.15
1041.546	1.55
1041.969	3.7
1042.392	2.2
1042.815	-5.2
1043.238	0.95
1043.661	1.25
1044.084	-4.15
1044.507	0.45
1044.93	-1.95
1045.352	0.25
1045.775	0.95
1046.198	3.3
1046.621	6.25
1047.043	-0.7
1047.466	2
1047.889	1
1048.311	-1.4
1048.734	0.7
1049.156	1.75
1049.579	0.4
1050.001	-1.7
1050.424	-0.25
1050.846	-1.95
1051.269	-1.1
1051.691	-4.6
1052.113	-0.65
1052.536	0.25
1052.958	-6.85
1053.38	1.55
1053.802	0.4
1054.225	3
1054.647	2.75
1055.069	-0.05
1055.491	1.65
1055.913	-0.9
1056.335	-5.05
1056.757	-2.25
1057.179	-0.75
1057.601	-5.4
1058.023	0.05
1058.445	-4.7
1058.867	5.35
1059.289	-1.75
1059.711	-5.65
1060.133	-1.8
1060.555	-0.2
1060.976	2.85
1061.398	-1.75
1061.82	1.75
1062.241	-0.1
1062.663	-0.25
1063.085	-3.75
1063.506	-3.7
1063.928	-1.5
1064.35	-1.85
1064.771	-3.1
1065.193	-3.4
1065.614	-0
1066.035	3.95
1066.457	1.5
1066.878	-0.25
1067.3	0.25
1067.721	-0.8
1068.142	4.1
1068.564	1.3
1068.985	0.5
1069.406	-8.35
1069.827	-1.8
1070.248	-2.95
1070.67	-5.15
1071.091	-8.65
1071.512	-2.05
1071.933	-1.7
1072.354	-7.15
1072.775	-1.65
1073.196	2.4
1073.617	-2.8
1074.038	-4.5
1074.459	-5.35
1074.88	1.35
1075.3	2.8
1075.721	-2.65
1076.142	-3.5
1076.563	-8.65
1076.983	0.75
1077.404	-4.7
1077.825	0.55
1078.246	-8.4
1078.666	-4.55
1079.087	-2.3
1079.507	-2.3
1079.928	0.1
1080.348	-3.4
1080.769	-1
1081.189	-1.65
1081.61	-5.8
1082.03	-0.7
1082.451	0.05
1082.871	-1.3
1083.291	-4.4
1083.711	-5.3
1084.132	-7.1
1084.552	-4.1
1084.972	-9.4
1085.392	-4.3
1085.813	1.2
1086.233	-0
1086.653	-0.05
1087.073	-2.3
1087.493	-5.25
1087.913	-5
1088.333	-1.5
1088.753	-2.25
1089.173	-0.7
1089.593	1.55
1090.013	1.15
1090.433	-4.9
1090.852	-1.15
1091.272	-5.45
1091.692	0.3
1092.112	-5.35
1092.531	-2.95
1092.951	-3.25
1093.371	-3.4
1093.79	-4.15
1094.21	-2.45
1094.63	-3.5
1095.049	-1.65
1095.469	-8.3
1095.888	-0.3
1096.308	-1.1
1096.727	-5.8
1097.146	-4.8
1097.566	-3.3
1097.985	-0.45
1098.405	2.25
1098.824	-1.85
1099.243	-1.55
1099.662	-6.5
1100.082	-5
1100.501	-1.85
1100.92	3.55
1101.339	0.95
1101.758	7.55
