Data from MSPlasma+Separation6_Subt14_10-12-27-700.txt Node
Date: Fri Jul 21 10:12:27 EDT 2017
User: Ender
Spectrometer: HR+D1039
Trigger mode: 0
Integration Time (sec): 6.430000E-3
Scans to average: 20
Electric dark correction enabled: true
Nonlinearity correction enabled: false
Boxcar width: 0
XAxis mode: Wavelengths
Number of Pixels in Spectrum: 2048
>>>>>Begin Spectral Data<<<<<
187.836	-4.6
188.309	-4.6
188.782	-4.6
189.255	2.65
189.728	2.2
190.201	0.5
190.674	-1.2
191.147	-1.85
191.619	2
192.092	2.8
192.565	-0.35
193.038	3.15
193.511	2.25
193.984	0.4
194.456	-3.65
194.929	-0.9
195.402	-3.25
195.874	-0.15
196.347	4.3
196.82	3.3
197.292	-1.15
197.765	-1.75
198.237	1
198.71	-4.9
199.182	3.55
199.655	1.65
200.127	3.45
200.6	1.6
201.072	4.5
201.544	-1.25
202.017	2.7
202.489	1.8
202.961	-2.2
203.433	-1.3
203.906	-1.8
204.378	0.55
204.85	-1.85
205.322	-1.2
205.794	1.7
206.266	-0.3
206.739	1.7
207.211	-1.4
207.683	-0.05
208.155	1.95
208.627	-0.85
209.099	3.45
209.57	6.35
210.042	-0.85
210.514	2.3
210.986	1.35
211.458	-1.35
211.93	0
212.402	2.2
212.873	-4.5
213.345	-3.25
213.817	1.4
214.288	-2.45
214.76	4.25
215.232	1.05
215.703	-2.35
216.175	3.95
216.646	-1.85
217.118	4
217.589	-4.3
218.061	1.25
218.532	-5.55
219.004	8.65
219.475	-3.65
219.946	1.75
220.418	6.3
220.889	2.6
221.36	4.3
221.832	3.5
222.303	4.8
222.774	4.35
223.245	1.35
223.717	2
224.188	4.2
224.659	2.75
225.13	-1.25
225.601	0.7
226.072	3.2
226.543	5.9
227.014	4.45
227.485	6.05
227.956	5.2
228.427	5.65
228.898	5.9
229.369	4.85
229.839	5.1
230.31	1.9
230.781	6.8
231.252	9.7
231.722	6.7
232.193	4.6
232.664	6.35
233.135	3.45
233.605	5.05
234.076	9.05
234.546	6.3
235.017	13.6
235.487	9
235.958	6.05
236.428	14.1
236.899	11.5
237.369	16.95
237.84	12.45
238.31	15.7
238.78	4.6
239.251	7
239.721	10.8
240.191	9.5
240.662	12.1
241.132	12.85
241.602	15.3
242.072	11.45
242.542	7.7
243.013	9.5
243.483	16.1
243.953	9.4
244.423	9.8
244.893	10.95
245.363	16.2
245.833	16.45
246.303	9.45
246.773	16.3
247.243	9
247.712	18.65
248.182	19.5
248.652	16.75
249.122	16.65
249.592	17.15
250.061	15.7
250.531	18.85
251.001	20.4
251.471	14.25
251.94	17.7
252.41	18.5
252.879	19.4
253.349	23.4
253.818	16.6
254.288	24.25
254.757	20.1
255.227	22.65
255.696	20.05
256.166	26.8
256.635	24.4
257.105	23.8
257.574	22.7
258.043	24
258.513	27.95
258.982	18.4
259.451	31.5
259.92	20.65
260.389	25.4
260.859	28.35
261.328	29.5
261.797	20.75
262.266	29.15
262.735	32.8
263.204	21.8
263.673	27.95
264.142	28.4
264.611	29.8
265.08	31.25
265.549	28.05
266.018	30.35
266.487	32.7
266.955	33.2
267.424	36.05
267.893	37
268.362	36.05
268.83	31.3
269.299	32.3
269.768	32.3
270.236	36.35
270.705	41.5
271.174	34.05
271.642	32.9
272.111	39.4
272.579	35.7
273.048	30.65
273.516	39.1
273.985	36.65
274.453	37.45
274.922	37.65
275.39	35.75
275.858	35.55
276.327	40.7
276.795	36.8
277.263	40.3
277.731	40.95
278.2	45
278.668	40.45
279.136	45.45
279.604	44.05
280.072	43.05
280.54	45.15
281.008	48.8
281.477	46.25
281.945	38.65
282.413	46.75
282.881	49.6
283.348	42.25
283.816	50.3
284.284	48.75
284.752	52.5
285.22	48.65
285.688	47.25
286.156	52.95
286.623	51.35
287.091	52.05
287.559	55.85
288.026	55.2
288.494	58.35
288.962	55.95
289.429	48.7
289.897	57.85
290.364	49.8
290.832	49.45
291.3	52.7
291.767	59.75
292.234	61.8
292.702	58.45
293.169	59.5
293.637	56.8
294.104	59.15
294.571	60.15
295.039	62.1
295.506	58.5
295.973	65.9
296.44	58.85
296.908	66.35
297.375	66.95
297.842	63.1
298.309	63.2
298.776	63.65
299.243	69.7
299.71	71.7
300.177	66.2
300.644	64.5
301.111	65.85
301.578	71.3
302.045	68.2
302.512	70.15
302.979	66.8
303.446	72.75
303.913	74.95
304.379	79.2
304.846	82.15
305.313	81.9
305.78	83.9
306.246	79.7
306.713	81.55
307.18	85.3
307.646	82.55
308.113	83.65
308.579	89.25
309.046	91.45
309.512	84.9
309.979	94.95
310.445	87.3
310.912	95
311.378	98.25
311.845	101.05
312.311	93.7
312.777	95
313.244	96.7
313.71	100
314.176	102.5
314.642	100.9
315.109	95.6
315.575	100.55
316.041	97.85
316.507	100.7
316.973	110.6
317.439	105.45
317.905	104.7
318.371	104.2
318.837	105.5
319.303	105.6
319.769	107.3
320.235	110.15
320.701	116.7
321.167	107.3
321.633	112.75
322.099	107.9
322.564	115.4
323.03	112.5
323.496	114.2
323.962	120.6
324.427	122.6
324.893	121.35
325.359	125.3
325.824	122.2
326.29	123.6
326.755	123.15
327.221	125.35
327.686	136.55
328.152	129.75
328.617	138.2
329.083	134.75
329.548	138.4
330.014	136.45
330.479	141.25
330.944	138.85
331.41	146.5
331.875	136.95
332.34	140.65
332.805	142.9
333.271	142.45
333.736	148.1
334.201	147.35
334.666	151.85
335.131	148.95
335.596	157.3
336.061	147.6
336.526	150.6
336.991	147.45
337.456	141.9
337.921	147.8
338.386	147.3
338.851	147
339.316	146.65
339.781	150.55
340.246	153.55
340.711	151.05
341.175	155.4
341.64	163.35
342.105	162.25
342.569	172.75
343.034	167.95
343.499	169.8
343.963	174.4
344.428	169.85
344.893	175.75
345.357	177.35
345.822	179.85
346.286	188.05
346.751	188.9
347.215	188.8
347.679	192.45
348.144	204.65
348.608	201.75
349.073	204.2
349.537	211.25
350.001	212.35
350.465	206.2
350.93	208.95
351.394	212.65
351.858	212.3
352.322	220.1
352.786	215.6
353.25	221.8
353.715	224.05
354.179	237.15
354.643	238.7
355.107	243.7
355.571	240.1
356.035	241.05
356.498	236.95
356.962	232.2
357.426	233.2
357.89	227.25
358.354	229.6
358.818	221.75
359.281	225.5
359.745	233.15
360.209	229.95
360.673	233.75
361.136	228.25
361.6	234.55
362.064	235.35
362.527	248.35
362.991	242.1
363.454	240.75
363.918	251.2
364.381	249
364.845	248.55
365.308	245.35
365.772	248.2
366.235	252.65
366.698	248
367.162	246.1
367.625	254.75
368.088	257.75
368.552	255.45
369.015	255.55
369.478	260.6
369.941	262.4
370.404	265.6
370.867	259.9
371.331	263.85
371.794	269.85
372.257	271.7
372.72	267
373.183	272.55
373.646	274.95
374.109	269.25
374.572	276.95
375.035	279
375.497	279
375.96	284.9
376.423	289.8
376.886	294.95
377.349	298.4
377.811	293.95
378.274	303.25
378.737	298.75
379.199	301.3
379.662	299
380.125	306.1
380.587	310
381.05	313.7
381.512	321.25
381.975	328.55
382.437	333.3
382.9	330.2
383.362	332.95
383.825	336.25
384.287	332.5
384.75	334.15
385.212	342.55
385.674	348.8
386.136	342.2
386.599	339.55
387.061	336.2
387.523	340.1
387.985	345.8
388.447	356.45
388.91	350.8
389.372	354.45
389.834	356.05
390.296	343.65
390.758	351.05
391.22	347.5
391.682	349.4
392.144	352
392.606	356.7
393.068	373.65
393.529	389.95
393.991	394.75
394.453	375.7
394.915	362.7
395.377	353.35
395.838	358.15
396.3	357.7
396.762	365.65
397.224	366.15
397.685	361.3
398.147	367.5
398.608	370.8
399.07	384.25
399.531	381.35
399.993	387.15
400.454	391.9
400.916	388.75
401.377	402.7
401.839	401.7
402.3	406.7
402.762	424.3
403.223	452.8
403.684	448.3
404.145	432.25
404.607	420.2
405.068	405.95
405.529	403.75
405.99	415.25
406.451	413.8
406.913	409.6
407.374	413.4
407.835	412.5
408.296	425.5
408.757	424.9
409.218	432.7
409.679	441.65
410.14	446.15
410.601	466.85
411.062	465.95
411.522	472.7
411.983	476.35
412.444	486.7
412.905	496.55
413.366	516
413.826	551.05
414.287	627.15
414.748	769.1
415.208	785
415.669	640
416.13	576.55
416.59	568.85
417.051	601.15
417.511	634.3
417.972	691.25
418.432	738.05
418.893	837.2
419.353	798.65
419.814	589.7
420.274	520.95
420.734	510
421.195	525.3
421.655	519.9
422.115	530.6
422.576	525.25
423.036	527.15
423.496	548.1
423.956	568.65
424.416	608.65
424.876	688.05
425.336	677.8
425.797	662.15
426.257	652.2
426.717	593.8
427.177	529.25
427.637	526.6
428.097	541.1
428.556	553.4
429.016	590.75
429.476	585.9
429.936	561.35
430.396	547.2
430.856	552.95
431.315	562.5
431.775	597
432.235	661.65
432.694	671.45
433.154	610.35
433.614	596.55
434.073	587.05
434.533	542.5
434.993	529.1
435.452	544.95
435.912	535.25
436.371	544.4
436.83	545.9
437.29	549.95
437.749	542.1
438.209	545.15
438.668	560.15
439.127	563.8
439.587	558.6
440.046	550.45
440.505	563.65
440.964	567.1
441.424	584
441.883	605.95
442.342	579.85
442.801	557.8
443.26	569.3
443.719	561.15
444.178	563.6
444.637	573.8
445.096	577.65
445.555	588.6
446.014	586.15
446.473	580.6
446.932	585.35
447.391	593.15
447.849	605.05
448.308	593.75
448.767	596.65
449.226	611.75
449.685	615.9
450.143	651.15
450.602	638.8
451.061	608.05
451.519	601.8
451.978	591.3
452.436	588.7
452.895	597.25
453.353	598.25
453.812	583.75
454.27	595.05
454.729	595.8
455.187	604.6
455.646	606.2
456.104	607.4
456.562	614.6
457.021	616.9
457.479	587.7
457.937	614.05
458.395	635.7
458.854	627
459.312	614.5
459.77	620.35
460.228	632.65
460.686	625.4
461.144	633.65
461.602	625.6
462.06	630.1
462.518	645.2
462.976	641.15
463.434	649.3
463.892	656.6
464.35	662.5
464.808	669.55
465.266	680.05
465.724	691.6
466.181	688.15
466.639	681.55
467.097	708
467.555	732.95
468.012	724.35
468.47	729.1
468.928	745.3
469.385	775.3
469.843	780.55
470.3	768.05
470.758	800.6
471.215	806.9
471.673	804.6
472.13	844.8
472.588	850.65
473.045	847.55
473.503	864.15
473.96	897.85
474.417	897.5
474.875	921.95
475.332	944.15
475.789	949.55
476.246	969.05
476.704	987.15
477.161	989.6
477.618	989.65
478.075	1007.5
478.532	1049.15
478.989	1071.2
479.446	1122.35
479.903	1115.6
480.36	1127.7
480.817	1126.2
481.274	1129.45
481.731	1173.4
482.188	1197.15
482.645	1217.75
483.102	1225.25
483.558	1261.75
484.015	1290.35
484.472	1292.2
484.929	1301.75
485.385	1293.8
485.842	1299.75
486.299	1312.7
486.755	1301.9
487.212	1281.25
487.668	1254.6
488.125	1247.2
488.582	1231.8
489.038	1245.15
489.494	1247.7
489.951	1247.45
490.407	1251.7
490.864	1253.6
491.32	1250.75
491.776	1262.95
492.233	1287.3
492.689	1271.6
493.145	1256.05
493.602	1258.3
494.058	1284.9
494.514	1288.25
494.97	1279.9
495.426	1312.75
495.882	1312.25
496.338	1316.45
496.794	1326.05
497.251	1319.6
497.707	1344.6
498.163	1343.55
498.618	1353.5
499.074	1347.1
499.53	1361.25
499.986	1374.8
500.442	1367.4
500.898	1347.4
501.354	1366.2
501.809	1380.35
502.265	1381.8
502.721	1382.85
503.177	1382.45
503.632	1392
504.088	1408.2
504.543	1412.5
504.999	1426.9
505.455	1421.5
505.91	1410.4
506.366	1410.85
506.821	1406.7
507.277	1405.95
507.732	1417.75
508.187	1415.75
508.643	1432.45
509.098	1426.8
509.553	1441.75
510.009	1462.65
510.464	1488.05
510.919	1490.45
511.375	1518.75
511.83	1535
512.285	1561.05
512.74	1589.4
513.195	1602.85
513.65	1639.15
514.105	1672.35
514.56	1677.25
515.015	1702.95
515.47	1713.6
515.925	1676
516.38	1692.35
516.835	1696.9
517.29	1680.6
517.745	1684.95
518.2	1656.75
518.655	1616.15
519.109	1594.3
519.564	1579
520.019	1556.95
520.474	1544.45
520.928	1537.35
521.383	1529.4
521.838	1519.35
522.292	1510.7
522.747	1498.85
523.201	1487.55
523.656	1474.6
524.11	1470.35
524.565	1462.75
525.019	1469.4
525.474	1463.6
525.928	1448.55
526.382	1459.05
526.837	1449.95
527.291	1449.8
527.745	1447.35
528.2	1441.4
528.654	1426.7
529.108	1425.65
529.562	1432.35
530.016	1427.55
530.47	1426.15
530.925	1432.9
531.379	1425.5
531.833	1431.2
532.287	1441.9
532.741	1431.6
533.195	1427.85
533.649	1416.95
534.103	1424.5
534.556	1412.75
535.01	1419
535.464	1411
535.918	1418.55
536.372	1432.4
536.826	1420.95
537.279	1409.75
537.733	1418.75
538.187	1417.95
538.64	1427.65
539.094	1431
539.548	1448
540.001	1444.55
540.455	1456.85
540.908	1470.15
541.362	1488.85
541.815	1494.5
542.269	1529.5
542.722	1517.45
543.175	1542.75
543.629	1543.5
544.082	1565.55
544.536	1572.25
544.989	1588.65
545.442	1595.2
545.895	1597.2
546.349	1597.05
546.802	1606.2
547.255	1605.35
547.708	1610.9
548.161	1643.5
548.614	1641
549.067	1645.65
549.52	1622.55
549.973	1612.2
550.426	1594.1
550.879	1581.6
551.332	1582.05
551.785	1599.25
552.238	1606.5
552.691	1607.8
553.144	1628
553.596	1655.6
554.049	1689.85
554.502	1724.15
554.955	1761.8
555.407	1791.85
555.86	1765.1
556.313	1729.3
556.765	1711
557.218	1692.5
557.67	1677.35
558.123	1662.05
558.576	1651.9
559.028	1659.65
559.48	1673.35
559.933	1681.2
560.385	1615.9
560.838	1549.15
561.29	1508.15
561.742	1504.5
562.195	1469.85
562.647	1448.85
563.099	1449.05
563.551	1440.75
564.004	1458.8
564.456	1431.95
564.908	1402.65
565.36	1379.85
565.812	1344.05
566.264	1329.5
566.716	1305.35
567.168	1295.15
567.62	1283.6
568.072	1276.25
568.524	1273.25
568.976	1261.55
569.428	1256.6
569.88	1245.8
570.332	1262.3
570.784	1269.95
571.235	1256.55
571.687	1272.85
572.139	1272.05
572.59	1288.5
573.042	1296.55
573.494	1286.9
573.945	1264.15
574.397	1241.45
574.849	1224.95
575.3	1238.25
575.752	1213.35
576.203	1208.95
576.655	1214.6
577.106	1194.9
577.557	1188.25
578.009	1164.05
578.46	1183.2
578.912	1163.5
579.363	1181.9
579.814	1176.85
580.265	1166.75
580.717	1179.05
581.168	1171.3
581.619	1177.55
582.07	1189.5
582.521	1186.65
582.972	1174
583.423	1191.1
583.875	1186.85
584.326	1200.15
584.777	1217.35
585.227	1246.85
585.678	1252.3
586.129	1262.45
586.58	1283.6
587.031	1310.6
587.482	1353.3
587.933	1357.4
588.384	1367.55
588.834	1351.1
589.285	1347.75
589.736	1345.05
590.186	1350.05
590.637	1341.45
591.088	1299.3
591.538	1273.35
591.989	1247.8
592.439	1229.3
592.89	1221.35
593.34	1219.55
593.791	1210.15
594.241	1194.85
594.692	1188.7
595.142	1194.05
595.593	1191.1
596.043	1205.45
596.493	1205.85
596.943	1208.85
597.394	1238.05
597.844	1262.55
598.294	1282.15
598.744	1338.6
599.195	1399.4
599.645	1498.55
600.095	1571.85
600.545	1658.6
600.995	1741.25
601.445	1811.35
601.895	1910.85
602.345	1988.1
602.795	1952.2
603.245	1857.15
603.695	1732.7
604.145	1628.45
604.594	1554.85
605.044	1462.25
605.494	1347.8
605.944	1266.1
606.393	1230.75
606.843	1216.4
607.293	1217.9
607.743	1215
608.192	1225.6
608.642	1226.7
609.091	1226.65
609.541	1227.35
609.99	1226.9
610.44	1192.55
610.889	1180.25
611.339	1158.6
611.788	1146.5
612.238	1149.7
612.687	1157.85
613.136	1173.8
613.586	1183.8
614.035	1184.9
614.484	1187.45
614.933	1183.35
615.383	1170.25
615.832	1129.05
616.281	1113.5
616.73	1095.95
617.179	1070.4
617.628	1045.65
618.077	1026.7
618.526	1013.85
618.975	1001.55
619.424	981.55
619.873	993.35
620.322	975.9
620.771	974.45
621.22	964.7
621.669	940
622.118	933.4
622.567	921.1
623.015	898.15
623.464	897.3
623.913	886.25
624.361	895.3
624.81	880.7
625.259	888.4
625.707	877.35
626.156	889.15
626.604	903.95
627.053	900.25
627.501	903.9
627.95	915.4
628.398	926.7
628.847	905.9
629.295	911.1
629.744	905.85
630.192	892.6
630.64	866.3
631.089	845.85
631.537	823
631.985	812.3
632.433	808.05
632.881	800.35
633.33	815.75
633.778	809
634.226	810.95
634.674	817.85
635.122	822.4
635.57	841.55
636.018	855.3
636.466	850
636.914	841.1
637.362	859.5
637.81	882.6
638.258	908.3
638.705	910.85
639.153	936.25
639.601	945.75
640.049	963.25
640.497	1000.8
640.944	1026.15
641.392	974.65
641.84	892.2
642.287	838.15
642.735	804.1
643.182	786.9
643.63	780.9
644.078	773.2
644.525	775.25
644.973	782.15
645.42	790.8
645.867	784.8
646.315	787.75
646.762	787.95
647.21	781.75
647.657	797.75
648.104	780.6
648.551	749.7
648.999	747.4
649.446	754.75
649.893	739.7
650.34	754
650.787	775.8
651.234	804.7
651.682	869.4
652.129	938.1
652.576	1087.75
653.023	1247.35
653.47	1343.7
653.917	1403.3
654.363	1447.8
654.81	1516.35
655.257	1561.5
655.704	1233.35
656.151	955.05
656.598	829.45
657.044	769.4
657.491	748.2
657.938	733.1
658.385	722.4
658.831	707.8
659.278	713.3
659.724	708.5
660.171	697.4
660.618	679.25
661.064	667.05
661.511	671.15
661.957	668
662.404	673.95
662.85	685.35
663.296	693.6
663.743	692.6
664.189	693.35
664.635	700.6
665.082	692.85
665.528	687.65
665.974	672.45
666.42	667.1
666.867	669.45
667.313	635.15
667.759	626.75
668.205	629.5
668.651	632.25
669.097	636.15
669.543	643.6
669.989	655.4
670.435	651.05
670.881	655.05
671.327	694.3
671.773	740.45
672.219	806.9
672.665	868.95
673.11	910.3
673.556	933
674.002	968.85
674.448	998
674.893	825.2
675.339	706.95
675.785	647.4
676.23	618.7
676.676	590.65
677.122	572.25
677.567	554.75
678.013	539.2
678.458	537.15
678.904	535.9
679.349	530.95
679.794	533.3
680.24	530.65
680.685	515.35
681.131	520.15
681.576	523.4
682.021	524.6
682.466	539.3
682.912	541.9
683.357	570.7
683.802	623.2
684.247	688.05
684.692	739.65
685.137	774.65
685.583	797.55
686.028	856.95
686.473	802.4
686.918	676.35
687.363	620.35
687.807	586.15
688.252	554.85
688.697	527.95
689.142	506.65
689.587	512.9
690.032	524.3
690.477	544.55
690.921	579.8
691.366	612.55
691.811	637.2
692.255	700.8
692.7	849.25
693.145	1216.55
693.589	1890.9
694.034	2293.4
694.478	2513.2
694.923	2348.5
695.367	3431.3
695.812	2035.15
696.256	817.35
696.701	573.65
697.145	526.2
697.59	507.25
698.034	498.8
698.478	499.3
698.922	500.25
699.367	512.8
699.811	543.8
700.255	587.05
700.699	654.45
701.143	717.5
701.588	765.9
702.032	801.2
702.476	826.2
702.92	858.05
703.364	1112.55
703.808	1729.6
704.252	2211.2
704.696	2397
705.14	2317.6
705.584	3248.5
706.027	1755.5
706.471	845.05
706.915	612.75
707.359	540.35
707.803	502.95
708.246	482.2
708.69	487.3
709.134	473.6
709.577	473.2
710.021	484.9
710.465	478.1
710.908	477.65
711.352	487.9
711.795	548.75
712.239	591
712.682	612.9
713.126	603.5
713.569	687.4
714.012	551.15
714.456	469.9
714.899	446.05
715.342	427.35
715.786	405.05
716.229	397.45
716.672	386.95
717.115	381.75
717.558	393.1
718.002	400.8
718.445	414.6
718.888	446.25
719.331	465.95
719.774	471.45
720.217	453.8
720.66	426.85
721.103	400.2
721.546	379.85
721.989	372
722.432	367.65
722.874	364.55
723.317	366.9
723.76	398.5
724.203	488.4
724.645	671.35
725.088	804.9
725.531	811.65
725.974	914.9
726.416	810.45
726.859	475.6
727.301	375.55
727.744	362.85
728.187	360.2
728.629	371.15
729.071	390.85
729.514	409.35
729.956	429.95
730.399	440.25
730.841	435.85
731.283	426.3
731.726	408.1
732.168	416.3
732.61	443.65
733.053	479.85
733.495	531.65
733.937	598.6
734.379	711.85
734.821	900.7
735.263	1432.75
735.705	2572
736.148	3916.3
736.59	4031.75
737.032	4523.65
737.474	3683.65
737.916	1369.15
738.357	681.05
738.799	524.35
739.241	482.4
739.683	480.25
740.125	491.4
740.567	498.35
741.008	531.85
741.45	554.45
741.892	581.95
742.334	590.75
742.775	586.55
743.217	555.55
743.658	464.6
744.1	463.25
744.542	535
744.983	561.45
745.425	600.3
745.866	593.05
746.307	489.9
746.749	521.85
747.19	765.15
747.632	1508.2
748.073	2836.55
748.514	4019.8
748.956	5514
749.397	6545.6
749.838	4473.65
750.279	4394.75
750.72	2192.15
751.162	890.15
751.603	501.65
752.044	397.7
752.485	348.65
752.926	331.15
753.367	315.3
753.808	306.45
754.249	294.1
754.69	297.7
755.131	284.75
755.572	290.1
756.013	290.9
756.453	291.95
756.894	297.9
757.335	297.95
757.776	301.3
758.216	311.05
758.657	331.5
759.098	368.05
759.538	436.5
759.979	643.35
760.42	1307.75
760.86	3336.2
761.301	7195.2
761.741	8853.05
762.182	10663.9
762.622	6724.8
763.063	2299.35
763.503	920.9
763.943	529.85
764.384	415.25
764.824	360.5
765.264	324.05
765.705	314.25
766.145	291.1
766.585	282.4
767.025	273.15
767.465	271.95
767.906	277.6
768.346	293.65
768.786	343.6
769.226	499.45
769.666	1020.65
770.106	2343.9
770.546	3510.9
770.986	4150.7
771.426	3139
771.866	1243.2
772.306	883.1
772.745	678.4
773.185	626.35
773.625	615.85
774.065	625.5
774.505	728.55
774.944	982
775.384	1277.2
775.824	1436.8
776.263	1271.25
776.703	832.4
777.142	640.1
777.582	577.1
778.021	559.05
778.461	551.15
778.9	546.8
779.34	548.8
779.779	543.55
780.219	537.8
780.658	532.65
781.097	530.2
781.537	521.55
781.976	525.05
782.415	525.5
782.855	527.25
783.294	525.3
783.733	520.25
784.172	526.8
784.611	528.25
785.05	535.25
785.489	542.3
785.928	540.7
786.367	544.3
786.806	557.1
787.245	567.1
787.684	578.55
788.123	579.15
788.562	566.5
789.001	559.05
789.44	553.55
789.879	551.4
790.317	556.4
790.756	565.3
791.195	594.75
791.634	678.55
792.072	926.35
792.511	1776.5
792.95	3076.55
793.388	3828.5
793.827	2606.85
794.265	1342.8
794.704	825.05
795.142	639.9
795.581	593.45
796.019	569.15
796.458	571.4
796.896	576
797.334	612.4
797.773	691.05
798.211	994.2
798.649	1712.65
799.087	2690.05
799.526	3658.2
799.964	3829.3
800.402	2798.3
800.84	1424.6
801.278	864.25
801.716	669.8
802.154	604.25
802.592	594.15
803.03	595.45
803.468	600.35
803.906	598.7
804.344	597.75
804.782	588.45
805.22	588
805.658	596.35
806.096	614.8
806.533	640
806.971	717.6
807.409	880.7
807.847	1390.05
808.284	3012.15
808.722	5214.9
809.16	7187.3
809.597	9447.75
810.035	12151.85
810.472	8120.05
810.91	3510.1
811.347	1753.55
811.785	1009.35
812.222	770.3
812.66	674.4
813.097	628
813.535	590.1
813.972	571.05
814.409	553.75
814.846	550.4
815.284	534.65
815.721	538.3
816.158	546.9
816.595	611.35
817.032	682.9
817.47	660.4
817.907	577.35
818.344	546.05
818.781	544.9
819.218	578.1
819.655	691.95
820.092	790.4
820.529	757.35
820.966	670.4
821.403	571.35
821.839	544
822.276	567.7
822.713	604.85
823.15	593.55
823.587	607.5
824.023	797.35
824.46	1468.4
824.897	2408.2
825.333	1980.7
825.77	1077.5
826.206	722.65
826.643	574.3
827.08	523.55
827.516	503.35
827.953	493.95
828.389	483.75
828.825	479.15
829.262	478.35
829.698	472.3
830.135	464.35
830.571	465.75
831.007	470.3
831.443	468.95
831.88	469.35
832.316	468.4
832.752	467.7
833.188	472
833.624	472
834.06	479.25
834.497	474.2
834.933	479.75
835.369	490.9
835.805	498.05
836.241	503.3
836.677	514.85
837.112	535.6
837.548	580.9
837.984	683.15
838.42	1045.1
838.856	2291.8
839.292	4400.65
839.727	3388.55
840.163	2281.5
840.599	3280.7
841.034	5123.65
841.47	2746.65
841.906	1462.55
842.341	931.65
842.777	770.15
843.212	772.8
843.648	621.95
844.083	547.2
844.519	499.5
844.954	476
845.39	462.3
845.825	465.1
846.261	459.4
846.696	462.8
847.131	453.05
847.566	456.45
848.002	457.55
848.437	461.05
848.872	469.55
849.307	495.85
849.742	597.55
850.177	998.6
850.613	1797.15
851.048	1406.95
851.483	823.05
851.918	612.45
852.353	503.55
852.788	458.2
853.223	456.05
853.657	441.5
854.092	442.2
854.527	439.7
854.962	441.35
855.397	451.5
855.832	440.65
856.266	430.85
856.701	432.6
857.136	433.05
857.57	447.05
858.005	469.8
858.44	449.45
858.874	447.7
859.309	455.25
859.743	447.95
860.178	443.35
860.612	451.25
861.047	481.95
861.481	528.25
861.915	477.55
862.35	449.25
862.784	429.2
863.218	429.5
863.653	430.05
864.087	450.55
864.521	469.65
864.955	548.1
865.39	704.55
865.824	600.5
866.258	647.85
866.692	806.4
867.126	686.95
867.56	533.5
867.994	472.85
868.428	458.55
868.862	483.85
869.296	471
869.73	497.7
870.164	476.2
870.598	465.5
871.031	440.15
871.465	431
871.899	419.1
872.333	408.05
872.766	412.4
873.2	418.15
873.634	415.1
874.067	419.25
874.501	417.5
874.935	418.85
875.368	422.6
875.802	411.05
876.235	407.65
876.669	406.4
877.102	401.7
877.535	407
877.969	399.7
878.402	405.3
878.836	409.65
879.269	403.6
879.702	400.35
880.135	404.85
880.569	404.7
881.002	398.75
881.435	401.5
881.868	407.1
882.301	403.9
882.734	406.75
883.167	402.15
883.601	402.35
884.034	397.8
884.467	394.4
884.899	397.7
885.332	398.3
885.765	397
886.198	392.95
886.631	397.5
887.064	395.75
887.497	396.2
887.929	395.85
888.362	394.2
888.795	396.3
889.228	401.25
889.66	395.9
890.093	391.6
890.526	394.35
890.958	395.2
891.391	398
891.823	393.65
892.256	398.35
892.688	398.05
893.121	393.4
893.553	396.7
893.985	391.9
894.418	391.9
894.85	394.7
895.282	394.85
895.715	391.35
896.147	387.35
896.579	389.95
897.011	395.75
897.444	391.2
897.876	386.6
898.308	388.5
898.74	391.45
899.172	398
899.604	395.15
900.036	389.05
900.468	387.2
900.9	394.85
901.332	401.75
901.764	407.15
902.196	402.6
902.628	401.85
903.06	416.7
903.491	420.85
903.923	411.35
904.355	415
904.787	411.95
905.218	404.55
905.65	405.15
906.082	403.7
906.513	396.45
906.945	398.9
907.376	398.6
907.808	400.9
908.239	407.05
908.671	408.55
909.102	411.75
909.534	427.6
909.965	494.65
910.397	685.55
910.828	1339.95
911.259	965.75
911.691	677.15
912.122	546.95
912.553	458.8
912.984	415.15
913.415	410.3
913.847	404.1
914.278	402.6
914.709	396.35
915.14	394.3
915.571	395.4
916.002	393.8
916.433	391.55
916.864	392.85
917.295	395.7
917.726	400.95
918.157	413.7
918.587	407.7
919.018	405.15
919.449	403.6
919.88	411.15
920.311	431.45
920.741	567.9
921.172	728.6
921.603	545.3
922.033	478.05
922.464	436.45
922.895	409.85
923.325	395.4
923.756	389.95
924.186	400.45
924.617	416.05
925.047	436.25
925.478	424.6
925.908	410.1
926.338	398.45
926.769	392.6
927.199	398.4
927.629	392.05
928.06	393.45
928.49	397.6
928.92	387.55
929.35	386.1
929.78	384.9
930.21	383.8
930.641	374.7
931.071	382.1
931.501	382.15
931.931	379.35
932.361	383.25
932.791	387.95
933.221	383.9
933.651	395.5
934.08	414.25
934.51	396.65
934.94	386.9
935.37	385.4
935.8	382.6
936.229	382.75
936.659	381.6
937.089	392.5
937.519	399.4
937.948	413.7
938.378	394.75
938.807	388.95
939.237	374.35
939.666	376.35
940.096	376.55
940.525	369.95
940.955	378.55
941.384	375.8
941.814	372.2
942.243	374.9
942.672	372.35
943.102	370.6
943.531	374.2
943.96	372.65
944.39	376.35
944.819	374.7
945.248	375.6
945.677	372.85
946.106	376.25
946.535	373.25
946.964	373.4
947.393	375.25
947.822	369.9
948.251	374.5
948.68	378.5
949.109	370.6
949.538	368.55
949.967	374.85
950.396	371.55
950.825	371.95
951.254	371.75
951.682	369.05
952.111	372.6
952.54	370.6
952.969	371.85
953.397	371.2
953.826	370.1
954.254	373.85
954.683	372.1
955.112	374.6
955.54	372.55
955.969	370.6
956.397	369.45
956.826	370.25
957.254	371.15
957.682	373.05
958.111	375.75
958.539	372.75
958.967	372.05
959.396	375.55
959.824	373.85
960.252	374.15
960.68	373.25
961.109	374.35
961.537	377.85
961.965	366.65
962.393	369.3
962.821	372.4
963.249	376.1
963.677	375.05
964.105	426.95
964.533	468.3
964.961	418.45
965.389	395.55
965.817	380.1
966.245	372.4
966.672	373.5
967.1	374.7
967.528	367.9
967.956	370.35
968.383	373.05
968.811	370.4
969.239	372.1
969.666	373.75
970.094	369.45
970.522	367.05
970.949	370.65
971.377	365.15
971.804	367.55
972.232	372.9
972.659	369.45
973.087	373.35
973.514	369.9
973.941	369.35
974.369	368.8
974.796	370.45
975.223	366.8
975.651	367.4
976.078	370.75
976.505	375.6
976.932	389.55
977.359	397.2
977.786	385.35
978.214	380.45
978.641	372.25
979.068	373.3
979.495	370.05
979.922	371.95
980.349	373.2
980.776	371.4
981.202	370.7
981.629	375.65
982.056	371.95
982.483	364.65
982.91	373.1
983.337	366.95
983.763	370.2
984.19	370.3
984.617	367.35
985.043	370.95
985.47	374.8
985.897	373.7
986.323	373.95
986.75	369.4
987.176	368.75
987.603	374.9
988.029	369.1
988.456	374.35
988.882	368.95
989.308	365.25
989.735	366.55
990.161	369.55
990.587	368.95
991.014	368.75
991.44	369.5
991.866	371
992.292	368
992.719	363.65
993.145	374.85
993.571	367.85
993.997	377.4
994.423	372.15
994.849	366.65
995.275	370.9
995.701	374.6
996.127	362.1
996.553	371.55
996.979	363.55
997.405	373.3
997.83	367.3
998.256	372.9
998.682	369.45
999.108	372.1
999.534	364.55
999.959	368.4
1000.385	371.55
1000.811	367
1001.236	366.2
1001.662	366.2
1002.087	371.9
1002.513	369.4
1002.938	364.85
1003.364	367.9
1003.789	371.45
1004.215	370.65
1004.64	370.2
1005.066	371.4
1005.491	372.95
1005.916	371.25
1006.342	368.45
1006.767	369.65
1007.192	372.1
1007.617	369.4
1008.042	367.5
1008.468	370.2
1008.893	371.05
1009.318	374.2
1009.743	383.5
1010.168	387.05
1010.593	383.75
1011.018	375.75
1011.443	373.05
1011.868	374.2
1012.293	372.6
1012.718	370.6
1013.143	370.7
1013.567	375.05
1013.992	369
1014.417	370.65
1014.842	368.8
1015.267	364.6
1015.691	370.4
1016.116	365.7
1016.541	369.3
1016.965	370.95
1017.39	370.85
1017.814	365.9
1018.239	368
1018.663	361.15
1019.088	366.25
1019.512	369.85
1019.937	362
1020.361	369.2
1020.785	367.75
1021.21	365.6
1021.634	366.25
1022.058	375.85
1022.483	363.25
1022.907	363.6
1023.331	368.3
1023.755	361.4
1024.179	368.65
1024.604	366.8
1025.028	367.1
1025.452	371.5
1025.876	370.3
1026.3	367.9
1026.724	367.35
1027.148	369.95
1027.572	368.2
1027.996	373.15
1028.42	367.95
1028.843	368.4
1029.267	361.8
1029.691	368.45
1030.115	368.1
1030.539	369.4
1030.962	371.15
1031.386	370.95
1031.81	371.55
1032.233	365.25
1032.657	362.25
1033.08	369.3
1033.504	367.35
1033.927	365.95
1034.351	366.6
1034.774	364.7
1035.198	366.75
1035.621	368.65
1036.045	367.3
1036.468	374.4
1036.891	366.1
1037.315	370.3
1037.738	368.1
1038.161	368.8
1038.584	367.15
1039.008	365.35
1039.431	368.85
1039.854	363.5
1040.277	368
1040.7	369.5
1041.123	367.95
1041.546	362.1
1041.969	366.9
1042.392	369.85
1042.815	362.2
1043.238	365.6
1043.661	364.25
1044.084	364.4
1044.507	363.9
1044.93	367.6
1045.352	366.8
1045.775	368.1
1046.198	368
1046.621	369.75
1047.043	365.5
1047.466	369
1047.889	366.7
1048.311	371
1048.734	370.5
1049.156	363.65
1049.579	365.2
1050.001	368.5
1050.424	365.95
1050.846	365.75
1051.269	365.15
1051.691	366.2
1052.113	368.8
1052.536	368.4
1052.958	365.7
1053.38	366.15
1053.802	369.35
1054.225	362.65
1054.647	368.9
1055.069	368
1055.491	372.35
1055.913	366.9
1056.335	359.7
1056.757	364.3
1057.179	363
1057.601	367.3
1058.023	368.1
1058.445	363.25
1058.867	369.45
1059.289	368.4
1059.711	365.15
1060.133	368.7
1060.555	365.15
1060.976	366.7
1061.398	364.15
1061.82	367.95
1062.241	367.25
1062.663	365.45
1063.085	363.15
1063.506	365.25
1063.928	365.2
1064.35	370.45
1064.771	365.3
1065.193	366.75
1065.614	365.95
1066.035	370.9
1066.457	368.6
1066.878	368.05
1067.3	365.8
1067.721	369.35
1068.142	370.3
1068.564	370.65
1068.985	368.8
1069.406	361.55
1069.827	370.65
1070.248	366.05
1070.67	367.9
1071.091	361.5
1071.512	366.3
1071.933	364.9
1072.354	356.45
1072.775	363.35
1073.196	364.1
1073.617	363.2
1074.038	365.95
1074.459	363.4
1074.88	362.05
1075.3	366.1
1075.721	369.3
1076.142	365.5
1076.563	361.6
1076.983	368.8
1077.404	364.95
1077.825	366.8
1078.246	366
1078.666	365.2
1079.087	365.45
1079.507	366.15
1079.928	369.7
1080.348	359.95
1080.769	367.1
1081.189	364.85
1081.61	365.1
1082.03	370.25
1082.451	367.5
1082.871	362.35
1083.291	364.8
1083.711	366.3
1084.132	363.9
1084.552	361.65
1084.972	361.6
1085.392	362.3
1085.813	368.85
1086.233	365.05
1086.653	368.95
1087.073	365.7
1087.493	366.15
1087.913	359.85
1088.333	363.5
1088.753	368
1089.173	368.5
1089.593	370.7
1090.013	365.1
1090.433	361.05
1090.852	369.1
1091.272	362.4
1091.692	370.55
1092.112	364.8
1092.531	360.05
1092.951	364.8
1093.371	363.4
1093.79	364.5
1094.21	363.8
1094.63	369.95
1095.049	365
1095.469	358.75
1095.888	367.15
1096.308	370.2
1096.727	361.95
1097.146	362.45
1097.566	368
1097.985	365.75
1098.405	366.4
1098.824	366.05
1099.243	368.95
1099.662	366.05
1100.082	368.7
1100.501	366.05
1100.92	370.05
1101.339	366.95
1101.758	365.25
