Data from MSPlasma+Separation6_Subt14_10-12-44-627.txt Node
Date: Fri Jul 21 10:12:44 EDT 2017
User: Ender
Spectrometer: HR+D1039
Trigger mode: 0
Integration Time (sec): 6.430000E-3
Scans to average: 20
Electric dark correction enabled: true
Nonlinearity correction enabled: false
Boxcar width: 0
XAxis mode: Wavelengths
Number of Pixels in Spectrum: 2048
>>>>>Begin Spectral Data<<<<<
187.836	-2.27
188.309	-2.27
188.782	-2.27
189.255	0.63
189.728	-0.17
190.201	-1.57
190.674	1.13
191.147	-0.37
191.619	0.08
192.092	-1.22
192.565	-0.62
193.038	4.03
193.511	2.83
193.984	1.13
194.456	2.48
194.929	-0.77
195.402	-4.72
195.874	-0.67
196.347	2.28
196.82	1.33
197.292	-1.37
197.765	-3.72
198.237	-3.72
198.71	-4.87
199.182	0.63
199.655	2.83
200.127	1.83
200.6	2.03
201.072	4.13
201.544	0.08
202.017	1.48
202.489	1.13
202.961	-3.72
203.433	-1.57
203.906	-1.17
204.378	-1.37
204.85	-3.32
205.322	-6.02
205.794	-0.42
206.266	-1.67
206.739	-1.57
207.211	-2.02
207.683	-1.67
208.155	-1.32
208.627	-0.02
209.099	1.48
209.57	0.53
210.042	-0.72
210.514	-0.37
210.986	-2.77
211.458	-2.17
211.93	-1.87
212.402	2.33
212.873	-2.82
213.345	-8.12
213.817	3.93
214.288	-1.32
214.76	-0.37
215.232	1.68
215.703	-2.17
216.175	1.43
216.646	-0.67
217.118	0.58
217.589	-2.42
218.061	1.18
218.532	-2.92
219.004	2.63
219.475	4.23
219.946	-0.12
220.418	5.18
220.889	3.23
221.36	2.33
221.832	2.83
222.303	7.28
222.774	1.43
223.245	3.03
223.717	1.13
224.188	4.98
224.659	2.13
225.13	-0.57
225.601	0.88
226.072	2.73
226.543	0.53
227.014	-0.77
227.485	3.88
227.956	3.03
228.427	7.28
228.898	5.58
229.369	3.88
229.839	6.08
230.31	11.33
230.781	6.03
231.252	8.28
231.722	4.98
232.193	3.33
232.664	9.78
233.135	3.78
233.605	6.53
234.076	14.18
234.546	7.23
235.017	8.28
235.487	9.43
235.958	4.58
236.428	8.73
236.899	6.48
237.369	18.88
237.84	11.78
238.31	13.28
238.78	7.98
239.251	11.18
239.721	6.23
240.191	6.63
240.662	7.08
241.132	11.33
241.602	10.48
242.072	8.13
242.542	10.93
243.013	9.53
243.483	18.93
243.953	12.68
244.423	15.23
244.893	9.98
245.363	14.08
245.833	11.58
246.303	15.13
246.773	16.18
247.243	15.53
247.712	17.28
248.182	17.28
248.652	18.63
249.122	15.83
249.592	15.93
250.061	18.58
250.531	14.08
251.001	19.43
251.471	20.18
251.94	17.43
252.41	22.18
252.879	21.93
253.349	22.63
253.818	21.23
254.288	21.28
254.757	19.13
255.227	22.78
255.696	24.43
256.166	25.48
256.635	20.13
257.105	21.23
257.574	22.78
258.043	22.98
258.513	27.78
258.982	24.13
259.451	28.38
259.92	25.53
260.389	24.73
260.859	21.88
261.328	31.33
261.797	21.68
262.266	26.78
262.735	32.63
263.204	28.23
263.673	27.48
264.142	23.03
264.611	32.58
265.08	31.38
265.549	24.63
266.018	32.58
266.487	31.38
266.955	30.18
267.424	34.98
267.893	33.08
268.362	31.48
268.83	29.28
269.299	32.43
269.768	37.43
270.236	32.48
270.705	39.03
271.174	35.68
271.642	33.08
272.111	37.53
272.579	36.18
273.048	35.63
273.516	39.98
273.985	39.13
274.453	34.78
274.922	39.38
275.39	33.58
275.858	43.23
276.327	40.33
276.795	39.53
277.263	40.58
277.731	41.38
278.2	40.68
278.668	41.13
279.136	42.58
279.604	44.38
280.072	38.33
280.54	41.38
281.008	53.23
281.477	45.68
281.945	41.73
282.413	44.53
282.881	48.88
283.348	45.53
283.816	49.63
284.284	48.38
284.752	47.73
285.22	54.38
285.688	51.28
286.156	49.68
286.623	54.63
287.091	51.23
287.559	54.73
288.026	57.38
288.494	56.13
288.962	58.78
289.429	57.98
289.897	57.13
290.364	55.68
290.832	58.23
291.3	58.68
291.767	57.53
292.234	56.68
292.702	61.33
293.169	60.98
293.637	63.88
294.104	64.83
294.571	59.83
295.039	62.28
295.506	55.38
295.973	65.43
296.44	61.83
296.908	66.28
297.375	64.88
297.842	67.68
298.309	62.08
298.776	65.63
299.243	69.98
299.71	72.03
300.177	67.08
300.644	66.73
301.111	66.63
301.578	73.23
302.045	69.73
302.512	73.58
302.979	70.43
303.446	73.68
303.913	73.63
304.379	81.88
304.846	81.48
305.313	83.33
305.78	82.98
306.246	82.28
306.713	86.68
307.18	82.48
307.646	83.33
308.113	82.38
308.579	91.68
309.046	90.48
309.512	91.88
309.979	93.63
310.445	89.33
310.912	92.03
311.378	97.68
311.845	95.83
312.311	93.63
312.777	97.78
313.244	98.13
313.71	102.13
314.176	103.73
314.642	99.78
315.109	104.43
315.575	99.48
316.041	102.48
316.507	104.23
316.973	112.08
317.439	108.23
317.905	105.83
318.371	110.08
318.837	106.93
319.303	104.48
319.769	104.33
320.235	112.88
320.701	117.23
321.167	111.93
321.633	115.43
322.099	113.13
322.564	115.83
323.03	114.58
323.496	112.28
323.962	119.33
324.427	125.08
324.893	120.08
325.359	128.18
325.824	127.93
326.29	127.18
326.755	123.48
327.221	124.23
327.686	135.78
328.152	133.43
328.617	134.53
329.083	135.93
329.548	139.43
330.014	133.53
330.479	140.73
330.944	142.98
331.41	150.68
331.875	135.68
332.34	137.48
332.805	142.68
333.271	144.63
333.736	139.18
334.201	143.93
334.666	154.28
335.131	148.33
335.596	155.18
336.061	147.68
336.526	148.23
336.991	145.63
337.456	146.33
337.921	143.03
338.386	142.23
338.851	149.13
339.316	143.88
339.781	145.58
340.246	149.68
340.711	152.33
341.175	157.18
341.64	157.48
342.105	161.03
342.569	170.28
343.034	164.28
343.499	166.88
343.963	170.08
344.428	172.33
344.893	177.53
345.357	180.08
345.822	179.88
346.286	177.28
346.751	183.33
347.215	184.83
347.679	191.78
348.144	200.93
348.608	202.43
349.073	203.38
349.537	210.83
350.001	208.18
350.465	208.68
350.93	207.43
351.394	213.73
351.858	207.78
352.322	215.48
352.786	219.38
353.25	218.23
353.715	217.13
354.179	230.53
354.643	235.98
355.107	242.88
355.571	237.18
356.035	233.08
356.498	231.58
356.962	229.13
357.426	222.73
357.89	227.33
358.354	224.73
358.818	219.68
359.281	226.78
359.745	230.88
360.209	228.13
360.673	227.38
361.136	228.03
361.6	229.08
362.064	231.93
362.527	240.93
362.991	236.98
363.454	233.43
363.918	246.83
364.381	245.03
364.845	244.48
365.308	247.13
365.772	248.13
366.235	244.63
366.698	246.28
367.162	241.08
367.625	249.03
368.088	254.58
368.552	249.78
369.015	252.23
369.478	253.43
369.941	251.48
370.404	260.93
370.867	258.93
371.331	263.53
371.794	266.53
372.257	267.68
372.72	268.58
373.183	269.68
373.646	269.18
374.109	267.68
374.572	270.83
375.035	270.43
375.497	272.93
375.96	279.43
376.423	284.93
376.886	284.98
377.349	292.13
377.811	288.33
378.274	295.78
378.737	292.78
379.199	294.28
379.662	293.73
380.125	303.98
380.587	311.58
381.05	306.43
381.512	310.78
381.975	324.98
382.437	329.63
382.9	326.73
383.362	322.58
383.825	332.88
384.287	333.58
384.75	332.18
385.212	333.78
385.674	333.48
386.136	344.18
386.599	336.83
387.061	334.63
387.523	333.78
387.985	341.03
388.447	348.38
388.91	348.03
389.372	341.18
389.834	349.08
390.296	331.93
390.758	348.08
391.22	337.83
391.682	343.28
392.144	346.03
392.606	350.08
393.068	359.48
393.529	380.63
393.991	387.43
394.453	366.68
394.915	358.88
395.377	346.63
395.838	353.98
396.3	350.43
396.762	358.53
397.224	356.88
397.685	355.43
398.147	364.78
398.608	367.53
399.07	369.38
399.531	369.38
399.993	381.98
400.454	382.58
400.916	383.98
401.377	391.73
401.839	392.48
402.3	394.08
402.762	413.68
403.223	441.78
403.684	442.23
404.145	421.48
404.607	406.63
405.068	394.78
405.529	395.48
405.99	404.63
406.451	408.58
406.913	404.13
407.374	401.63
407.835	403.53
408.296	411.58
408.757	414.13
409.218	428.68
409.679	440.18
410.14	447.28
410.601	450.48
411.062	460.23
411.522	463.03
411.983	472.38
412.444	476.53
412.905	485.58
413.366	513.18
413.826	536.98
414.287	626.18
414.748	755.88
415.208	775.98
415.669	633.93
416.13	571.23
416.59	565.48
417.051	588.73
417.511	619.03
417.972	674.28
418.432	724.98
418.893	818.43
419.353	781.63
419.814	585.03
420.274	513.23
420.734	505.58
421.195	512.13
421.655	503.23
422.115	517.83
422.576	519.28
423.036	516.88
423.496	537.63
423.956	558.63
424.416	599.48
424.876	677.88
425.336	673.43
425.797	650.88
426.257	634.73
426.717	585.43
427.177	523.43
427.637	522.93
428.097	538.63
428.556	548.23
429.016	591.08
429.476	577.53
429.936	549.73
430.396	537.03
430.856	544.53
431.315	547.53
431.775	586.68
432.235	652.38
432.694	661.38
433.154	605.48
433.614	600.18
434.073	584.58
434.533	529.98
434.993	521.43
435.452	530.58
435.912	529.38
436.371	542.43
436.83	539.38
437.29	531.08
437.749	527.13
438.209	530.78
438.668	543.28
439.127	561.68
439.587	557.28
440.046	545.18
440.505	562.98
440.964	567.08
441.424	578.53
441.883	599.38
442.342	566.28
442.801	549.43
443.26	561.68
443.719	560.48
444.178	557.98
444.637	566.78
445.096	574.38
445.555	574.73
446.014	572.23
446.473	573.13
446.932	572.33
447.391	581.43
447.849	592.68
448.308	583.63
448.767	586.23
449.226	591.73
449.685	620.03
450.143	638.73
450.602	632.28
451.061	599.23
451.519	594.08
451.978	589.78
452.436	590.83
452.895	594.33
453.353	590.68
453.812	586.58
454.27	583.78
454.729	591.23
455.187	594.03
455.646	594.13
456.104	594.23
456.562	601.68
457.021	614.78
457.479	588.53
457.937	607.28
458.395	625.38
458.854	620.03
459.312	610.53
459.77	613.33
460.228	625.23
460.686	625.88
461.144	632.83
461.602	625.38
462.06	626.78
462.518	636.63
462.976	639.88
463.434	648.23
463.892	645.43
464.35	659.13
464.808	664.53
465.266	669.63
465.724	681.88
466.181	687.58
466.639	683.43
467.097	704.43
467.555	735.03
468.012	727.88
468.47	731.58
468.928	751.48
469.385	774.53
469.843	778.38
470.3	771.73
470.758	788.73
471.215	799.73
471.673	818.58
472.13	835.63
472.588	841.98
473.045	846.38
473.503	853.18
473.96	881.08
474.417	889.43
474.875	919.78
475.332	938.58
475.789	941.68
476.246	949.98
476.704	983.03
477.161	979.58
477.618	981.83
478.075	1008.78
478.532	1037.93
478.989	1071.83
479.446	1117.48
479.903	1111.08
480.36	1127.23
480.817	1121.28
481.274	1129.98
481.731	1172.38
482.188	1181.58
482.645	1213.68
483.102	1229.48
483.558	1264.68
484.015	1288.23
484.472	1285.28
484.929	1301.78
485.385	1298.28
485.842	1296.33
486.299	1302.73
486.755	1303.73
487.212	1288.28
487.668	1247.93
488.125	1239.68
488.582	1228.98
489.038	1240.83
489.494	1257.98
489.951	1249.68
490.407	1257.53
490.864	1255.53
491.32	1248.83
491.776	1262.23
492.233	1279.38
492.689	1272.18
493.145	1257.08
493.602	1253.98
494.058	1278.48
494.514	1280.23
494.97	1279.58
495.426	1310.48
495.882	1313.68
496.338	1318.48
496.794	1341.68
497.251	1334.03
497.707	1344.63
498.163	1356.88
498.618	1364.53
499.074	1358.63
499.53	1375.13
499.986	1382.58
500.442	1366.63
500.898	1358.88
501.354	1373.98
501.809	1380.88
502.265	1391.28
502.721	1383.78
503.177	1394.68
503.632	1398.83
504.088	1409.68
504.543	1430.33
504.999	1433.03
505.455	1431.78
505.91	1418.18
506.366	1417.48
506.821	1421.13
507.277	1412.63
507.732	1425.13
508.187	1419.78
508.643	1433.73
509.098	1437.83
509.553	1456.58
510.009	1477.33
510.464	1494.83
510.919	1509.18
511.375	1531.53
511.83	1536.78
512.285	1558.03
512.74	1600.53
513.195	1614.78
513.65	1647.38
514.105	1677.73
514.56	1671.23
515.015	1705.83
515.47	1724.33
515.925	1689.28
516.38	1700.78
516.835	1709.78
517.29	1701.83
517.745	1705.53
518.2	1679.33
518.655	1626.18
519.109	1615.98
519.564	1586.73
520.019	1571.63
520.474	1563.63
520.928	1548.13
521.383	1544.08
521.838	1530.63
522.292	1522.13
522.747	1511.78
523.201	1504.63
523.656	1485.13
524.11	1483.88
524.565	1482.63
525.019	1482.93
525.474	1477.43
525.928	1453.28
526.382	1463.83
526.837	1471.53
527.291	1462.68
527.745	1455.93
528.2	1460.73
528.654	1438.58
529.108	1443.43
529.562	1438.68
530.016	1447.58
530.47	1452.23
530.925	1424.18
531.379	1431.03
531.833	1455.93
532.287	1457.03
532.741	1441.08
533.195	1448.38
533.649	1436.88
534.103	1443.18
534.556	1432.08
535.01	1446.88
535.464	1435.08
535.918	1438.23
536.372	1453.23
536.826	1445.83
537.279	1430.33
537.733	1435.33
538.187	1444.63
538.64	1435.08
539.094	1451.68
539.548	1463.18
540.001	1470.93
540.455	1477.53
540.908	1486.68
541.362	1496.78
541.815	1515.83
542.269	1548.78
542.722	1545.13
543.175	1550.73
543.629	1563.88
544.082	1588.83
544.536	1597.23
544.989	1602.28
545.442	1610.03
545.895	1608.38
546.349	1612.13
546.802	1616.98
547.255	1610.78
547.708	1627.98
548.161	1654.58
548.614	1650.38
549.067	1658.98
549.52	1648.43
549.973	1617.23
550.426	1618.33
550.879	1601.98
551.332	1593.18
551.785	1619.08
552.238	1633.98
552.691	1631.83
553.144	1655.03
553.596	1689.63
554.049	1706.83
554.502	1758.98
554.955	1783.08
555.407	1807.13
555.86	1773.58
556.313	1755.13
556.765	1738.73
557.218	1714.43
557.67	1700.88
558.123	1680.98
558.576	1672.83
559.028	1680.43
559.48	1710.83
559.933	1699.88
560.385	1630.48
560.838	1568.93
561.29	1533.78
561.742	1513.08
562.195	1480.83
562.647	1468.73
563.099	1470.13
563.551	1463.93
564.004	1481.68
564.456	1468.13
564.908	1416.83
565.36	1380.28
565.812	1361.23
566.264	1349.88
566.716	1327.28
567.168	1307.83
567.62	1310.18
568.072	1290.53
568.524	1290.08
568.976	1288.93
569.428	1273.28
569.88	1274.38
570.332	1283.73
570.784	1286.58
571.235	1271.48
571.687	1292.68
572.139	1285.83
572.59	1294.98
573.042	1310.53
573.494	1309.93
573.945	1281.88
574.397	1254.08
574.849	1254.93
575.3	1254.83
575.752	1228.68
576.203	1231.28
576.655	1232.43
577.106	1204.58
577.557	1199.93
578.009	1201.38
578.46	1204.43
578.912	1195.83
579.363	1207.33
579.814	1193.18
580.265	1203.48
580.717	1197.83
581.168	1198.78
581.619	1206.43
582.07	1220.53
582.521	1208.73
582.972	1206.48
583.423	1201.13
583.875	1210.93
584.326	1221.68
584.777	1246.78
585.227	1262.98
585.678	1270.98
586.129	1284.93
586.58	1301.68
587.031	1326.73
587.482	1380.38
587.933	1384.13
588.384	1380.78
588.834	1372.63
589.285	1366.33
589.736	1371.33
590.186	1367.73
590.637	1348.28
591.088	1311.23
591.538	1292.43
591.989	1270.18
592.439	1257.43
592.89	1245.63
593.34	1247.08
593.791	1228.18
594.241	1222.38
594.692	1209.68
595.142	1213.78
595.593	1212.18
596.043	1210.33
596.493	1233.68
596.943	1231.13
597.394	1256.08
597.844	1277.08
598.294	1304.88
598.744	1360.38
599.195	1429.03
599.645	1508.28
600.095	1595.78
600.545	1681.48
600.995	1762.18
601.445	1835.33
601.895	1941.58
602.345	2006.28
602.795	1981.33
603.245	1876.33
603.695	1765.38
604.145	1666.83
604.594	1568.83
605.044	1481.03
605.494	1370.73
605.944	1292.63
606.393	1256.83
606.843	1249.18
607.293	1235.93
607.743	1221.93
608.192	1247.83
608.642	1249.78
609.091	1248.78
609.541	1257.73
609.99	1245.48
610.44	1224.33
610.889	1205.28
611.339	1181.93
611.788	1168.33
612.238	1171.48
612.687	1178.98
613.136	1188.43
613.586	1206.88
614.035	1201.08
614.484	1207.28
614.933	1209.33
615.383	1188.83
615.832	1158.43
616.281	1136.73
616.73	1121.33
617.179	1089.23
617.628	1065.93
618.077	1044.03
618.526	1037.03
618.975	1026.63
619.424	1009.08
619.873	1000.28
620.322	1002.93
620.771	1001.68
621.22	972.13
621.669	956.48
622.118	943.03
622.567	936.08
623.015	915.68
623.464	913.48
623.913	906.83
624.361	909.48
624.81	892.53
625.259	904.28
625.707	900.23
626.156	903.58
626.604	917.28
627.053	920.28
627.501	927.28
627.95	929.83
628.398	942.83
628.847	923.48
629.295	931.28
629.744	919.83
630.192	896.13
630.64	878.33
631.089	869.93
631.537	836.43
631.985	828.63
632.433	829.08
632.881	816.68
633.33	824.43
633.778	813.03
634.226	829.68
634.674	836.13
635.122	843.78
635.57	858.03
636.018	869.18
636.466	867.68
636.914	865.23
637.362	877.73
637.81	886.83
638.258	923.13
638.705	927.33
639.153	963.28
639.601	970.13
640.049	979.23
640.497	1017.23
640.944	1045.18
641.392	989.23
641.84	908.58
642.287	845.28
642.735	822.78
643.182	804.38
643.63	798.93
644.078	790.38
644.525	792.83
644.973	795.48
645.42	801.38
645.867	799.33
646.315	801.48
646.762	800.68
647.21	796.73
647.657	814.73
648.104	794.78
648.551	766.88
648.999	762.68
649.446	770.38
649.893	753.53
650.34	762.78
650.787	789.53
651.234	818.33
651.682	872.58
652.129	968.18
652.576	1101.28
653.023	1258.68
653.47	1369.73
653.917	1424.68
654.363	1473.73
654.81	1542.08
655.257	1585.43
655.704	1254.58
656.151	973.68
656.598	852.33
657.044	786.83
657.491	768.33
657.938	749.58
658.385	737.03
658.831	729.53
659.278	728.83
659.724	724.73
660.171	716.38
660.618	692.28
661.064	677.23
661.511	687.38
661.957	694.58
662.404	688.98
662.85	703.23
663.296	705.43
663.743	707.63
664.189	713.53
664.635	713.38
665.082	709.53
665.528	709.53
665.974	691.28
666.42	682.43
666.867	682.53
667.313	644.43
667.759	635.18
668.205	640.98
668.651	644.03
669.097	653.38
669.543	653.33
669.989	666.78
670.435	653.13
670.881	670.23
671.327	701.33
671.773	758.48
672.219	828.58
672.665	887.78
673.11	927.88
673.556	945.03
674.002	982.88
674.448	1015.88
674.893	845.63
675.339	721.43
675.785	657.38
676.23	626.43
676.676	602.68
677.122	594.03
677.567	570.63
678.013	553.48
678.458	552.73
678.904	541.08
679.349	536.98
679.794	540.28
680.24	536.83
680.685	534.78
681.131	532.53
681.576	539.43
682.021	541.83
682.466	541.93
682.912	549.53
683.357	582.28
683.802	635.78
684.247	704.63
684.692	754.58
685.137	794.33
685.583	821.63
686.028	874.83
686.473	825.73
686.918	693.13
687.363	635.68
687.807	596.53
688.252	566.58
688.697	537.93
689.142	520.63
689.587	528.53
690.032	536.68
690.477	554.93
690.921	594.48
691.366	631.53
691.811	651.43
692.255	708.03
692.7	868.63
693.145	1241.23
693.589	1914.33
694.034	2329.03
694.478	2548.48
694.923	2396.93
695.367	3513.33
695.812	2065.38
696.256	828.68
696.701	590.83
697.145	539.93
697.59	516.08
698.034	512.33
698.478	505.93
698.922	511.43
699.367	524.23
699.811	550.88
700.255	603.98
700.699	665.38
701.143	733.83
701.588	774.33
702.032	816.58
702.476	837.13
702.92	876.63
703.364	1137.03
703.808	1756.58
704.252	2235.23
704.696	2439.03
705.14	2347.78
705.584	3327.48
706.027	1794.08
706.471	860.68
706.915	622.53
707.359	549.68
707.803	509.93
708.246	492.33
708.69	495.33
709.134	482.03
709.577	481.73
710.021	494.13
710.465	487.93
710.908	483.78
711.352	497.58
711.795	554.73
712.239	607.03
712.682	622.13
713.126	618.33
713.569	701.28
714.012	558.98
714.456	479.43
714.899	448.48
715.342	432.48
715.786	414.83
716.229	399.78
716.672	394.13
717.115	392.08
717.558	395.68
718.002	407.58
718.445	430.98
718.888	458.48
719.331	470.63
719.774	486.83
720.217	469.58
720.66	443.13
721.103	414.08
721.546	383.13
721.989	374.53
722.432	367.73
722.874	364.23
723.317	372.03
723.76	409.53
724.203	501.78
724.645	690.33
725.088	826.63
725.531	825.13
725.974	935.38
726.416	820.88
726.859	483.68
727.301	391.48
727.744	367.98
728.187	370.13
728.629	381.83
729.071	399.28
729.514	421.68
729.956	446.78
730.399	447.93
730.841	453.18
731.283	432.63
731.726	417.53
732.168	426.53
732.61	448.03
733.053	489.63
733.495	544.53
733.937	610.13
734.379	722.23
734.821	924.93
735.263	1452.18
735.705	2630.38
736.148	3970.83
736.59	4113.08
737.032	4629.18
737.474	3767.28
737.916	1377.78
738.357	701.73
738.799	533.83
739.241	486.78
739.683	487.58
740.125	499.73
740.567	503.63
741.008	545.78
741.45	563.58
741.892	593.43
742.334	603.88
742.775	604.38
743.217	566.28
743.658	474.38
744.1	477.83
744.542	546.33
744.983	576.73
745.425	613.18
745.866	598.98
746.307	499.78
746.749	536.78
747.19	774.88
747.632	1538.08
748.073	2877.13
748.514	4085.53
748.956	5612.28
749.397	6631.18
749.838	4564.43
750.279	4499.93
750.72	2247.78
751.162	915.23
751.603	516.23
752.044	407.78
752.485	360.78
752.926	335.23
753.367	325.83
753.808	312.18
754.249	303.78
754.69	303.98
755.131	296.83
755.572	292.53
756.013	292.63
756.453	291.68
756.894	301.38
757.335	303.93
757.776	309.48
758.216	318.83
758.657	339.48
759.098	375.48
759.538	452.03
759.979	657.48
760.42	1318.68
760.86	3410.53
761.301	7333.23
761.741	9008.53
762.182	10884.48
762.622	6863.53
763.063	2348.08
763.503	935.13
763.943	540.93
764.384	424.38
764.824	364.63
765.264	332.88
765.705	313.58
766.145	299.63
766.585	289.13
767.025	270.98
767.465	274.03
767.906	283.58
768.346	300.13
768.786	353.13
769.226	518.53
769.666	1060.88
770.106	2398.23
770.546	3581.58
770.986	4230.38
771.426	3212.73
771.866	1274.13
772.306	558.88
772.745	337.38
773.185	278.68
773.625	269.23
774.065	272.63
774.505	387.43
774.944	675.43
775.384	985.03
775.824	1159.63
776.263	973.93
776.703	509.23
777.142	294.48
777.582	223.23
778.021	206.38
778.461	198.58
778.9	200.93
779.34	189.03
779.779	184.28
780.219	177.53
780.658	176.78
781.097	172.53
781.537	172.08
781.976	169.93
782.415	169.18
782.855	170.43
783.294	170.03
783.733	166.33
784.172	167.23
784.611	172.83
785.05	177.43
785.489	182.58
785.928	180.68
786.367	187.03
786.806	201.63
787.245	223.98
787.684	223.48
788.123	222.63
788.562	212.13
789.001	202.68
789.44	200.18
789.879	198.43
790.317	199.78
790.756	212.38
791.195	243.93
791.634	333.13
792.072	608.63
792.511	1511.58
792.95	2897.53
793.388	3708.03
793.827	2410.63
794.265	1047.03
794.704	487.98
795.142	294.63
795.581	242.68
796.019	223.43
796.458	218.28
796.896	220.38
797.334	258.53
797.773	349.98
798.211	679.58
798.649	1447.78
799.087	2482.43
799.526	3521.08
799.964	3729.53
800.402	2607.48
800.84	1128.68
801.278	537.18
801.716	318.38
802.154	256.43
802.592	235.98
803.03	237.83
803.468	247.38
803.906	250.83
804.344	241.33
804.782	230.88
805.22	240.08
805.658	248.83
806.096	262.08
806.533	289.68
806.971	380.98
807.409	549.98
807.847	1103.78
808.284	2839.13
808.722	5210.43
809.16	7323.78
809.597	9773.78
810.035	12672.03
810.472	8328.98
810.91	3369.93
811.347	1483.48
811.785	695.68
812.222	430.93
812.66	329.53
813.097	272.93
813.535	241.53
813.972	215.58
814.409	200.03
814.846	190.93
815.284	180.33
815.721	187.78
816.158	195.58
816.595	262.13
817.032	335.53
817.47	313.93
817.907	225.33
818.344	192.43
818.781	187.73
819.218	231.03
819.655	348.13
820.092	461.68
820.529	422.13
820.966	329.33
821.403	227.33
821.839	194.38
822.276	211.63
822.713	262.78
823.15	244.53
823.587	255.58
824.023	460.83
824.46	1191.23
824.897	2186.98
825.333	1737.03
825.77	758.48
826.206	384.83
826.643	217.08
827.08	164.63
827.516	140.53
827.953	133.83
828.389	128.83
828.825	122.08
829.262	115.98
829.698	109.58
830.135	106.18
830.571	107.48
831.007	106.53
831.443	103.23
831.88	105.88
832.316	108.78
832.752	112.88
833.188	114.63
833.624	115.53
834.06	116.48
834.497	116.08
834.933	116.68
835.369	127.98
835.805	140.28
836.241	141.58
836.677	163.63
837.112	186.93
837.548	227.23
837.984	344.08
838.42	736.63
838.856	2089.23
839.292	4327.48
839.727	3245.28
840.163	2066.18
840.599	3137.28
841.034	5097.08
841.47	2543.18
841.906	1179.13
842.341	603.88
842.777	435.13
843.212	447.13
843.648	276.48
844.083	188.73
844.519	142.18
844.954	119.43
845.39	103.28
845.825	101.38
846.261	103.23
846.696	96.48
847.131	93.98
847.566	97.38
848.002	102.88
848.437	103.23
848.872	106.63
849.307	138.68
849.742	251.18
850.177	685.33
850.613	1537.13
851.048	1129.33
851.483	489.33
851.918	260.58
852.353	140.33
852.788	100.68
853.223	90.93
853.657	78.23
854.092	81.48
854.527	80.83
854.962	81.48
855.397	89.63
855.832	75.58
856.266	72.68
856.701	72.98
857.136	74.28
857.57	86.03
858.005	106.73
858.44	90.23
858.874	86.68
859.309	91.43
859.743	87.38
860.178	81.48
860.612	93.38
861.047	122.73
861.481	172.83
861.915	118.88
862.35	84.78
862.784	66.18
863.218	67.13
863.653	71.53
864.087	89.68
864.521	109.98
864.955	197.93
865.39	357.98
865.824	255.38
866.258	310.18
866.692	483.53
867.126	353.23
867.56	182.63
867.994	116.83
868.428	100.28
868.862	122.33
869.296	116.98
869.73	142.53
870.164	119.48
870.598	103.58
871.031	76.53
871.465	69.53
871.899	54.53
872.333	45.68
872.766	52.93
873.2	46.33
873.634	52.23
874.067	54.63
874.501	51.03
874.935	52.83
875.368	53.83
875.802	52.43
876.235	44.68
876.669	43.88
877.102	39.33
877.535	41.23
877.969	40.58
878.402	43.98
878.836	39.28
879.269	36.23
879.702	39.43
880.135	45.63
880.569	40.73
881.002	37.48
881.435	40.18
881.868	42.83
882.301	33.88
882.734	33.88
883.167	37.93
883.601	33.28
884.034	34.18
884.467	31.48
884.899	35.48
885.332	26.38
885.765	31.03
886.198	27.88
886.631	30.43
887.064	31.53
887.497	32.18
887.929	31.68
888.362	31.48
888.795	29.98
889.228	34.73
889.66	30.78
890.093	30.38
890.526	30.03
890.958	29.23
891.391	32.73
891.823	27.93
892.256	30.08
892.688	32.98
893.121	25.58
893.553	34.23
893.985	26.13
894.418	24.03
894.85	30.53
895.282	28.78
895.715	27.08
896.147	27.28
896.579	25.68
897.011	31.33
897.444	31.03
897.876	19.33
898.308	29.13
898.74	27.03
899.172	25.08
899.604	30.58
900.036	31.98
900.468	18.93
900.9	30.98
901.332	38.48
901.764	41.78
902.196	37.78
902.628	34.73
903.06	52.53
903.491	58.58
903.923	47.58
904.355	51.93
904.787	51.63
905.218	42.33
905.65	35.28
906.082	36.63
906.513	34.58
906.945	35.48
907.376	33.13
907.808	36.03
908.239	35.33
908.671	43.23
909.102	47.08
909.534	69.13
909.965	134.93
910.397	346.78
910.828	1050.53
911.259	642.63
911.691	324.98
912.122	189.98
912.553	94.13
912.984	49.23
913.415	44.48
913.847	36.08
914.278	31.58
914.709	33.13
915.14	28.78
915.571	33.13
916.002	31.58
916.433	29.88
916.864	31.13
917.295	32.98
917.726	31.53
918.157	43.18
918.587	42.08
919.018	42.28
919.449	39.73
919.88	48.43
920.311	76.28
920.741	213.03
921.172	392.18
921.603	185.43
922.033	112.38
922.464	74.03
922.895	44.38
923.325	28.53
923.756	29.43
924.186	34.23
924.617	50.13
925.047	73.63
925.478	63.38
925.908	44.98
926.338	35.78
926.769	23.48
927.199	28.78
927.629	28.48
928.06	30.88
928.49	29.73
928.92	26.73
929.35	21.08
929.78	16.28
930.21	17.43
930.641	12.18
931.071	15.68
931.501	13.23
931.931	9.58
932.361	15.18
932.791	17.08
933.221	19.03
933.651	26.78
934.08	44.78
934.51	27.88
934.94	21.88
935.37	18.48
935.8	16.28
936.229	13.43
936.659	16.18
937.089	29.53
937.519	37.28
937.948	52.23
938.378	38.08
938.807	16.08
939.237	11.18
939.666	12.83
940.096	9.18
940.525	4.93
940.955	11.08
941.384	4.88
941.814	5.98
942.243	5.03
942.672	6.48
943.102	4.53
943.531	4.63
943.96	2.83
944.39	4.93
944.819	11.78
945.248	5.33
945.677	9.43
946.106	9.73
946.535	6.18
946.964	5.28
947.393	4.93
947.822	1.88
948.251	10.38
948.68	7.53
949.109	5.83
949.538	7.63
949.967	1.83
950.396	4.18
950.825	8.78
951.254	7.03
951.682	0.98
952.111	2.43
952.54	4.13
952.969	5.78
953.397	-1.67
953.826	6.83
954.254	7.38
954.683	5.58
955.112	7.28
955.54	6.78
955.969	5.78
956.397	4.43
956.826	1.63
957.254	0.03
957.682	4.53
958.111	10.48
958.539	6.63
958.967	4.98
959.396	9.63
959.824	5.43
960.252	5.38
960.68	8.33
961.109	10.08
961.537	9.33
961.965	-0.27
962.393	3.98
962.821	5.48
963.249	7.38
963.677	12.18
964.105	65.98
964.533	112.63
964.961	52.23
965.389	28.78
965.817	13.03
966.245	6.33
966.672	3.03
967.1	4.68
967.528	0.73
967.956	6.08
968.383	7.73
968.811	4.33
969.239	3.98
969.666	2.28
970.094	5.18
970.522	-0.07
970.949	6.93
971.377	0.13
971.804	3.48
972.232	0.18
972.659	2.73
973.087	5.53
973.514	-0.02
973.941	0.93
974.369	1.18
974.796	2.08
975.223	0.63
975.651	0.88
976.078	5.53
976.505	7.28
976.932	26.18
977.359	31.43
977.786	16.53
978.214	17.03
978.641	3.68
979.068	4.28
979.495	0.38
979.922	1.38
980.349	0.48
980.776	4.68
981.202	3.98
981.629	7.28
982.056	2.38
982.483	-0.62
982.91	8.78
983.337	1.93
983.763	2.73
984.19	6.48
984.617	3.23
985.043	3.13
985.47	4.03
985.897	1.03
986.323	5.63
986.75	-0.72
987.176	0.43
987.603	3.68
988.029	1.68
988.456	5.78
988.882	2.48
989.308	0.13
989.735	1.18
990.161	6.73
990.587	4.03
991.014	0.58
991.44	3.98
991.866	1.83
992.292	-1.02
992.719	-0.27
993.145	5.63
993.571	-0.02
993.997	0.48
994.423	5.93
994.849	-4.02
995.275	3.53
995.701	3.33
996.127	-5.67
996.553	2.28
996.979	-0.62
997.405	1.73
997.83	3.53
998.256	-0.12
998.682	3.73
999.108	4.13
999.534	-0.22
999.959	0.13
1000.385	7.63
1000.811	-1.62
1001.236	-7.37
1001.662	-0.32
1002.087	10.88
1002.513	1.98
1002.938	3.73
1003.364	2.53
1003.789	4.23
1004.215	4.98
1004.64	0.88
1005.066	4.78
1005.491	7.98
1005.916	2.43
1006.342	-1.12
1006.767	0.18
1007.192	3.68
1007.617	2.18
1008.042	1.73
1008.468	1.08
1008.893	4.28
1009.318	4.98
1009.743	8.08
1010.168	18.28
1010.593	16.08
1011.018	9.33
1011.443	6.13
1011.868	6.23
1012.293	0.88
1012.718	-1.32
1013.143	-1.22
1013.567	4.48
1013.992	2.93
1014.417	2.73
1014.842	-0.02
1015.267	1.93
1015.691	6.03
1016.116	-0.32
1016.541	1.03
1016.965	-0.12
1017.39	4.08
1017.814	-1.17
1018.239	-0.77
1018.663	-4.02
1019.088	-2.42
1019.512	3.83
1019.937	-2.67
1020.361	-0.82
1020.785	-1.27
1021.21	-2.97
1021.634	0.18
1022.058	-0.57
1022.483	-3.52
1022.907	-4.77
1023.331	-0.42
1023.755	-4.62
1024.179	-2.42
1024.604	-1.72
1025.028	2.23
1025.452	1.68
1025.876	6.18
1026.3	0.93
1026.724	-2.92
1027.148	-0.27
1027.572	-0.02
1027.996	2.03
1028.42	2.48
1028.843	2.28
1029.267	4.13
1029.691	0.28
1030.115	0.43
1030.539	-0.02
1030.962	1.58
1031.386	1.38
1031.81	-0.22
1032.233	0.78
1032.657	-6.72
1033.08	-2.12
1033.504	-5.47
1033.927	-4.02
1034.351	-3.47
1034.774	-1.67
1035.198	-5.17
1035.621	-0.57
1036.045	-1.67
1036.468	3.98
1036.891	2.08
1037.315	4.78
1037.738	0.43
1038.161	-1.52
1038.584	-0.62
1039.008	-3.47
1039.431	2.13
1039.854	-6.02
1040.277	5.88
1040.7	-2.82
1041.123	-3.12
1041.546	-1.92
1041.969	5.33
1042.392	3.23
1042.815	-7.27
1043.238	-1.82
1043.661	-1.02
1044.084	-2.22
1044.507	-2.67
1044.93	-0.97
1045.352	-2.42
1045.775	-3.52
1046.198	5.43
1046.621	2.13
1047.043	0.28
1047.466	1.73
1047.889	-1.47
1048.311	4.58
1048.734	-4.22
1049.156	1.98
1049.579	-3.07
1050.001	-4.97
1050.424	-0.37
1050.846	-2.57
1051.269	-5.82
1051.691	-0.62
1052.113	3.33
1052.536	-5.87
1052.958	-3.47
1053.38	1.48
1053.802	0.08
1054.225	2.73
1054.647	6.83
1055.069	-0.42
1055.491	1.23
1055.913	4.98
1056.335	-6.77
1056.757	-3.72
1057.179	-2.02
1057.601	-6.52
1058.023	-2.12
1058.445	-4.77
1058.867	0.43
1059.289	-0.37
1059.711	-1.12
1060.133	1.13
1060.555	-4.72
1060.976	0.13
1061.398	1.93
1061.82	0.48
1062.241	-5.62
1062.663	0.63
1063.085	-7.17
1063.506	-7.92
1063.928	-2.02
1064.35	-1.52
1064.771	-0.82
1065.193	-5.97
1065.614	-3.07
1066.035	2.93
1066.457	3.68
1066.878	0.18
1067.3	0.78
1067.721	-0.17
1068.142	3.63
1068.564	-2.57
1068.985	-2.82
1069.406	-4.57
1069.827	0.08
1070.248	-2.67
1070.67	-4.57
1071.091	-4.82
1071.512	-5.17
1071.933	-5.72
1072.354	-9.07
1072.775	-5.27
1073.196	0.43
1073.617	-3.62
1074.038	-2.82
1074.459	-4.77
1074.88	-3.82
1075.3	-0.92
1075.721	-3.72
1076.142	-5.22
1076.563	-9.22
1076.983	-2.77
1077.404	-8.42
1077.825	2.48
1078.246	-3.42
1078.666	-3.87
1079.087	-5.17
1079.507	-5.57
1079.928	1.13
1080.348	-2.57
1080.769	-2.42
1081.189	-0.12
1081.61	-6.67
1082.03	2.58
1082.451	-0.12
1082.871	-3.02
1083.291	-3.07
1083.711	-3.52
1084.132	-2.02
1084.552	-8.57
1084.972	-6.67
1085.392	-3.12
1085.813	1.23
1086.233	-3.72
1086.653	-2.72
1087.073	-3.67
1087.493	-2.42
1087.913	-4.87
1088.333	-4.82
1088.753	-1.52
1089.173	3.98
1089.593	3.38
1090.013	-4.87
1090.433	-5.27
1090.852	1.48
1091.272	-7.47
1091.692	-2.22
1092.112	-2.97
1092.531	-6.22
1092.951	-0.67
1093.371	-0.87
1093.79	-4.32
1094.21	-6.92
1094.63	1.98
1095.049	-2.62
1095.469	-9.67
1095.888	-0.22
1096.308	1.28
1096.727	-4.02
1097.146	-3.62
1097.566	1.68
1097.985	-0.92
1098.405	-1.77
1098.824	0.88
1099.243	-5.02
1099.662	-3.37
1100.082	-3.07
1100.501	-5.62
1100.92	3.98
1101.339	-3.22
1101.758	1.58
