Data from MSPlasma+Separation6_Subt14_10-12-49-770.txt Node
Date: Fri Jul 21 10:12:49 EDT 2017
User: Ender
Spectrometer: HR+D1039
Trigger mode: 0
Integration Time (sec): 6.430000E-3
Scans to average: 20
Electric dark correction enabled: true
Nonlinearity correction enabled: false
Boxcar width: 0
XAxis mode: Wavelengths
Number of Pixels in Spectrum: 2048
>>>>>Begin Spectral Data<<<<<
187.836	0.63
188.309	0.63
188.782	0.63
189.255	3.83
189.728	4.73
190.201	-1.42
190.674	-0.27
191.147	-2.42
191.619	-2.82
192.092	-2.87
192.565	-0.72
193.038	1.88
193.511	4.83
193.984	0.63
194.456	-2.22
194.929	-3.42
195.402	-4.27
195.874	3.93
196.347	5.78
196.82	-2.67
197.292	-4.67
197.765	-3.47
198.237	-3.12
198.71	-5.52
199.182	1.33
199.655	4.73
200.127	2.28
200.6	0.08
201.072	3.88
201.544	-4.52
202.017	0.68
202.489	0.68
202.961	-3.02
203.433	-4.62
203.906	-5.67
204.378	-0.32
204.85	0.33
205.322	0.28
205.794	-0.87
206.266	-2.87
206.739	3.78
207.211	-3.52
207.683	-1.22
208.155	2.93
208.627	-1.72
209.099	3.68
209.57	-1.82
210.042	0.53
210.514	-2.07
210.986	-0.47
211.458	-2.42
211.93	-1.22
212.402	0.78
212.873	-0.27
213.345	-5.82
213.817	1.38
214.288	-3.72
214.76	0.63
215.232	-1.02
215.703	-0.87
216.175	1.08
216.646	-1.62
217.118	-4.42
217.589	-3.07
218.061	-4.32
218.532	-1.92
219.004	2.48
219.475	1.23
219.946	1.18
220.418	4.93
220.889	2.38
221.36	1.83
221.832	6.03
222.303	-0.57
222.774	-0.52
223.245	-5.22
223.717	-1.12
224.188	3.78
224.659	2.88
225.13	-0.57
225.601	1.83
226.072	3.83
226.543	2.98
227.014	-0.97
227.485	4.03
227.956	1.78
228.427	9.28
228.898	6.28
229.369	-1.37
229.839	-1.22
230.31	4.73
230.781	0.28
231.252	6.93
231.722	4.13
232.193	4.28
232.664	7.78
233.135	3.58
233.605	6.13
234.076	9.48
234.546	7.28
235.017	6.13
235.487	10.63
235.958	8.78
236.428	14.73
236.899	5.48
237.369	8.88
237.84	7.63
238.31	6.63
238.78	7.08
239.251	7.03
239.721	3.83
240.191	7.78
240.662	6.83
241.132	10.08
241.602	9.78
242.072	9.08
242.542	4.83
243.013	6.08
243.483	7.53
243.953	8.03
244.423	7.38
244.893	7.68
245.363	15.78
245.833	10.73
246.303	9.68
246.773	14.43
247.243	11.73
247.712	15.98
248.182	12.18
248.652	15.48
249.122	9.83
249.592	9.88
250.061	13.68
250.531	14.93
251.001	14.93
251.471	20.53
251.94	15.43
252.41	14.53
252.879	13.83
253.349	23.63
253.818	18.13
254.288	19.63
254.757	15.53
255.227	21.03
255.696	17.93
256.166	21.73
256.635	22.78
257.105	15.08
257.574	19.83
258.043	19.53
258.513	23.43
258.982	20.58
259.451	22.63
259.92	17.13
260.389	18.68
260.859	21.83
261.328	18.68
261.797	22.18
262.266	25.58
262.735	25.23
263.204	18.58
263.673	23.58
264.142	20.63
264.611	25.68
265.08	26.73
265.549	20.23
266.018	20.33
266.487	23.43
266.955	26.48
267.424	31.58
267.893	34.78
268.362	26.23
268.83	25.88
269.299	27.93
269.768	27.68
270.236	28.78
270.705	31.78
271.174	30.18
271.642	26.38
272.111	27.43
272.579	32.63
273.048	28.03
273.516	30.83
273.985	31.53
274.453	31.83
274.922	31.48
275.39	31.58
275.858	35.18
276.327	33.33
276.795	33.53
277.263	29.88
277.731	35.93
278.2	39.73
278.668	35.38
279.136	41.38
279.604	32.98
280.072	33.58
280.54	35.78
281.008	43.23
281.477	38.23
281.945	37.98
282.413	37.18
282.881	35.48
283.348	34.38
283.816	44.28
284.284	48.33
284.752	43.53
285.22	43.58
285.688	46.33
286.156	43.08
286.623	46.83
287.091	41.28
287.559	50.73
288.026	43.28
288.494	46.33
288.962	43.43
289.429	44.68
289.897	46.98
290.364	43.73
290.832	44.78
291.3	47.63
291.767	51.23
292.234	50.68
292.702	47.93
293.169	47.73
293.637	49.88
294.104	51.93
294.571	50.88
295.039	51.98
295.506	51.48
295.973	54.43
296.44	49.63
296.908	59.93
297.375	53.38
297.842	57.03
298.309	50.93
298.776	53.28
299.243	60.48
299.71	54.83
300.177	62.58
300.644	59.88
301.111	60.98
301.578	64.18
302.045	59.73
302.512	60.48
302.979	66.03
303.446	64.68
303.913	65.88
304.379	70.58
304.846	69.58
305.313	74.83
305.78	71.93
306.246	67.78
306.713	73.33
307.18	72.33
307.646	75.13
308.113	72.23
308.579	78.48
309.046	77.03
309.512	78.23
309.979	81.48
310.445	74.43
310.912	80.98
311.378	82.08
311.845	90.68
312.311	79.68
312.777	81.38
313.244	87.58
313.71	83.83
314.176	90.68
314.642	86.83
315.109	87.73
315.575	86.08
316.041	85.73
316.507	85.28
316.973	96.98
317.439	91.48
317.905	92.48
318.371	87.68
318.837	89.73
319.303	95.23
319.769	91.63
320.235	94.23
320.701	96.08
321.167	96.43
321.633	96.88
322.099	95.33
322.564	99.08
323.03	99.33
323.496	96.93
323.962	100.33
324.427	106.73
324.893	105.38
325.359	110.93
325.824	110.83
326.29	110.63
326.755	105.13
327.221	106.13
327.686	116.98
328.152	115.78
328.617	117.68
329.083	116.53
329.548	117.03
330.014	114.78
330.479	117.23
330.944	119.53
331.41	124.58
331.875	115.23
332.34	121.38
332.805	125.08
333.271	122.78
333.736	124.98
334.201	122.73
334.666	133.13
335.131	130.03
335.596	130.58
336.061	124.78
336.526	127.73
336.991	124.18
337.456	129.63
337.921	122.98
338.386	128.58
338.851	127.83
339.316	126.98
339.781	122.28
340.246	127.83
340.711	129.03
341.175	130.03
341.64	133.48
342.105	140.13
342.569	149.53
343.034	141.38
343.499	144.33
343.963	146.43
344.428	149.98
344.893	145.13
345.357	154.23
345.822	150.58
346.286	153.38
346.751	154.18
347.215	160.28
347.679	164.03
348.144	178.03
348.608	178.48
349.073	181.73
349.537	182.83
350.001	176.08
350.465	184.58
350.93	182.08
351.394	184.98
351.858	181.78
352.322	189.13
352.786	183.58
353.25	185.83
353.715	190.33
354.179	202.48
354.643	207.78
355.107	207.88
355.571	199.68
356.035	203.63
356.498	202.88
356.962	201.98
357.426	198.63
357.89	197.68
358.354	196.23
358.818	189.38
359.281	195.78
359.745	199.48
360.209	194.33
360.673	195.43
361.136	197.38
361.6	196.03
362.064	202.53
362.527	212.03
362.991	205.38
363.454	205.68
363.918	212.33
364.381	211.23
364.845	210.83
365.308	213.93
365.772	216.43
366.235	212.38
366.698	210.73
367.162	209.18
367.625	217.08
368.088	222.23
368.552	222.13
369.015	221.28
369.478	218.13
369.941	216.38
370.404	225.33
370.867	216.33
371.331	224.18
371.794	234.38
372.257	228.28
372.72	226.23
373.183	230.38
373.646	237.03
374.109	237.88
374.572	240.53
375.035	244.28
375.497	236.73
375.96	244.18
376.423	247.58
376.886	247.53
377.349	250.53
377.811	252.93
378.274	255.73
378.737	252.68
379.199	255.83
379.662	254.63
380.125	259.83
380.587	264.78
381.05	273.23
381.512	270.68
381.975	280.93
382.437	285.28
382.9	278.38
383.362	281.43
383.825	285.13
384.287	282.53
384.75	280.83
385.212	282.28
385.674	289.63
386.136	298.28
386.599	299.73
387.061	287.93
387.523	300.18
387.985	295.38
388.447	301.13
388.91	302.93
389.372	306.33
389.834	298.03
390.296	294.93
390.758	297.28
391.22	291.83
391.682	300.98
392.144	299.58
392.606	305.23
393.068	313.28
393.529	332.68
393.991	338.43
394.453	322.33
394.915	306.88
395.377	299.38
395.838	306.88
396.3	314.28
396.762	308.88
397.224	311.93
397.685	316.38
398.147	316.68
398.608	320.88
399.07	323.43
399.531	325.53
399.993	327.78
400.454	337.58
400.916	332.38
401.377	342.53
401.839	349.58
402.3	346.38
402.762	367.73
403.223	394.78
403.684	391.68
404.145	366.73
404.607	358.38
405.068	347.08
405.529	349.03
405.99	353.73
406.451	355.53
406.913	350.08
407.374	354.23
407.835	352.18
408.296	365.28
408.757	362.38
409.218	376.58
409.679	385.43
410.14	385.48
410.601	400.33
411.062	410.08
411.522	410.73
411.983	414.18
412.444	419.23
412.905	426.98
413.366	450.18
413.826	469.08
414.287	546.28
414.748	665.53
415.208	676.53
415.669	555.93
416.13	502.73
416.59	490.18
417.051	516.73
417.511	535.23
417.972	585.53
418.432	638.38
418.893	710.08
419.353	679.28
419.814	513.83
420.274	448.58
420.734	441.13
421.195	448.28
421.655	454.88
422.115	459.53
422.576	456.18
423.036	460.88
423.496	474.28
423.956	492.23
424.416	528.33
424.876	598.78
425.336	588.33
425.797	569.98
426.257	557.03
426.717	514.78
427.177	464.63
427.637	458.18
428.097	463.88
428.556	483.88
429.016	521.48
429.476	503.73
429.936	489.23
430.396	471.53
430.856	481.93
431.315	486.58
431.775	519.48
432.235	571.18
432.694	590.63
433.154	533.63
433.614	519.93
434.073	509.18
434.533	468.18
434.993	455.38
435.452	472.18
435.912	468.93
436.371	482.63
436.83	478.73
437.29	472.13
437.749	465.93
438.209	471.63
438.668	479.63
439.127	497.63
439.587	496.43
440.046	487.08
440.505	497.08
440.964	501.43
441.424	514.88
441.883	528.23
442.342	505.48
442.801	487.28
443.26	497.58
443.719	492.43
444.178	495.58
444.637	501.38
445.096	504.53
445.555	504.03
446.014	506.83
446.473	508.28
446.932	508.53
447.391	516.43
447.849	518.38
448.308	521.33
448.767	530.53
449.226	531.83
449.685	541.73
450.143	567.93
450.602	562.58
451.061	530.33
451.519	532.03
451.978	513.03
452.436	525.13
452.895	530.43
453.353	527.73
453.812	519.63
454.27	518.73
454.729	526.33
455.187	524.58
455.646	523.48
456.104	527.33
456.562	538.18
457.021	545.28
457.479	527.88
457.937	535.98
458.395	560.53
458.854	550.63
459.312	536.63
459.77	534.98
460.228	554.38
460.686	557.48
461.144	559.08
461.602	551.73
462.06	553.38
462.518	567.28
462.976	566.68
463.434	571.98
463.892	577.58
464.35	590.03
464.808	598.33
465.266	603.73
465.724	610.48
466.181	604.33
466.639	609.83
467.097	638.78
467.555	660.83
468.012	647.63
468.47	658.28
468.928	670.78
469.385	689.23
469.843	696.58
470.3	691.48
470.758	708.13
471.215	715.03
471.673	726.18
472.13	734.93
472.588	756.78
473.045	748.63
473.503	753.78
473.96	792.68
474.417	798.03
474.875	823.73
475.332	845.18
475.789	840.68
476.246	862.93
476.704	880.68
477.161	886.83
477.618	884.43
478.075	906.03
478.532	929.58
478.989	957.93
479.446	1008.33
479.903	991.53
480.36	1013.83
480.817	1010.43
481.274	1017.53
481.731	1059.53
482.188	1069.23
482.645	1085.43
483.102	1097.33
483.558	1140.78
484.015	1148.33
484.472	1152.23
484.929	1165.78
485.385	1160.63
485.842	1160.58
486.299	1171.18
486.755	1165.73
487.212	1138.68
487.668	1120.38
488.125	1115.43
488.582	1102.83
489.038	1115.48
489.494	1121.18
489.951	1122.03
490.407	1122.93
490.864	1131.88
491.32	1124.38
491.776	1136.78
492.233	1146.28
492.689	1146.58
493.145	1129.73
493.602	1130.83
494.058	1146.48
494.514	1161.58
494.97	1167.23
495.426	1180.93
495.882	1183.38
496.338	1188.08
496.794	1201.18
497.251	1198.33
497.707	1213.33
498.163	1221.58
498.618	1219.88
499.074	1218.53
499.53	1233.33
499.986	1239.83
500.442	1239.13
500.898	1221.48
501.354	1239.93
501.809	1241.53
502.265	1240.98
502.721	1245.73
503.177	1254.28
503.632	1259.28
504.088	1263.43
504.543	1286.18
504.999	1288.73
505.455	1275.58
505.91	1278.18
506.366	1285.43
506.821	1284.18
507.277	1273.88
507.732	1286.48
508.187	1278.63
508.643	1302.68
509.098	1291.38
509.553	1302.78
510.009	1325.98
510.464	1357.88
510.919	1365.78
511.375	1381.13
511.83	1388.73
512.285	1415.23
512.74	1444.08
513.195	1464.38
513.65	1488.28
514.105	1512.03
514.56	1513.13
515.015	1545.28
515.47	1548.38
515.925	1529.83
516.38	1536.23
516.835	1542.13
517.29	1532.03
517.745	1535.03
518.2	1513.88
518.655	1473.83
519.109	1453.88
519.564	1432.88
520.019	1426.23
520.474	1411.73
520.928	1406.48
521.383	1391.18
521.838	1391.38
522.292	1379.63
522.747	1354.23
523.201	1365.43
523.656	1338.33
524.11	1340.68
524.565	1324.63
525.019	1333.63
525.474	1327.93
525.928	1324.03
526.382	1331.68
526.837	1326.98
527.291	1332.28
527.745	1313.88
528.2	1316.78
528.654	1306.48
529.108	1305.28
529.562	1308.33
530.016	1295.28
530.47	1302.08
530.925	1305.88
531.379	1297.83
531.833	1320.33
532.287	1311.18
532.741	1303.53
533.195	1301.33
533.649	1308.33
534.103	1313.18
534.556	1300.48
535.01	1309.93
535.464	1303.33
535.918	1292.43
536.372	1315.48
536.826	1310.28
537.279	1304.33
537.733	1302.58
538.187	1304.03
538.64	1305.58
539.094	1319.03
539.548	1338.83
540.001	1334.33
540.455	1338.63
540.908	1349.43
541.362	1364.63
541.815	1368.98
542.269	1405.13
542.722	1397.73
543.175	1406.93
543.629	1415.83
544.082	1438.93
544.536	1453.78
544.989	1458.58
545.442	1466.03
545.895	1459.43
546.349	1462.88
546.802	1463.63
547.255	1468.13
547.708	1480.93
548.161	1487.23
548.614	1494.43
549.067	1505.88
549.52	1498.78
549.973	1469.03
550.426	1462.48
550.879	1446.48
551.332	1449.58
551.785	1471.68
552.238	1482.38
552.691	1484.38
553.144	1508.98
553.596	1533.48
554.049	1549.53
554.502	1587.83
554.955	1623.23
555.407	1635.93
555.86	1614.58
556.313	1604.58
556.765	1577.53
557.218	1554.33
557.67	1554.08
558.123	1521.68
558.576	1525.83
559.028	1529.78
559.48	1555.53
559.933	1544.63
560.385	1476.78
560.838	1434.38
561.29	1380.18
561.742	1371.98
562.195	1344.68
562.647	1335.13
563.099	1332.33
563.551	1324.08
564.004	1348.08
564.456	1325.83
564.908	1298.18
565.36	1271.38
565.812	1245.48
566.264	1218.58
566.716	1208.18
567.168	1189.43
567.62	1194.78
568.072	1176.03
568.524	1167.98
568.976	1163.33
569.428	1158.73
569.88	1154.98
570.332	1168.88
570.784	1164.63
571.235	1163.73
571.687	1174.83
572.139	1179.38
572.59	1193.48
573.042	1200.03
573.494	1187.23
573.945	1173.13
574.397	1144.28
574.849	1138.43
575.3	1153.13
575.752	1130.08
576.203	1119.38
576.655	1129.23
577.106	1104.48
577.557	1102.48
578.009	1097.18
578.46	1099.93
578.912	1088.18
579.363	1099.88
579.814	1083.63
580.265	1080.38
580.717	1096.23
581.168	1094.53
581.619	1100.13
582.07	1111.23
582.521	1095.68
582.972	1104.08
583.423	1097.38
583.875	1109.23
584.326	1121.03
584.777	1127.33
585.227	1153.93
585.678	1168.88
586.129	1179.43
586.58	1193.08
587.031	1212.63
587.482	1245.13
587.933	1268.73
588.384	1267.38
588.834	1263.08
589.285	1248.88
589.736	1249.73
590.186	1242.38
590.637	1233.53
591.088	1202.58
591.538	1182.73
591.989	1168.68
592.439	1145.23
592.89	1132.58
593.34	1124.53
593.791	1120.73
594.241	1113.18
594.692	1111.48
595.142	1109.73
595.593	1099.83
596.043	1116.68
596.493	1124.08
596.943	1127.83
597.394	1154.98
597.844	1173.08
598.294	1202.93
598.744	1245.33
599.195	1307.73
599.645	1389.38
600.095	1472.28
600.545	1549.68
600.995	1621.13
601.445	1684.43
601.895	1766.38
602.345	1821.13
602.795	1801.28
603.245	1717.93
603.695	1609.28
604.145	1510.28
604.594	1432.98
605.044	1355.43
605.494	1259.18
605.944	1185.28
606.393	1154.93
606.843	1133.18
607.293	1132.93
607.743	1127.08
608.192	1144.63
608.642	1148.23
609.091	1136.28
609.541	1148.48
609.99	1141.38
610.44	1110.33
610.889	1095.08
611.339	1087.18
611.788	1073.13
612.238	1078.43
612.687	1069.08
613.136	1083.08
613.586	1097.38
614.035	1087.88
614.484	1105.23
614.933	1100.33
615.383	1075.33
615.832	1049.13
616.281	1040.48
616.73	1017.43
617.179	1000.23
617.628	971.48
618.077	959.18
618.526	938.28
618.975	946.73
619.424	925.18
619.873	923.53
620.322	920.48
620.771	916.73
621.22	900.53
621.669	881.93
622.118	863.58
622.567	857.73
623.015	833.33
623.464	840.18
623.913	824.43
624.361	822.98
624.81	821.28
625.259	826.98
625.707	826.73
626.156	833.43
626.604	842.03
627.053	848.33
627.501	843.03
627.95	848.03
628.398	868.18
628.847	850.08
629.295	845.58
629.744	840.68
630.192	825.58
630.64	809.43
631.089	798.33
631.537	768.28
631.985	758.98
632.433	761.08
632.881	754.08
633.33	766.13
633.778	754.38
634.226	763.38
634.674	763.53
635.122	772.83
635.57	781.73
636.018	793.13
636.466	782.13
636.914	783.63
637.362	803.28
637.81	818.78
638.258	836.58
638.705	852.28
639.153	873.93
639.601	885.08
640.049	897.23
640.497	929.63
640.944	949.93
641.392	902.18
641.84	822.73
642.287	779.43
642.735	755.28
643.182	736.23
643.63	737.03
644.078	721.33
644.525	721.23
644.973	736.13
645.42	734.23
645.867	739.93
646.315	733.08
646.762	738.28
647.21	737.53
647.657	744.63
648.104	740.43
648.551	704.18
648.999	703.58
649.446	693.03
649.893	692.73
650.34	703.93
650.787	722.48
651.234	747.23
651.682	808.68
652.129	878.43
652.576	1007.23
653.023	1172.83
653.47	1256.23
653.917	1307.68
654.363	1342.23
654.81	1408.23
655.257	1437.23
655.704	1144.38
656.151	890.08
656.598	771.43
657.044	722.18
657.491	707.48
657.938	688.83
658.385	664.48
658.831	678.23
659.278	666.93
659.724	658.68
660.171	657.63
660.618	641.03
661.064	623.48
661.511	629.23
661.957	628.93
662.404	636.88
662.85	645.58
663.296	652.68
663.743	645.88
664.189	655.68
664.635	656.03
665.082	642.48
665.528	644.83
665.974	631.03
666.42	633.23
666.867	623.03
667.313	592.63
667.759	589.13
668.205	580.33
668.651	591.83
669.097	600.23
669.543	595.03
669.989	610.68
670.435	614.63
670.881	615.88
671.327	649.53
671.773	699.48
672.219	761.93
672.665	818.73
673.11	851.33
673.556	867.68
674.002	896.33
674.448	917.13
674.893	765.73
675.339	666.23
675.785	605.13
676.23	576.13
676.676	546.73
677.122	534.38
677.567	524.78
678.013	501.63
678.458	503.58
678.904	502.68
679.349	494.98
679.794	493.38
680.24	496.33
680.685	484.63
681.131	494.88
681.576	496.03
682.021	501.93
682.466	505.18
682.912	505.63
683.357	531.98
683.802	589.93
684.247	646.83
684.692	689.28
685.137	726.58
685.583	745.28
686.028	787.03
686.473	753.68
686.918	631.73
687.363	584.08
687.807	545.78
688.252	518.73
688.697	499.88
689.142	476.13
689.587	481.68
690.032	492.98
690.477	512.73
690.921	544.33
691.366	568.48
691.811	597.48
692.255	658.43
692.7	799.38
693.145	1151.98
693.589	1778.53
694.034	2154.18
694.478	2334.08
694.923	2154.08
695.367	3128.98
695.812	1873.28
696.256	761.33
696.701	538.93
697.145	499.93
697.59	472.98
698.034	467.08
698.478	465.83
698.922	472.48
699.367	478.88
699.811	505.43
700.255	554.63
700.699	607.43
701.143	673.78
701.588	705.48
702.032	746.23
702.476	769.58
702.92	805.43
703.364	1045.73
703.808	1626.48
704.252	2070.13
704.696	2225.63
705.14	2126.93
705.584	2974.13
706.027	1621.33
706.471	782.63
706.915	571.98
707.359	497.13
707.803	467.53
708.246	445.03
708.69	451.58
709.134	444.03
709.577	440.83
710.021	448.38
710.465	452.48
710.908	438.18
711.352	456.58
711.795	505.83
712.239	555.73
712.682	570.08
713.126	562.83
713.569	632.43
714.012	508.03
714.456	436.48
714.899	414.78
715.342	390.58
715.786	373.63
716.229	369.38
716.672	359.38
717.115	363.78
717.558	366.68
718.002	374.93
718.445	391.53
718.888	417.03
719.331	429.43
719.774	433.88
720.217	431.23
720.66	402.88
721.103	379.23
721.546	360.98
721.989	346.08
722.432	340.18
722.874	334.43
723.317	345.78
723.76	373.83
724.203	469.18
724.645	634.48
725.088	760.28
725.531	754.93
725.974	839.83
726.416	744.88
726.859	442.38
727.301	359.33
727.744	334.68
728.187	344.58
728.629	348.68
729.071	372.78
729.514	391.08
729.956	404.48
730.399	415.03
730.841	403.88
731.283	395.83
731.726	380.53
732.168	396.13
732.61	407.93
733.053	452.33
733.495	501.23
733.937	561.53
734.379	668.38
734.821	851.53
735.263	1345.48
735.705	2431.43
736.148	3635.18
736.59	3714.68
737.032	4117.93
737.474	3360.33
737.916	1263.38
738.357	641.58
738.799	486.63
739.241	451.13
739.683	448.03
740.125	465.18
740.567	462.48
741.008	493.68
741.45	521.63
741.892	533.03
742.334	551.38
742.775	547.58
743.217	524.28
743.658	432.73
744.1	441.43
744.542	499.43
744.983	526.98
745.425	559.93
745.866	549.98
746.307	460.33
746.749	484.73
747.19	714.08
747.632	1424.18
748.073	2667.18
748.514	3747.33
748.956	5094.48
749.397	6013.33
749.838	4121.63
750.279	4019.23
750.72	2035.08
751.162	837.28
751.603	467.48
752.044	371.18
752.485	325.93
752.926	301.58
753.367	298.13
753.808	282.93
754.249	277.13
754.69	276.78
755.131	271.38
755.572	275.13
756.013	267.38
756.453	265.88
756.894	273.93
757.335	272.78
757.776	279.73
758.216	291.33
758.657	307.03
759.098	342.63
759.538	419.53
759.979	608.73
760.42	1227.13
760.86	3165.43
761.301	6783.83
761.741	8179.38
762.182	9695.98
762.622	6165.93
763.063	2150.63
763.503	857.18
763.943	495.63
764.384	392.18
764.824	333.68
765.264	301.93
765.705	286.93
766.145	273.58
766.585	265.08
767.025	252.48
767.465	249.38
767.906	259.83
768.346	278.63
768.786	323.18
769.226	477.58
769.666	972.98
770.106	2222.03
770.546	3257.23
770.986	3806.03
771.426	2875.68
771.866	1153.88
772.306	509.38
772.745	309.18
773.185	254.68
773.625	246.68
774.065	255.53
774.505	353.73
774.944	619.53
775.384	908.48
775.824	1046.13
776.263	878.73
776.703	463.03
777.142	266.48
777.582	203.53
778.021	190.03
778.461	179.88
778.9	182.88
779.34	172.83
779.779	172.33
780.219	163.98
780.658	161.38
781.097	163.03
781.537	156.03
781.976	154.58
782.415	155.13
782.855	155.88
783.294	147.03
783.733	147.58
784.172	153.58
784.611	154.28
785.05	155.13
785.489	164.78
785.928	171.38
786.367	181.48
786.806	190.63
787.245	202.43
787.684	208.78
788.123	205.23
788.562	197.53
789.001	189.68
789.44	182.48
789.879	188.23
790.317	184.78
790.756	195.23
791.195	225.93
791.634	312.23
792.072	559.48
792.511	1399.28
792.95	2639.78
793.388	3299.98
793.827	2158.93
794.265	947.38
794.704	447.28
795.142	270.48
795.581	224.98
796.019	198.43
796.458	197.08
796.896	204.43
797.334	231.98
797.773	320.33
798.211	619.68
798.649	1325.48
799.087	2251.33
799.526	3203.13
799.964	3371.18
800.402	2351.53
800.84	1032.58
801.278	484.23
801.716	291.98
802.154	236.73
802.592	221.63
803.03	218.78
803.468	227.13
803.906	231.58
804.344	223.08
804.782	213.98
805.22	213.23
805.658	222.23
806.096	239.33
806.533	265.53
806.971	346.08
807.409	503.63
807.847	1010.13
808.284	2608.98
808.722	4709.58
809.16	6642.03
809.597	8906.08
810.035	11423.58
810.472	7455.43
810.91	3074.58
811.347	1351.98
811.785	630.83
812.222	393.03
812.66	303.13
813.097	257.88
813.535	221.78
813.972	199.88
814.409	178.03
814.846	169.68
815.284	164.98
815.721	168.48
816.158	184.53
816.595	235.13
817.032	301.03
817.47	280.63
817.907	200.58
818.344	178.98
818.781	177.38
819.218	209.38
819.655	318.03
820.092	418.68
820.529	387.73
820.966	297.93
821.403	202.33
821.839	178.18
822.276	193.68
822.713	233.88
823.15	221.38
823.587	235.98
824.023	422.83
824.46	1087.28
824.897	1965.48
825.333	1551.83
825.77	693.43
826.206	354.28
826.643	202.58
827.08	149.78
827.516	133.83
827.953	122.33
828.389	114.38
828.825	108.98
829.262	101.78
829.698	102.48
830.135	94.03
830.571	99.43
831.007	97.98
831.443	95.13
831.88	95.13
832.316	104.63
832.752	99.28
833.188	103.73
833.624	106.93
834.06	102.03
834.497	105.13
834.933	109.83
835.369	119.48
835.805	128.98
836.241	129.23
836.677	145.33
837.112	170.58
837.548	212.98
837.984	313.73
838.42	673.33
838.856	1909.88
839.292	3892.78
839.727	2914.68
840.163	1886.83
840.599	2846.98
841.034	4547.58
841.47	2291.03
841.906	1076.83
842.341	560.28
842.777	386.98
843.212	404.78
843.648	249.98
844.083	173.48
844.519	131.83
844.954	113.63
845.39	97.73
845.825	93.33
846.261	89.63
846.696	85.38
847.131	82.53
847.566	86.53
848.002	83.93
848.437	93.83
848.872	92.78
849.307	121.63
849.742	230.88
850.177	619.08
850.613	1377.78
851.048	1005.23
851.483	443.03
851.918	236.88
852.353	126.33
852.788	85.93
853.223	83.13
853.657	73.03
854.092	70.33
854.527	68.23
854.962	74.53
855.397	79.73
855.832	76.08
856.266	60.53
856.701	65.38
857.136	71.73
857.57	78.48
858.005	93.08
858.44	81.88
858.874	79.73
859.309	83.18
859.743	79.93
860.178	77.78
860.612	81.18
861.047	113.78
861.481	153.68
861.915	103.43
862.35	79.33
862.784	62.03
863.218	58.03
863.653	63.68
864.087	80.28
864.521	103.08
864.955	178.68
865.39	319.63
865.824	234.03
866.258	282.58
866.692	432.18
867.126	314.38
867.56	163.38
867.994	100.88
868.428	88.63
868.862	110.08
869.296	100.38
869.73	124.73
870.164	103.38
870.598	94.88
871.031	71.18
871.465	59.38
871.899	47.98
872.333	42.43
872.766	45.78
873.2	43.43
873.634	47.93
874.067	47.38
874.501	46.68
874.935	45.08
875.368	48.88
875.802	41.78
876.235	40.33
876.669	40.03
877.102	33.08
877.535	32.48
877.969	31.88
878.402	36.48
878.836	33.78
879.269	33.53
879.702	32.63
880.135	34.03
880.569	37.98
881.002	27.83
881.435	37.53
881.868	36.23
882.301	32.08
882.734	32.78
883.167	32.33
883.601	35.13
884.034	31.73
884.467	31.18
884.899	29.53
885.332	21.78
885.765	32.03
886.198	25.63
886.631	28.98
887.064	26.38
887.497	28.08
887.929	30.58
888.362	27.08
888.795	26.23
889.228	30.98
889.66	27.88
890.093	26.88
890.526	29.13
890.958	25.68
891.391	28.58
891.823	25.03
892.256	26.63
892.688	27.48
893.121	19.58
893.553	25.83
893.985	23.28
894.418	19.73
894.85	25.18
895.282	27.83
895.715	20.38
896.147	17.63
896.579	19.83
897.011	32.48
897.444	22.18
897.876	18.98
898.308	23.43
898.74	25.23
899.172	26.08
899.604	26.83
900.036	24.28
900.468	18.63
900.9	31.98
901.332	36.88
901.764	35.28
902.196	32.43
902.628	29.13
903.06	50.03
903.491	57.08
903.923	42.08
904.355	40.88
904.787	46.08
905.218	34.03
905.65	37.53
906.082	33.08
906.513	31.48
906.945	31.78
907.376	28.33
907.808	26.03
908.239	34.28
908.671	40.73
909.102	40.98
909.534	61.28
909.965	117.98
910.397	312.53
910.828	935.53
911.259	575.63
911.691	301.38
912.122	171.13
912.553	86.43
912.984	45.73
913.415	39.68
913.847	33.88
914.278	32.78
914.709	25.88
915.14	27.43
915.571	28.23
916.002	25.03
916.433	21.63
916.864	27.48
917.295	28.78
917.726	28.58
918.157	36.98
918.587	42.33
919.018	40.73
919.449	37.73
919.88	39.48
920.311	64.48
920.741	190.48
921.172	346.58
921.603	170.58
922.033	100.48
922.464	67.73
922.895	41.98
923.325	25.43
923.756	21.63
924.186	33.03
924.617	47.08
925.047	65.48
925.478	56.63
925.908	39.13
926.338	31.18
926.769	25.03
927.199	22.38
927.629	29.18
928.06	26.98
928.49	26.18
928.92	23.48
929.35	18.78
929.78	14.48
930.21	19.18
930.641	6.93
931.071	15.03
931.501	16.03
931.931	9.08
932.361	15.23
932.791	16.53
933.221	18.23
933.651	22.23
934.08	42.68
934.51	22.53
934.94	19.23
935.37	12.48
935.8	11.33
936.229	14.98
936.659	11.18
937.089	24.68
937.519	32.98
937.948	48.73
938.378	26.18
938.807	12.58
939.237	7.43
939.666	6.48
940.096	4.78
940.525	0.93
940.955	9.83
941.384	4.98
941.814	9.38
942.243	5.88
942.672	6.13
943.102	3.88
943.531	4.43
943.96	0.88
944.39	7.18
944.819	7.53
945.248	6.18
945.677	7.23
946.106	4.98
946.535	9.73
946.964	4.33
947.393	7.03
947.822	3.93
948.251	6.43
948.68	9.98
949.109	4.08
949.538	3.98
949.967	5.63
950.396	9.28
950.825	4.93
951.254	5.18
951.682	-2.17
952.111	-2.02
952.54	1.13
952.969	6.23
953.397	2.93
953.826	2.78
954.254	4.68
954.683	4.08
955.112	7.83
955.54	4.43
955.969	1.58
956.397	1.18
956.826	1.03
957.254	1.43
957.682	3.13
958.111	3.88
958.539	7.63
958.967	5.38
959.396	7.88
959.824	2.78
960.252	7.68
960.68	6.03
961.109	7.73
961.537	11.88
961.965	-0.27
962.393	4.18
962.821	2.88
963.249	5.28
963.677	5.73
964.105	55.93
964.533	99.03
964.961	49.88
965.389	27.23
965.817	10.58
966.245	10.53
966.672	-0.22
967.1	3.18
967.528	-2.22
967.956	-2.77
968.383	6.18
968.811	0.23
969.239	3.93
969.666	1.68
970.094	0.38
970.522	-0.62
970.949	5.63
971.377	-2.67
971.804	1.08
972.232	1.83
972.659	4.88
973.087	0.68
973.514	1.13
973.941	0.08
974.369	-0.87
974.796	0.48
975.223	-2.72
975.651	1.53
976.078	2.33
976.505	9.68
976.932	18.83
977.359	26.53
977.786	19.28
978.214	6.88
978.641	1.58
979.068	1.83
979.495	-2.62
979.922	0.08
980.349	1.78
980.776	3.13
981.202	0.88
981.629	5.08
982.056	2.53
982.483	-2.67
982.91	1.88
983.337	0.33
983.763	-0.72
984.19	4.78
984.617	0.23
985.043	3.78
985.47	1.28
985.897	-3.57
986.323	6.48
986.75	4.18
987.176	1.48
987.603	1.33
988.029	0.63
988.456	5.18
988.882	-0.57
989.308	1.18
989.735	-0.12
990.161	1.33
990.587	-3.42
991.014	2.33
991.44	2.73
991.866	2.63
992.292	0.58
992.719	0.53
993.145	5.48
993.571	0.68
993.997	2.78
994.423	6.38
994.849	-2.72
995.275	4.18
995.701	1.68
996.127	-3.42
996.553	1.58
996.979	0.73
997.405	3.63
997.83	5.88
998.256	3.33
998.682	2.43
999.108	2.28
999.534	-5.47
999.959	-2.72
1000.385	4.58
1000.811	2.93
1001.236	-6.37
1001.662	-2.02
1002.087	5.28
1002.513	2.88
1002.938	-1.62
1003.364	0.73
1003.789	7.48
1004.215	-2.17
1004.64	0.58
1005.066	0.53
1005.491	2.68
1005.916	4.53
1006.342	4.13
1006.767	5.78
1007.192	0.63
1007.617	1.13
1008.042	-3.32
1008.468	2.88
1008.893	3.63
1009.318	4.08
1009.743	7.23
1010.168	14.33
1010.593	15.58
1011.018	4.83
1011.443	1.48
1011.868	3.23
1012.293	8.43
1012.718	-1.92
1013.143	-2.72
1013.567	4.28
1013.992	3.98
1014.417	2.53
1014.842	0.38
1015.267	-1.97
1015.691	6.48
1016.116	-1.77
1016.541	0.23
1016.965	2.13
1017.39	-0.77
1017.814	-1.52
1018.239	-2.22
1018.663	-4.47
1019.088	-3.72
1019.512	3.38
1019.937	-3.07
1020.361	1.98
1020.785	-0.07
1021.21	-5.32
1021.634	-4.47
1022.058	-1.22
1022.483	-4.27
1022.907	-2.52
1023.331	-2.22
1023.755	-3.07
1024.179	-3.07
1024.604	1.23
1025.028	2.78
1025.452	-0.32
1025.876	3.83
1026.3	-0.87
1026.724	-5.57
1027.148	-2.12
1027.572	0.33
1027.996	-0.92
1028.42	-2.22
1028.843	-2.37
1029.267	0.43
1029.691	-0.32
1030.115	-2.92
1030.539	0.83
1030.962	-2.77
1031.386	-2.47
1031.81	-1.47
1032.233	-4.62
1032.657	-5.82
1033.08	-4.97
1033.504	-4.07
1033.927	-1.77
1034.351	-0.37
1034.774	-0.67
1035.198	-4.47
1035.621	0.23
1036.045	-0.27
1036.468	3.18
1036.891	-0.27
1037.315	3.33
1037.738	-0.97
1038.161	3.43
1038.584	-0.27
1039.008	-3.12
1039.431	0.78
1039.854	-5.97
1040.277	0.03
1040.7	-2.37
1041.123	1.88
1041.546	-1.52
1041.969	3.23
1042.392	1.88
1042.815	-4.37
1043.238	-0.27
1043.661	-0.22
1044.084	-4.57
1044.507	-7.12
1044.93	1.38
1045.352	0.98
1045.775	2.68
1046.198	1.73
1046.621	4.38
1047.043	-2.77
1047.466	1.58
1047.889	-3.22
1048.311	2.63
1048.734	-5.22
1049.156	-5.27
1049.579	-1.42
1050.001	-3.62
1050.424	-0.27
1050.846	-3.77
1051.269	-5.47
1051.691	-5.32
1052.113	0.73
1052.536	-3.42
1052.958	-7.97
1053.38	6.68
1053.802	-3.32
1054.225	1.98
1054.647	-1.12
1055.069	-3.42
1055.491	4.98
1055.913	-3.07
1056.335	-7.22
1056.757	-7.62
1057.179	-2.12
1057.601	-3.97
1058.023	0.18
1058.445	-4.67
1058.867	-0.37
1059.289	-5.37
1059.711	-0.82
1060.133	-2.42
1060.555	-6.32
1060.976	2.13
1061.398	-2.17
1061.82	-2.62
1062.241	-5.52
1062.663	-0.42
1063.085	-5.57
1063.506	-4.37
1063.928	-5.52
1064.35	1.63
1064.771	-2.32
1065.193	-2.62
1065.614	-2.67
1066.035	3.03
1066.457	3.33
1066.878	0.48
1067.3	-0.92
1067.721	1.63
1068.142	1.38
1068.564	-0.62
1068.985	-1.97
1069.406	-3.92
1069.827	-2.67
1070.248	-3.67
1070.67	-4.67
1071.091	-4.77
1071.512	-4.67
1071.933	-1.77
1072.354	-5.87
1072.775	-4.62
1073.196	-1.07
1073.617	-5.82
1074.038	-1.02
1074.459	-4.37
1074.88	-3.37
1075.3	-4.32
1075.721	1.88
1076.142	-4.82
1076.563	-6.77
1076.983	2.03
1077.404	-2.97
1077.825	-2.27
1078.246	-5.77
1078.666	-3.32
1079.087	-3.17
1079.507	-7.72
1079.928	-2.47
1080.348	-1.77
1080.769	0.33
1081.189	-1.97
1081.61	-7.22
1082.03	2.73
1082.451	0.68
1082.871	-5.47
1083.291	-6.52
1083.711	-3.37
1084.132	-0.52
1084.552	-1.92
1084.972	-1.52
1085.392	-4.07
1085.813	0.13
1086.233	-7.87
1086.653	-1.52
1087.073	-0.37
1087.493	-0.57
1087.913	-5.72
1088.333	-3.77
1088.753	1.28
1089.173	0.03
1089.593	-2.22
1090.013	-1.67
1090.433	-5.77
1090.852	0.48
1091.272	-5.87
1091.692	-2.62
1092.112	-6.52
1092.531	-6.17
1092.951	-2.57
1093.371	-4.52
1093.79	-5.62
1094.21	-3.52
1094.63	0.58
1095.049	-1.82
1095.469	-6.97
1095.888	-1.32
1096.308	-4.42
1096.727	-4.87
1097.146	-5.87
1097.566	-3.62
1097.985	1.58
1098.405	-2.02
1098.824	-0.37
1099.243	-0.92
1099.662	-4.17
1100.082	-1.32
1100.501	-2.02
1100.92	6.48
1101.339	1.63
1101.758	0.38
