Data from MSPlasma+Separation6_Subt14_10-12-42-569.txt Node
Date: Fri Jul 21 10:12:42 EDT 2017
User: Ender
Spectrometer: HR+D1039
Trigger mode: 0
Integration Time (sec): 6.430000E-3
Scans to average: 20
Electric dark correction enabled: true
Nonlinearity correction enabled: false
Boxcar width: 0
XAxis mode: Wavelengths
Number of Pixels in Spectrum: 2048
>>>>>Begin Spectral Data<<<<<
187.836	-1.1
188.309	-1.1
188.782	-1.1
189.255	-0.55
189.728	3.8
190.201	1.7
190.674	-0.35
191.147	0.35
191.619	-0.55
192.092	-0.4
192.565	-3.5
193.038	1.35
193.511	3.1
193.984	-0.55
194.456	-2.55
194.929	-0.8
195.402	-1.55
195.874	1.65
196.347	-1.6
196.82	1.55
197.292	-1.35
197.765	-4.15
198.237	1.9
198.71	-6.05
199.182	-2.4
199.655	1.3
200.127	-0.9
200.6	-1.8
201.072	4.2
201.544	-1.9
202.017	-2.05
202.489	-1.4
202.961	-0.15
203.433	-3.35
203.906	-4.2
204.378	0.05
204.85	1.7
205.322	-1.55
205.794	1.15
206.266	0.25
206.739	-1.4
207.211	-0.6
207.683	-1
208.155	1
208.627	-0.85
209.099	3.05
209.57	2.75
210.042	-2.4
210.514	-1.75
210.986	1.2
211.458	-0.85
211.93	1.3
212.402	-3.85
212.873	-2.95
213.345	-0.5
213.817	-0.05
214.288	-2.75
214.76	2.15
215.232	-0.35
215.703	-2
216.175	-0.05
216.646	-1.05
217.118	-1.65
217.589	-1.55
218.061	-3.2
218.532	-0.85
219.004	-1.45
219.475	0.9
219.946	1.65
220.418	5.55
220.889	0.7
221.36	0.7
221.832	6.6
222.303	0.25
222.774	2.9
223.245	0.65
223.717	-0.25
224.188	5.6
224.659	3.15
225.13	-0.5
225.601	-0.35
226.072	0.45
226.543	6.2
227.014	2.5
227.485	-0.2
227.956	3.95
228.427	8.2
228.898	2.7
229.369	3.7
229.839	1.6
230.31	6.45
230.781	3.8
231.252	7.75
231.722	5.55
232.193	6.9
232.664	8.95
233.135	3.25
233.605	2.25
234.076	7.4
234.546	6.05
235.017	8.85
235.487	7.35
235.958	7.1
236.428	13.65
236.899	11.35
237.369	17.6
237.84	12.3
238.31	11.6
238.78	10.1
239.251	9.85
239.721	5
240.191	5.4
240.662	13.1
241.132	9.05
241.602	11.8
242.072	5.35
242.542	7.6
243.013	9.15
243.483	11.35
243.953	9.4
244.423	12.05
244.893	8.45
245.363	13.9
245.833	9.15
246.303	14.35
246.773	17.05
247.243	17.55
247.712	19.2
248.182	18.05
248.652	16.75
249.122	17
249.592	19.45
250.061	19.5
250.531	16.3
251.001	19.3
251.471	18.35
251.94	20.9
252.41	14.35
252.879	22.55
253.349	24.1
253.818	20.35
254.288	24.05
254.757	23.85
255.227	24.4
255.696	24.65
256.166	26.2
256.635	28.1
257.105	24
257.574	26.5
258.043	21.95
258.513	24.95
258.982	22.55
259.451	28.8
259.92	26.55
260.389	21
260.859	24.75
261.328	26.3
261.797	24.5
262.266	28.65
262.735	28.8
263.204	28.05
263.673	26.75
264.142	26.45
264.611	29.25
265.08	32
265.549	26.5
266.018	30.35
266.487	35.4
266.955	30.55
267.424	41.2
267.893	40.75
268.362	33.9
268.83	35.15
269.299	29.8
269.768	30.5
270.236	35.35
270.705	38.05
271.174	31.8
271.642	33.15
272.111	35.85
272.579	36.7
273.048	35.55
273.516	38.95
273.985	39.4
274.453	36.4
274.922	38
275.39	33
275.858	42.75
276.327	40.4
276.795	38.3
277.263	39.35
277.731	40.75
278.2	44.35
278.668	43.7
279.136	45.65
279.604	44.5
280.072	45.35
280.54	47.15
281.008	46.05
281.477	52.05
281.945	46.2
282.413	50.1
282.881	46.85
283.348	47.6
283.816	50.35
284.284	50.55
284.752	48.8
285.22	54.9
285.688	47.4
286.156	52.8
286.623	52.55
287.091	52.4
287.559	53.65
288.026	54.75
288.494	60.55
288.962	61.5
289.429	57.05
289.897	52.1
290.364	54.95
290.832	57.65
291.3	57.9
291.767	56.7
292.234	60.75
292.702	62.4
293.169	62.45
293.637	64.3
294.104	66.8
294.571	60.45
295.039	65.6
295.506	64.95
295.973	64.7
296.44	62.6
296.908	64.9
297.375	66.85
297.842	67.5
298.309	67.75
298.776	66.8
299.243	72.2
299.71	72.1
300.177	73.35
300.644	69.25
301.111	73.3
301.578	71.7
302.045	75.9
302.512	71.3
302.979	80.9
303.446	84.5
303.913	80.2
304.379	82.7
304.846	79.5
305.313	87.95
305.78	88.9
306.246	83.95
306.713	81.75
307.18	85.25
307.646	87.75
308.113	82.9
308.579	95.65
309.046	96.9
309.512	93.75
309.979	98.2
310.445	87.95
310.912	93.1
311.378	103.2
311.845	100.55
312.311	98.85
312.777	99.3
313.244	100.4
313.71	101.8
314.176	105.6
314.642	106.3
315.109	104.9
315.575	103.7
316.041	105.65
316.507	102.45
316.973	109.4
317.439	110.45
317.905	111.95
318.371	111.75
318.837	111.3
319.303	114.3
319.769	108.35
320.235	113.45
320.701	118.45
321.167	115.3
321.633	114.05
322.099	116.4
322.564	118.8
323.03	118.4
323.496	116.45
323.962	119.45
324.427	126.1
324.893	119.85
325.359	129.75
325.824	128.9
326.29	131
326.755	129.8
327.221	128.2
327.686	138.35
328.152	134.8
328.617	136.8
329.083	137.65
329.548	141.95
330.014	138.6
330.479	142.3
330.944	144.75
331.41	146.1
331.875	138.1
332.34	141
332.805	149.2
333.271	146.05
333.736	141.1
334.201	147
334.666	156.85
335.131	153.8
335.596	157.35
336.061	149.3
336.526	150.9
336.991	148.6
337.456	152.65
337.921	149.05
338.386	148.85
338.851	150.3
339.316	155
339.781	146.45
340.246	154.85
340.711	154.45
341.175	159.35
341.64	161.8
342.105	167
342.569	173.7
343.034	165.35
343.499	166.85
343.963	172.7
344.428	175.45
344.893	175.5
345.357	183.05
345.822	182
346.286	185.35
346.751	187
347.215	190.1
347.679	195.45
348.144	209.4
348.608	209.85
349.073	208.8
349.537	213.4
350.001	213.4
350.465	212.5
350.93	211.1
351.394	220.5
351.858	217.7
352.322	220.85
352.786	218
353.25	224.65
353.715	232.1
354.179	241.05
354.643	242.1
355.107	247.7
355.571	236.75
356.035	240.15
356.498	241.35
356.962	239.05
357.426	232.1
357.89	228.1
358.354	231.35
358.818	226.15
359.281	231.15
359.745	239
360.209	232.85
360.673	233.3
361.136	236.45
361.6	235.4
362.064	243.1
362.527	245.85
362.991	247.1
363.454	239.75
363.918	247.55
364.381	249.55
364.845	249.7
365.308	245.8
365.772	246.65
366.235	253.15
366.698	250.9
367.162	254.8
367.625	251.75
368.088	263.05
368.552	250.85
369.015	256.9
369.478	261.45
369.941	263.85
370.404	266.55
370.867	260.95
371.331	264.35
371.794	267.95
372.257	271.05
372.72	274.65
373.183	278.4
373.646	277.85
374.109	273.65
374.572	276.35
375.035	278.8
375.497	287.05
375.96	287.35
376.423	292.1
376.886	294.85
377.349	302
377.811	297.8
378.274	303.75
378.737	295.9
379.199	305.7
379.662	305.75
380.125	309.75
380.587	313.95
381.05	311.85
381.512	323.6
381.975	327.3
382.437	335.05
382.9	326.95
383.362	337
383.825	338.4
384.287	333.5
384.75	339.3
385.212	341.6
385.674	345.95
386.136	348
386.599	341.1
387.061	339.5
387.523	347.7
387.985	345.4
388.447	352.5
388.91	350.95
389.372	359.1
389.834	350.85
390.296	352.05
390.758	356.15
391.22	348.1
391.682	350.85
392.144	346.95
392.606	353.5
393.068	365.75
393.529	388.2
393.991	403
394.453	378
394.915	358.95
395.377	353.85
395.838	355.3
396.3	360.15
396.762	367.5
397.224	365.55
397.685	367.55
398.147	372.95
398.608	375.15
399.07	378.85
399.531	382.85
399.993	387.7
400.454	399.75
400.916	392.2
401.377	402.1
401.839	404.95
402.3	398
402.762	414.15
403.223	451.9
403.684	455.9
404.145	429.15
404.607	417.25
405.068	401
405.529	405.05
405.99	412.6
406.451	418.85
406.913	412.25
407.374	411.6
407.835	410.75
408.296	423
408.757	423.1
409.218	441.7
409.679	446.5
410.14	450.15
410.601	459.1
411.062	468.45
411.522	469.85
411.983	476.25
412.444	495.65
412.905	494.9
413.366	521.95
413.826	553.1
414.287	628.2
414.748	779.3
415.208	795
415.669	648.3
416.13	577.35
416.59	572.85
417.051	597.45
417.511	631.85
417.972	686.55
418.432	753.1
418.893	844.05
419.353	797.6
419.814	593.05
420.274	521.2
420.734	512.2
421.195	527.2
421.655	525.6
422.115	529.4
422.576	525.15
423.036	524.65
423.496	547.8
423.956	570.1
424.416	617.6
424.876	695.2
425.336	690.8
425.797	664.7
426.257	651.2
426.717	595.8
427.177	535
427.637	533.45
428.097	540.1
428.556	559.4
429.016	602.65
429.476	589.35
429.936	555.1
430.396	539.65
430.856	544.35
431.315	558.15
431.775	599.75
432.235	660.25
432.694	668.45
433.154	620.2
433.614	608.9
434.073	590.75
434.533	542.3
434.993	525.7
435.452	540.85
435.912	536.6
436.371	544.65
436.83	545.65
437.29	541.75
437.749	534.05
438.209	539.65
438.668	553.05
439.127	571
439.587	566.5
440.046	558.15
440.505	565.85
440.964	579.3
441.424	594.85
441.883	611.65
442.342	589.55
442.801	561.75
443.26	572.8
443.719	570.8
444.178	562.85
444.637	578.05
445.096	583.65
445.555	587.5
446.014	586.65
446.473	584.8
446.932	590.85
447.391	597.7
447.849	605.25
448.308	597.8
448.767	608.05
449.226	609.7
449.685	624.7
450.143	656.6
450.602	650.2
451.061	611.85
451.519	612.55
451.978	600
452.436	601.15
452.895	608
453.353	597.2
453.812	595.45
454.27	591.45
454.729	601.15
455.187	608.1
455.646	609.6
456.104	604.2
456.562	617.9
457.021	626.45
457.479	605.7
457.937	622.25
458.395	645.1
458.854	633.85
459.312	622.75
459.77	621.5
460.228	633.4
460.686	638.35
461.144	645.9
461.602	634.85
462.06	638.3
462.518	651.7
462.976	653.65
463.434	665.15
463.892	660.25
464.35	667.5
464.808	684
465.266	696.75
465.724	695.15
466.181	699.65
466.639	693.35
467.097	720.25
467.555	743
468.012	732.4
468.47	738.2
468.928	766.65
469.385	787.15
469.843	793.2
470.3	781.35
470.758	802.9
471.215	818.8
471.673	826.25
472.13	848.05
472.588	863.45
473.045	859.15
473.503	873.9
473.96	907.4
474.417	906.3
474.875	938
475.332	950.2
475.789	959.5
476.246	976.65
476.704	999.9
477.161	1003
477.618	1012.85
478.075	1026.1
478.532	1059.1
478.989	1082.5
479.446	1127.5
479.903	1117.35
480.36	1147.15
480.817	1152.95
481.274	1150.35
481.731	1194.05
482.188	1201.85
482.645	1238.5
483.102	1247.6
483.558	1286.7
484.015	1306.75
484.472	1316.6
484.929	1314.75
485.385	1315.8
485.842	1332.4
486.299	1334.9
486.755	1316.2
487.212	1300.85
487.668	1269.25
488.125	1261.5
488.582	1240.15
489.038	1261.45
489.494	1268.35
489.951	1276.2
490.407	1277.3
490.864	1288.25
491.32	1269.7
491.776	1281.25
492.233	1299.7
492.689	1299.5
493.145	1286.35
493.602	1277.4
494.058	1295.65
494.514	1304.5
494.97	1308.15
495.426	1337.95
495.882	1331
496.338	1339.2
496.794	1355.25
497.251	1347.6
497.707	1373.55
498.163	1375.25
498.618	1378.25
499.074	1382.45
499.53	1396.25
499.986	1398.85
500.442	1395.05
500.898	1386
501.354	1398.1
501.809	1396.9
502.265	1405.1
502.721	1409.65
503.177	1417.5
503.632	1418.7
504.088	1436.6
504.543	1441.45
504.999	1457.45
505.455	1448.25
505.91	1442.85
506.366	1448.65
506.821	1458.9
507.277	1442.1
507.732	1443.6
508.187	1443.05
508.643	1451.85
509.098	1455
509.553	1478.5
510.009	1496.9
510.464	1521.95
510.919	1537.6
511.375	1550.2
511.83	1573.45
512.285	1592.1
512.74	1624.1
513.195	1646
513.65	1675.55
514.105	1707.75
514.56	1707.05
515.015	1740.7
515.47	1744.75
515.925	1727.95
516.38	1731.7
516.835	1738.15
517.29	1738.6
517.745	1733.2
518.2	1703.85
518.655	1650.6
519.109	1637
519.564	1603.95
520.019	1608.75
520.474	1582.4
520.928	1581
521.383	1567.8
521.838	1564.85
522.292	1548.2
522.747	1535.1
523.201	1530
523.656	1521.25
524.11	1508
524.565	1499.35
525.019	1503.75
525.474	1500.6
525.928	1487.95
526.382	1495.8
526.837	1476.9
527.291	1492.85
527.745	1483.9
528.2	1474.15
528.654	1464.55
529.108	1461.45
529.562	1466.05
530.016	1458.95
530.47	1467.45
530.925	1449.85
531.379	1462
531.833	1474.3
532.287	1476.9
532.741	1463.55
533.195	1463.1
533.649	1466.15
534.103	1465.4
534.556	1455.45
535.01	1471.3
535.464	1459.25
535.918	1442.6
536.372	1463.75
536.826	1467.75
537.279	1439.5
537.733	1452.25
538.187	1463
538.64	1457.25
539.094	1466.55
539.548	1494.1
540.001	1494.05
540.455	1495.25
540.908	1507.7
541.362	1530.2
541.815	1533.7
542.269	1561.5
542.722	1561
543.175	1582.15
543.629	1588.7
544.082	1598.35
544.536	1635.3
544.989	1635.2
545.442	1636.1
545.895	1635.7
546.349	1631.1
546.802	1645.25
547.255	1640.45
547.708	1661.9
548.161	1678.35
548.614	1672.3
549.067	1684.05
549.52	1677.75
549.973	1657.4
550.426	1646.3
550.879	1628.35
551.332	1627.45
551.785	1650.3
552.238	1661.3
552.691	1650.45
553.144	1680.55
553.596	1710.4
554.049	1725.5
554.502	1766.85
554.955	1811.35
555.407	1837.85
555.86	1811.6
556.313	1778.9
556.765	1752.55
557.218	1734.25
557.67	1740.25
558.123	1705.9
558.576	1711.85
559.028	1701.85
559.48	1740.95
559.933	1727.5
560.385	1655.95
560.838	1592.8
561.29	1548.95
561.742	1540.9
562.195	1504.4
562.647	1493.05
563.099	1480.75
563.551	1478
564.004	1502.8
564.456	1486.15
564.908	1458.1
565.36	1408.2
565.812	1386.7
566.264	1363.15
566.716	1348.25
567.168	1327.7
567.62	1318.5
568.072	1320.6
568.524	1302.85
568.976	1301.8
569.428	1283.25
569.88	1295.25
570.332	1288.45
570.784	1300.6
571.235	1288.45
571.687	1316.05
572.139	1305.85
572.59	1315.1
573.042	1320.05
573.494	1323.3
573.945	1309.05
574.397	1276.35
574.849	1267.3
575.3	1260.95
575.752	1252.75
576.203	1244.4
576.655	1248.35
577.106	1232.25
577.557	1224
578.009	1218.9
578.46	1219.7
578.912	1208.7
579.363	1217.15
579.814	1211.15
580.265	1218.9
580.717	1211.55
581.168	1214.15
581.619	1210.95
582.07	1228.55
582.521	1223
582.972	1219.6
583.423	1223.35
583.875	1228.3
584.326	1244
584.777	1254.45
585.227	1283.75
585.678	1300.8
586.129	1298.45
586.58	1321.75
587.031	1353.3
587.482	1388.75
587.933	1408.85
588.384	1407.3
588.834	1392.6
589.285	1390.45
589.736	1385.05
590.186	1393.15
590.637	1378.95
591.088	1333.1
591.538	1309.45
591.989	1280.1
592.439	1277.45
592.89	1260.7
593.34	1253.65
593.791	1246.25
594.241	1226.85
594.692	1233.85
595.142	1235.5
595.593	1224.85
596.043	1233.05
596.493	1245.95
596.943	1244.9
597.394	1275.65
597.844	1291.25
598.294	1323.15
598.744	1369.95
599.195	1446.7
599.645	1532.1
600.095	1624.1
600.545	1698.25
600.995	1792.2
601.445	1864.55
601.895	1962.6
602.345	2046.75
602.795	2018.55
603.245	1911.1
603.695	1794.65
604.145	1686.7
604.594	1582.8
605.044	1498.95
605.494	1406.45
605.944	1320.6
606.393	1285.2
606.843	1263.1
607.293	1259.6
607.743	1247.65
608.192	1261.9
608.642	1268.2
609.091	1260.6
609.541	1268.9
609.99	1262.35
610.44	1237.35
610.889	1220.25
611.339	1201.35
611.788	1188.75
612.238	1189.2
612.687	1195.4
613.136	1196.85
613.586	1220.85
614.035	1211.35
614.484	1218.45
614.933	1222.85
615.383	1196
615.832	1166.3
616.281	1151.1
616.73	1127.25
617.179	1097.95
617.628	1070.55
618.077	1062.05
618.526	1043.9
618.975	1035.9
619.424	1026.85
619.873	1022.55
620.322	1009.85
620.771	1012.05
621.22	988.6
621.669	972.9
622.118	960
622.567	947.4
623.015	930.75
623.464	925.15
623.913	907.85
624.361	919.2
624.81	909.8
625.259	910.55
625.707	910.4
626.156	921.65
626.604	925.05
627.053	937.95
627.501	939.5
627.95	943.5
628.398	953.9
628.847	944.6
629.295	937.25
629.744	927.4
630.192	920.1
630.64	896.95
631.089	881.6
631.537	857.05
631.985	839.65
632.433	837.95
632.881	834.5
633.33	838.8
633.778	830.7
634.226	846.7
634.674	845.35
635.122	849.95
635.57	864.1
636.018	879.8
636.466	874
636.914	876.25
637.362	886.35
637.81	908.25
638.258	929.35
638.705	936.9
639.153	970.8
639.601	981
640.049	996.2
640.497	1041.2
640.944	1061.7
641.392	988
641.84	915.95
642.287	865.6
642.735	834.55
643.182	811.25
643.63	803.45
644.078	802
644.525	796.4
644.973	808.9
645.42	810.2
645.867	808.5
646.315	817.5
646.762	816.7
647.21	818.95
647.657	823.8
648.104	810.85
648.551	777.85
648.999	772.8
649.446	771.05
649.893	761.95
650.34	770.75
650.787	797.2
651.234	824.2
651.682	885.95
652.129	977.35
652.576	1110.2
653.023	1276.9
653.47	1381.4
653.917	1440.7
654.363	1489.4
654.81	1564.35
655.257	1611.2
655.704	1270.45
656.151	990.05
656.598	856.15
657.044	798.1
657.491	782.8
657.938	761.15
658.385	742.1
658.831	746.9
659.278	737.55
659.724	734
660.171	727.4
660.618	702.85
661.064	684.1
661.511	695.05
661.957	691.4
662.404	698.85
662.85	709.3
663.296	718.8
663.743	719.45
664.189	724.4
664.635	726.45
665.082	719.8
665.528	714
665.974	705.75
666.42	696.85
666.867	695.9
667.313	653.25
667.759	649.6
668.205	649.5
668.651	652
669.097	660.4
669.543	663.25
669.989	663.6
670.435	669
670.881	679.4
671.327	712.1
671.773	763.3
672.219	837.85
672.665	901.45
673.11	945.2
673.556	969.45
674.002	1005.5
674.448	1023.95
674.893	856.35
675.339	728.65
675.785	673.85
676.23	635
676.676	607.1
677.122	597.1
677.567	577.45
678.013	560.4
678.458	557.35
678.904	554.25
679.349	548.6
679.794	548.55
680.24	545.85
680.685	537.8
681.131	547.15
681.576	546.65
682.021	546.75
682.466	560.05
682.912	564.55
683.357	589.1
683.802	641.45
684.247	712.3
684.692	765.1
685.137	800.1
685.583	831.4
686.028	884.85
686.473	827.45
686.918	709.65
687.363	641.55
687.807	604.2
688.252	569.3
688.697	551.55
689.142	529.9
689.587	533.85
690.032	542.1
690.477	567.75
690.921	594.15
691.366	640.25
691.811	658.95
692.255	718.85
692.7	870.9
693.145	1254.7
693.589	1948.8
694.034	2363.3
694.478	2595.6
694.923	2428
695.367	3586.5
695.812	2108.6
696.256	845.7
696.701	597.25
697.145	547.85
697.59	527.65
698.034	516.1
698.478	514.7
698.922	518.2
699.367	534.1
699.811	553.5
700.255	613
700.699	676.95
701.143	733
701.588	784.35
702.032	832.75
702.476	854.95
702.92	888.05
703.364	1144.55
703.808	1773.8
704.252	2279.1
704.696	2475.1
705.14	2398.85
705.584	3412
706.027	1811.45
706.471	873.4
706.915	631.2
707.359	553.7
707.803	509.95
708.246	495.9
708.69	496.7
709.134	487.7
709.577	494.3
710.021	500.95
710.465	492.65
710.908	482.15
711.352	507.35
711.795	559.75
712.239	611.75
712.682	629.3
713.126	626.3
713.569	713.45
714.012	559.8
714.456	479.6
714.899	458.75
715.342	436.35
715.786	419.35
716.229	411.9
716.672	395.35
717.115	397.5
717.558	402.05
718.002	414.05
718.445	440
718.888	461.85
719.331	475.15
719.774	485.15
720.217	477.6
720.66	437.9
721.103	415.8
721.546	390.9
721.989	385.1
722.432	374.1
722.874	377.2
723.317	379.6
723.76	406.5
724.203	512.4
724.645	694.9
725.088	839.5
725.531	837.65
725.974	947.75
726.416	837.35
726.859	497.7
727.301	402
727.744	380.2
728.187	380.25
728.629	391.15
729.071	413.05
729.514	426.1
729.956	446.1
730.399	455.95
730.841	459.9
731.283	446.25
731.726	422.75
732.168	432.65
732.61	457.75
733.053	490.15
733.495	560.35
733.937	622.65
734.379	731.9
734.821	928.75
735.263	1475.15
735.705	2655.45
736.148	4026.15
736.59	4166.8
737.032	4690.95
737.474	3832.75
737.916	1401.05
738.357	715.05
738.799	543.9
739.241	495.5
739.683	496.5
740.125	508.5
740.567	520
741.008	543.65
741.45	572.35
741.892	597.95
742.334	607
742.775	611.85
743.217	580.3
743.658	486.2
744.1	482.65
744.542	549.15
744.983	582.15
745.425	615.8
745.866	607.35
746.307	505.15
746.749	535.45
747.19	785.5
747.632	1550.45
748.073	2932
748.514	4160.1
748.956	5740.35
749.397	6777.3
749.838	4640.6
750.279	4589.45
750.72	2278.75
751.162	932.45
751.603	518.5
752.044	411.25
752.485	364.35
752.926	342.35
753.367	327.1
753.808	313.9
754.249	308.55
754.69	306.1
755.131	304.85
755.572	302.7
756.013	296.95
756.453	303.8
756.894	304.55
757.335	306.65
757.776	311.75
758.216	328.05
758.657	340.6
759.098	380
759.538	453.55
759.979	663.15
760.42	1343.75
760.86	3431.4
761.301	7425
761.741	9139.55
762.182	11093.75
762.622	6978.9
763.063	2383.4
763.503	955.5
763.943	549.8
764.384	427.25
764.824	367.05
765.264	339.4
765.705	317.15
766.145	297.95
766.585	290.5
767.025	283.75
767.465	280.3
767.906	287.05
768.346	303.95
768.786	351.4
769.226	523.75
769.666	1067
770.106	2438.2
770.546	3632.15
770.986	4329.2
771.426	3267.25
771.866	1295.3
772.306	570.55
772.745	340.95
773.185	279.25
773.625	276.5
774.065	284.1
774.505	392
774.944	680.05
775.384	994.15
775.824	1177.85
776.263	989.35
776.703	510.2
777.142	300.75
777.582	229.25
778.021	204.65
778.461	201.65
778.9	206.35
779.34	192.45
779.779	190.1
780.219	188.05
780.658	181.65
781.097	178.3
781.537	172
781.976	175.25
782.415	170.4
782.855	170.45
783.294	168.7
783.733	163.9
784.172	171.75
784.611	169.8
785.05	179.3
785.489	184.8
785.928	192.2
786.367	195.55
786.806	205.65
787.245	225
787.684	229.95
788.123	231.5
788.562	220.45
789.001	207.3
789.44	203.7
789.879	205.85
790.317	206
790.756	214.85
791.195	246.2
791.634	335.65
792.072	614
792.511	1530.4
792.95	2963
793.388	3769.15
793.827	2447.55
794.265	1062.2
794.704	498.55
795.142	299.95
795.581	244.45
796.019	224.05
796.458	220.75
796.896	222.25
797.334	262.8
797.773	350.15
798.211	682.95
798.649	1465.8
799.087	2521.7
799.526	3581.8
799.964	3810.95
800.402	2651.75
800.84	1150.9
801.278	542.85
801.716	323.2
802.154	260.4
802.592	239.25
803.03	244.75
803.468	254.15
803.906	252.4
804.344	244.1
804.782	237.8
805.22	238.55
805.658	250.85
806.096	267.35
806.533	299.55
806.971	385.4
807.409	552.05
807.847	1113.75
808.284	2881.1
808.722	5289.5
809.16	7428.2
809.597	9920.6
810.035	12872.05
810.472	8449.55
810.91	3419.15
811.347	1506.55
811.785	704.8
812.222	437.6
812.66	339.65
813.097	280.9
813.535	249.85
813.972	224.25
814.409	205.8
814.846	198.5
815.284	184.45
815.721	187
816.158	196.2
816.595	265.15
817.032	343.5
817.47	313.05
817.907	227.75
818.344	199.15
818.781	194.45
819.218	229.2
819.655	354.4
820.092	466.4
820.529	426.65
820.966	328.6
821.403	228.95
821.839	189.95
822.276	215.85
822.713	270.1
823.15	248.05
823.587	259.5
824.023	460.85
824.46	1203.45
824.897	2222.2
825.333	1770.8
825.77	770.25
826.206	387.4
826.643	225.2
827.08	168.3
827.516	147.7
827.953	136.15
828.389	125.85
828.825	122.75
829.262	115.45
829.698	116.1
830.135	104.4
830.571	108.2
831.007	105.35
831.443	109.55
831.88	109.45
832.316	110.8
832.752	113.4
833.188	113.05
833.624	112.45
834.06	117.85
834.497	114.55
834.933	114.7
835.369	128.9
835.805	139.55
836.241	148.75
836.677	161.15
837.112	186.2
837.548	228.65
837.984	346.55
838.42	742.2
838.856	2095.45
839.292	4423.45
839.727	3299.6
840.163	2098.95
840.599	3172.85
841.034	5191.9
841.47	2577.15
841.906	1191.95
842.341	620.1
842.777	439.65
843.212	449.65
843.648	281.65
844.083	190.45
844.519	142.3
844.954	121.05
845.39	105.95
845.825	102.9
846.261	99.8
846.696	94.65
847.131	92.65
847.566	94.25
848.002	94.8
848.437	105.7
848.872	109.3
849.307	136.05
849.742	252.9
850.177	692.6
850.613	1562.25
851.048	1147.75
851.483	498.9
851.918	266.55
852.353	144.4
852.788	100.45
853.223	93.15
853.657	81.7
854.092	84.65
854.527	83.6
854.962	84.45
855.397	91.25
855.832	78.75
856.266	67.25
856.701	67
857.136	73.95
857.57	86.3
858.005	111
858.44	91.85
858.874	85.55
859.309	91.8
859.743	89
860.178	83.3
860.612	91.35
861.047	126.3
861.481	177.2
861.915	120.85
862.35	88.7
862.784	71.65
863.218	68.9
863.653	74.75
864.087	88.25
864.521	112.95
864.955	200.1
865.39	363.1
865.824	257.9
866.258	314.05
866.692	481.55
867.126	351.6
867.56	182.05
867.994	111.7
868.428	94.8
868.862	126.05
869.296	111.15
869.73	138.3
870.164	118.7
870.598	109.25
871.031	76.1
871.465	68.8
871.899	51.7
872.333	44.1
872.766	54.3
873.2	52.45
873.634	48.35
874.067	55.85
874.501	57.4
874.935	55.25
875.368	56.65
875.802	49.4
876.235	45.15
876.669	46.1
877.102	39.65
877.535	41.55
877.969	39.4
878.402	39.65
878.836	38.7
879.269	37.7
879.702	40.5
880.135	42.2
880.569	43.8
881.002	38.1
881.435	40.6
881.868	42.8
882.301	35.65
882.734	33.65
883.167	41.4
883.601	42.05
884.034	36.45
884.467	34.8
884.899	31.3
885.332	29.5
885.765	34.15
886.198	31.4
886.631	32
887.064	32.7
887.497	31.25
887.929	32.75
888.362	32.35
888.795	26.75
889.228	37.35
889.66	33.9
890.093	30.25
890.526	30.85
890.958	31.85
891.391	28.6
891.823	30.35
892.256	36.05
892.688	35.65
893.121	24.55
893.553	33
893.985	26
894.418	27.6
894.85	33.75
895.282	27.05
895.715	28.45
896.147	25.9
896.579	21.55
897.011	29.6
897.444	27.95
897.876	25.15
898.308	26.5
898.74	23.7
899.172	31.9
899.604	28.55
900.036	30.9
900.468	26.1
900.9	30.25
901.332	36.6
901.764	40.05
902.196	35.9
902.628	38.1
903.06	55.25
903.491	59.05
903.923	47.8
904.355	47.25
904.787	50.4
905.218	40.7
905.65	37.95
906.082	36.05
906.513	35.9
906.945	36.7
907.376	37.6
907.808	38.45
908.239	38.05
908.671	41.95
909.102	48.85
909.534	68.6
909.965	131.55
910.397	351.2
910.828	1071.7
911.259	646.9
911.691	334.25
912.122	189.9
912.553	95.5
912.984	52.7
913.415	49.25
913.847	42.75
914.278	32.1
914.709	32.35
915.14	30.3
915.571	32.3
916.002	31.25
916.433	29.9
916.864	28
917.295	33.05
917.726	36.35
918.157	48.95
918.587	47.05
919.018	40.55
919.449	39.3
919.88	47.75
920.311	69.6
920.741	217.2
921.172	393.9
921.603	187.95
922.033	115
922.464	77.55
922.895	44.4
923.325	32.3
923.756	30.5
924.186	37.7
924.617	56.75
925.047	74.05
925.478	65.5
925.908	48
926.338	36.6
926.769	25.25
927.199	29.85
927.629	24.2
928.06	31.45
928.49	28.15
928.92	25
929.35	20.9
929.78	15.45
930.21	21.6
930.641	15.75
931.071	14.5
931.501	15.35
931.931	14.3
932.361	14.05
932.791	17.95
933.221	18.25
933.651	27.05
934.08	49.85
934.51	28.15
934.94	21.15
935.37	17
935.8	11.55
936.229	8.15
936.659	12.65
937.089	24.15
937.519	34.1
937.948	53.6
938.378	33
938.807	21
939.237	12.1
939.666	12.9
940.096	5.55
940.525	2.35
940.955	7
941.384	9.15
941.814	11.3
942.243	6.55
942.672	6.75
943.102	3.5
943.531	6.35
943.96	5.55
944.39	4.85
944.819	6
945.248	6.05
945.677	11.8
946.106	3.9
946.535	5.9
946.964	6.9
947.393	6.95
947.822	7.3
948.251	7.95
948.68	7.8
949.109	4.7
949.538	7.2
949.967	8.8
950.396	5
950.825	6.4
951.254	4.65
951.682	-0.35
952.111	3.3
952.54	3.4
952.969	2.2
953.397	2.3
953.826	3.35
954.254	9.9
954.683	8.95
955.112	9.25
955.54	3.5
955.969	3.35
956.397	5.75
956.826	4.2
957.254	7.05
957.682	4.55
958.111	5.5
958.539	4.8
958.967	3.95
959.396	7
959.824	5.45
960.252	4.25
960.68	5.05
961.109	9.9
961.537	13.95
961.965	0.55
962.393	3.6
962.821	5.9
963.249	8.4
963.677	9.5
964.105	61.55
964.533	116
964.961	54.55
965.389	28.75
965.817	14.7
966.245	7.95
966.672	4.65
967.1	11.55
967.528	3.05
967.956	4.1
968.383	8.05
968.811	3.2
969.239	7.2
969.666	0.95
970.094	5.3
970.522	1.2
970.949	1.35
971.377	-2
971.804	4.05
972.232	3.75
972.659	0.4
973.087	4
973.514	2.15
973.941	-2.35
974.369	-2.4
974.796	3.95
975.223	-1.55
975.651	2.8
976.078	1.9
976.505	7.95
976.932	26.25
977.359	34.4
977.786	16.65
978.214	11.25
978.641	4.55
979.068	4.75
979.495	1.75
979.922	4.5
980.349	4.55
980.776	1.35
981.202	4.25
981.629	8.55
982.056	3.25
982.483	-2.75
982.91	7.25
983.337	-0.85
983.763	3.1
984.19	2.05
984.617	2
985.043	5.55
985.47	7
985.897	8.9
986.323	6.95
986.75	-0.85
987.176	5.4
987.603	3.65
988.029	-1.85
988.456	5.6
988.882	2.25
989.308	-2.25
989.735	3.5
990.161	2.7
990.587	-1.75
991.014	-0.8
991.44	0.7
991.866	5.45
992.292	4
992.719	1.05
993.145	3.35
993.571	5.55
993.997	3.95
994.423	6.8
994.849	-1.85
995.275	4.65
995.701	7.8
996.127	-2
996.553	0.75
996.979	2.5
997.405	6.15
997.83	2.4
998.256	2.45
998.682	2
999.108	5.8
999.534	-4.15
999.959	-1.65
1000.385	2.35
1000.811	-3.7
1001.236	-3
1001.662	-2.25
1002.087	5.1
1002.513	5.9
1002.938	-3.35
1003.364	2.35
1003.789	9.8
1004.215	1.85
1004.64	0.1
1005.066	5.1
1005.491	4.6
1005.916	-0.55
1006.342	6.35
1006.767	1.4
1007.192	2
1007.617	3.65
1008.042	-0.8
1008.468	-1.75
1008.893	3.1
1009.318	8.25
1009.743	12.55
1010.168	20.05
1010.593	19.4
1011.018	10.95
1011.443	2.3
1011.868	4
1012.293	3.05
1012.718	-3.55
1013.143	-0.35
1013.567	7.5
1013.992	3.55
1014.417	3.5
1014.842	1.95
1015.267	-1.65
1015.691	3.65
1016.116	2.7
1016.541	1.35
1016.965	0.5
1017.39	5.65
1017.814	-2.65
1018.239	-3
1018.663	-8.15
1019.088	0.4
1019.512	0.5
1019.937	-2.2
1020.361	0.1
1020.785	-0.5
1021.21	-3.8
1021.634	2.15
1022.058	2.55
1022.483	-1.25
1022.907	-4.9
1023.331	-2.8
1023.755	-1.65
1024.179	0.6
1024.604	4.2
1025.028	3.5
1025.452	3.65
1025.876	1.45
1026.3	2.1
1026.724	-2.9
1027.148	1.45
1027.572	-3.35
1027.996	3.1
1028.42	3.6
1028.843	1.45
1029.267	-3.2
1029.691	5.45
1030.115	-3.15
1030.539	-1.05
1030.962	-2.1
1031.386	0.5
1031.81	-3.7
1032.233	0.25
1032.657	-4.15
1033.08	4.65
1033.504	0.5
1033.927	-1.15
1034.351	-1.65
1034.774	-3.05
1035.198	-1.9
1035.621	-0.45
1036.045	-4.45
1036.468	3.1
1036.891	-3
1037.315	2.9
1037.738	1.35
1038.161	0.15
1038.584	-0.25
1039.008	-1.1
1039.431	-4.45
1039.854	-1.6
1040.277	1.8
1040.7	1.2
1041.123	3.75
1041.546	3.25
1041.969	5.2
1042.392	5.45
1042.815	-9.3
1043.238	1.45
1043.661	-1.3
1044.084	-2.05
1044.507	-1.55
1044.93	1.3
1045.352	-0.65
1045.775	0.65
1046.198	0.5
1046.621	3.75
1047.043	-0.85
1047.466	4.75
1047.889	-1.75
1048.311	4.1
1048.734	-0.95
1049.156	-1.35
1049.579	-1.9
1050.001	-2.9
1050.424	0.6
1050.846	-3.6
1051.269	-4.95
1051.691	-2.75
1052.113	4
1052.536	0.6
1052.958	-4.8
1053.38	1.1
1053.802	0.25
1054.225	1.8
1054.647	3.75
1055.069	-2.05
1055.491	3.1
1055.913	1.7
1056.335	-6.95
1056.757	-2.5
1057.179	-0.35
1057.601	-1.45
1058.023	-1.85
1058.445	-6.65
1058.867	1.65
1059.289	0.95
1059.711	-3.3
1060.133	-0.4
1060.555	-2.55
1060.976	0.4
1061.398	-2.6
1061.82	2.15
1062.241	-3.7
1062.663	2.35
1063.085	-4.5
1063.506	-8.55
1063.928	-2.6
1064.35	0.85
1064.771	0.05
1065.193	0.95
1065.614	-5.15
1066.035	4.6
1066.457	0.8
1066.878	-2.6
1067.3	-3.5
1067.721	-2.15
1068.142	2.3
1068.564	2.85
1068.985	-0.3
1069.406	-1.55
1069.827	-1.2
1070.248	-3.7
1070.67	-3.9
1071.091	-8
1071.512	-5.35
1071.933	-3.55
1072.354	-3.85
1072.775	1.15
1073.196	-0.1
1073.617	-3.2
1074.038	1.15
1074.459	-2.65
1074.88	-5.35
1075.3	1.6
1075.721	-1.2
1076.142	-4.65
1076.563	-4.9
1076.983	-1.05
1077.404	-3.9
1077.825	0.6
1078.246	-2.85
1078.666	-1.75
1079.087	-3.95
1079.507	-3.1
1079.928	-3.3
1080.348	-2.25
1080.769	2.9
1081.189	-1.1
1081.61	-6.05
1082.03	-0.6
1082.451	-5.9
1082.871	-5.65
1083.291	-2.2
1083.711	-3.8
1084.132	-6.25
1084.552	-7
1084.972	-5.3
1085.392	-4.9
1085.813	-3.7
1086.233	-2.45
1086.653	0.1
1087.073	-6.65
1087.493	-4.8
1087.913	-3.85
1088.333	-6.35
1088.753	-1.25
1089.173	0.35
1089.593	-0.65
1090.013	-2.15
1090.433	-4.85
1090.852	-2.45
1091.272	-2.1
1091.692	-0.85
1092.112	-1.2
1092.531	-3.75
1092.951	-2
1093.371	-1.65
1093.79	-0.5
1094.21	-7
1094.63	-1.9
1095.049	0.4
1095.469	-5.5
1095.888	0.25
1096.308	-2.6
1096.727	-1.3
1097.146	-2.85
1097.566	0.85
1097.985	1.55
1098.405	-0.95
1098.824	-0.65
1099.243	-5.3
1099.662	-1.65
1100.082	2
1100.501	-3.6
1100.92	5.75
1101.339	0.75
1101.758	4.55
