Data from MSPlasma+Separation6_Subt14_10-12-24-599.txt Node
Date: Fri Jul 21 10:12:24 EDT 2017
User: Ender
Spectrometer: HR+D1039
Trigger mode: 0
Integration Time (sec): 6.430000E-3
Scans to average: 20
Electric dark correction enabled: true
Nonlinearity correction enabled: false
Boxcar width: 0
XAxis mode: Wavelengths
Number of Pixels in Spectrum: 2048
>>>>>Begin Spectral Data<<<<<
187.836	-3.08
188.309	-3.08
188.782	-3.08
189.255	3.12
189.728	1.62
190.201	-0.98
190.674	1.02
191.147	-3.48
191.619	0.07
192.092	-1.18
192.565	0.62
193.038	4.17
193.511	2.77
193.984	0.07
194.456	-0.53
194.929	1.12
195.402	-2.48
195.874	-2.83
196.347	-0.28
196.82	4.32
197.292	-5.73
197.765	-2.93
198.237	0.47
198.71	-3.63
199.182	-0.98
199.655	1.82
200.127	3.07
200.6	1.12
201.072	4.72
201.544	1.77
202.017	2.12
202.489	5.97
202.961	-1.23
203.433	-4.43
203.906	-1.33
204.378	1.27
204.85	-3.53
205.322	3.07
205.794	1.37
206.266	-3.53
206.739	1.57
207.211	1.72
207.683	-0.38
208.155	0.47
208.627	2.77
209.099	5.37
209.57	1.97
210.042	1.02
210.514	0.22
210.986	0.47
211.458	-3.93
211.93	2.57
212.402	3.07
212.873	0.67
213.345	-4.63
213.817	5.32
214.288	-3.38
214.76	5.27
215.232	-1.18
215.703	2.12
216.175	-0.33
216.646	1.92
217.118	1.32
217.589	-6.38
218.061	0.87
218.532	0.27
219.004	5.97
219.475	3.02
219.946	4.07
220.418	3.02
220.889	2.82
221.36	3.17
221.832	6.57
222.303	6.82
222.774	0.77
223.245	-2.43
223.717	0.72
224.188	1.37
224.659	3.97
225.13	4.47
225.601	0.62
226.072	5.67
226.543	8.07
227.014	2.42
227.485	10.52
227.956	5.32
228.427	10.42
228.898	4.17
229.369	4.62
229.839	6.27
230.31	6.52
230.781	7.37
231.252	8.27
231.722	9.12
232.193	7.37
232.664	5.27
233.135	4.82
233.605	6.72
234.076	13.27
234.546	9.57
235.017	11.27
235.487	12.12
235.958	7.57
236.428	9.97
236.899	8.17
237.369	18.02
237.84	14.67
238.31	13.82
238.78	10.92
239.251	9.37
239.721	5.97
240.191	12.52
240.662	12.37
241.132	7.12
241.602	14.42
242.072	15.52
242.542	9.57
243.013	8.97
243.483	20.17
243.953	11.62
244.423	8.62
244.893	11.22
245.363	15.42
245.833	10.27
246.303	15.72
246.773	19.57
247.243	13.07
247.712	21.22
248.182	16.22
248.652	15.02
249.122	17.27
249.592	17.62
250.061	16.02
250.531	13.12
251.001	19.22
251.471	12.92
251.94	18.72
252.41	17.72
252.879	17.17
253.349	22.72
253.818	14.32
254.288	24.82
254.757	18.82
255.227	21.27
255.696	21.52
256.166	27.72
256.635	23.02
257.105	23.72
257.574	24.77
258.043	27.27
258.513	27.07
258.982	22.57
259.451	28.52
259.92	21.27
260.389	26.07
260.859	26.77
261.328	30.42
261.797	30.67
262.266	29.57
262.735	32.77
263.204	24.57
263.673	28.87
264.142	21.87
264.611	30.97
265.08	29.12
265.549	24.97
266.018	30.22
266.487	32.12
266.955	28.27
267.424	33.07
267.893	34.42
268.362	35.02
268.83	31.42
269.299	34.77
269.768	31.47
270.236	32.62
270.705	36.57
271.174	35.47
271.642	29.97
272.111	35.92
272.579	33.37
273.048	40.07
273.516	39.32
273.985	36.07
274.453	34.72
274.922	34.72
275.39	33.72
275.858	39.47
276.327	42.27
276.795	41.42
277.263	40.57
277.731	38.47
278.2	44.97
278.668	40.42
279.136	42.22
279.604	41.62
280.072	41.02
280.54	46.12
281.008	51.32
281.477	49.92
281.945	42.17
282.413	44.82
282.881	50.57
283.348	49.82
283.816	48.92
284.284	51.47
284.752	47.97
285.22	52.47
285.688	48.42
286.156	50.77
286.623	48.47
287.091	52.17
287.559	53.32
288.026	54.72
288.494	59.32
288.962	60.02
289.429	50.92
289.897	55.87
290.364	55.42
290.832	56.42
291.3	57.62
291.767	51.77
292.234	57.97
292.702	56.52
293.169	57.22
293.637	64.02
294.104	63.37
294.571	62.62
295.039	62.77
295.506	61.82
295.973	62.42
296.44	60.67
296.908	64.52
297.375	65.42
297.842	66.32
298.309	66.22
298.776	69.02
299.243	67.32
299.71	73.07
300.177	67.67
300.644	73.82
301.111	70.97
301.578	73.52
302.045	71.37
302.512	75.62
302.979	78.32
303.446	76.12
303.913	77.52
304.379	79.57
304.846	79.27
305.313	85.57
305.78	90.27
306.246	84.47
306.713	86.12
307.18	87.12
307.646	85.92
308.113	86.42
308.579	90.22
309.046	94.47
309.512	92.72
309.979	95.32
310.445	88.72
310.912	97.57
311.378	97.97
311.845	101.27
312.311	93.02
312.777	99.12
313.244	100.62
313.71	97.92
314.176	105.37
314.642	107.27
315.109	104.47
315.575	101.22
316.041	103.62
316.507	101.32
316.973	109.17
317.439	108.67
317.905	109.37
318.371	105.67
318.837	108.82
319.303	110.92
319.769	112.12
320.235	115.22
320.701	118.02
321.167	111.17
321.633	118.82
322.099	111.57
322.564	118.07
323.03	114.32
323.496	116.47
323.962	119.82
324.427	123.87
324.893	121.92
325.359	120.02
325.824	128.07
326.29	127.87
326.755	120.57
327.221	125.22
327.686	132.52
328.152	131.22
328.617	139.17
329.083	135.42
329.548	138.72
330.014	140.97
330.479	141.92
330.944	141.67
331.41	144.67
331.875	142.77
332.34	136.42
332.805	143.87
333.271	144.12
333.736	143.27
334.201	145.32
334.666	152.22
335.131	155.07
335.596	153.82
336.061	150.32
336.526	151.17
336.991	147.67
337.456	148.27
337.921	143.72
338.386	148.27
338.851	150.52
339.316	152.02
339.781	151.02
340.246	149.42
340.711	153.67
341.175	152.12
341.64	157.37
342.105	162.32
342.569	170.37
343.034	164.52
343.499	169.22
343.963	173.32
344.428	175.52
344.893	172.52
345.357	178.67
345.822	179.22
346.286	186.37
346.751	186.12
347.215	189.42
347.679	200.32
348.144	210.47
348.608	208.07
349.073	203.42
349.537	215.37
350.001	209.27
350.465	211.22
350.93	214.57
351.394	220.22
351.858	221.52
352.322	220.92
352.786	220.77
353.25	224.02
353.715	224.52
354.179	241.22
354.643	243.12
355.107	246.42
355.571	238.42
356.035	241.27
356.498	237.37
356.962	238.32
357.426	237.72
357.89	238.82
358.354	230.87
358.818	225.12
359.281	232.27
359.745	234.72
360.209	233.82
360.673	228.97
361.136	230.42
361.6	238.02
362.064	238.37
362.527	243.62
362.991	245.92
363.454	247.02
363.918	251.22
364.381	255.87
364.845	252.02
365.308	253.17
365.772	252.92
366.235	248.82
366.698	251.67
367.162	249.27
367.625	261.52
368.088	261.62
368.552	252.62
369.015	259.12
369.478	262.62
369.941	264.47
370.404	266.12
370.867	262.67
371.331	266.42
371.794	272.92
372.257	267.07
372.72	269.92
373.183	277.12
373.646	278.72
374.109	278.62
374.572	279.67
375.035	281.77
375.497	283.67
375.96	290.17
376.423	294.32
376.886	294.82
377.349	297.67
377.811	297.47
378.274	305.12
378.737	297.17
379.199	312.87
379.662	305.57
380.125	310.02
380.587	318.92
381.05	320.92
381.512	317.62
381.975	326.87
382.437	343.12
382.9	333.22
383.362	335.32
383.825	337.67
384.287	341.82
384.75	335.37
385.212	344.97
385.674	342.52
386.136	342.12
386.599	348.27
387.061	342.12
387.523	351.97
387.985	348.77
388.447	354.22
388.91	352.02
389.372	353.82
389.834	366.32
390.296	349.07
390.758	353.27
391.22	352.92
391.682	354.82
392.144	355.07
392.606	358.22
393.068	364.17
393.529	394.87
393.991	406.47
394.453	379.67
394.915	367.47
395.377	352.22
395.838	361.97
396.3	359.87
396.762	367.42
397.224	371.22
397.685	367.17
398.147	374.22
398.608	374.12
399.07	380.87
399.531	381.22
399.993	389.67
400.454	398.02
400.916	396.02
401.377	402.47
401.839	399.07
402.3	403.62
402.762	422.07
403.223	458.37
403.684	452.72
404.145	430.22
404.607	420.02
405.068	412.22
405.529	409.22
405.99	418.07
406.451	417.82
406.913	411.17
407.374	415.97
407.835	413.07
408.296	428.67
408.757	428.67
409.218	441.72
409.679	449.42
410.14	455.32
410.601	469.37
411.062	476.52
411.522	474.02
411.983	481.62
412.444	487.87
412.905	499.07
413.366	519.72
413.826	555.52
414.287	635.12
414.748	782.82
415.208	794.97
415.669	656.27
416.13	582.82
416.59	577.02
417.051	608.02
417.511	635.32
417.972	689.12
418.432	749.92
418.893	845.72
419.353	803.22
419.814	594.02
420.274	526.77
420.734	515.97
421.195	534.47
421.655	525.47
422.115	534.37
422.576	535.32
423.036	540.92
423.496	551.92
423.956	577.77
424.416	616.87
424.876	695.67
425.336	684.67
425.797	668.32
426.257	656.77
426.717	599.57
427.177	536.87
427.637	533.57
428.097	549.12
428.556	563.22
429.016	603.57
429.476	594.67
429.936	561.57
430.396	549.92
430.856	556.27
431.315	556.47
431.775	606.27
432.235	668.32
432.694	680.02
433.154	623.12
433.614	614.47
434.073	594.22
434.533	539.67
434.993	526.32
435.452	545.02
435.912	540.17
436.371	555.02
436.83	554.92
437.29	546.12
437.749	543.12
438.209	545.97
438.668	567.32
439.127	563.47
439.587	571.12
440.046	551.32
440.505	567.62
440.964	572.92
441.424	596.02
441.883	609.97
442.342	584.92
442.801	566.07
443.26	572.17
443.719	574.92
444.178	571.17
444.637	581.87
445.096	588.07
445.555	591.37
446.014	588.37
446.473	583.72
446.932	596.27
447.391	596.87
447.849	610.67
448.308	599.57
448.767	600.52
449.226	613.52
449.685	623.42
450.143	655.07
450.602	644.62
451.061	612.92
451.519	614.77
451.978	603.37
452.436	601.17
452.895	608.22
453.353	600.62
453.812	593.72
454.27	595.47
454.729	597.72
455.187	613.22
455.646	599.72
456.104	607.87
456.562	615.27
457.021	624.92
457.479	609.22
457.937	614.37
458.395	632.72
458.854	629.27
459.312	622.12
459.77	614.52
460.228	639.77
460.686	640.52
461.144	640.02
461.602	633.47
462.06	637.62
462.518	645.62
462.976	641.82
463.434	657.17
463.892	660.42
464.35	671.87
464.808	674.62
465.266	687.02
465.724	691.07
466.181	691.02
466.639	694.32
467.097	713.82
467.555	735.37
468.012	732.52
468.47	735.07
468.928	764.42
469.385	777.77
469.843	788.92
470.3	778.07
470.758	801.77
471.215	805.32
471.673	821.87
472.13	847.57
472.588	857.62
473.045	860.97
473.503	865.82
473.96	897.72
474.417	898.87
474.875	932.52
475.332	952.22
475.789	949.67
476.246	966.82
476.704	996.22
477.161	996.22
477.618	1003.62
478.075	1024.32
478.532	1047.72
478.989	1078.67
479.446	1132.42
479.903	1116.72
480.36	1143.97
480.817	1135.82
481.274	1138.97
481.731	1179.12
482.188	1199.22
482.645	1224.17
483.102	1234.32
483.558	1270.12
484.015	1303.52
484.472	1296.72
484.929	1309.87
485.385	1306.07
485.842	1307.57
486.299	1315.77
486.755	1313.67
487.212	1301.27
487.668	1260.27
488.125	1253.67
488.582	1239.87
489.038	1245.87
489.494	1260.32
489.951	1252.87
490.407	1263.67
490.864	1271.27
491.32	1259.57
491.776	1262.87
492.233	1287.52
492.689	1278.37
493.145	1269.92
493.602	1271.17
494.058	1284.82
494.514	1297.22
494.97	1289.22
495.426	1312.87
495.882	1320.47
496.338	1321.77
496.794	1330.52
497.251	1330.67
497.707	1353.92
498.163	1357.42
498.618	1352.72
499.074	1350.77
499.53	1379.92
499.986	1373.57
500.442	1379.12
500.898	1359.47
501.354	1378.57
501.809	1382.82
502.265	1390.42
502.721	1404.12
503.177	1400.62
503.632	1405.17
504.088	1417.27
504.543	1433.72
504.999	1440.02
505.455	1433.17
505.91	1414.37
506.366	1428.02
506.821	1428.97
507.277	1414.12
507.732	1424.82
508.187	1426.22
508.643	1444.62
509.098	1439.42
509.553	1458.72
510.009	1462.97
510.464	1493.22
510.919	1512.72
511.375	1532.97
511.83	1549.12
512.285	1575.12
512.74	1602.42
513.195	1626.32
513.65	1664.02
514.105	1680.67
514.56	1677.62
515.015	1719.62
515.47	1733.07
515.925	1696.57
516.38	1702.47
516.835	1707.17
517.29	1700.17
517.745	1703.32
518.2	1673.62
518.655	1625.22
519.109	1611.72
519.564	1583.92
520.019	1562.17
520.474	1559.42
520.928	1556.22
521.383	1531.97
521.838	1526.97
522.292	1521.07
522.747	1511.27
523.201	1518.82
523.656	1487.12
524.11	1490.32
524.565	1474.17
525.019	1481.92
525.474	1469.97
525.928	1457.82
526.382	1477.32
526.837	1459.97
527.291	1465.77
527.745	1452.92
528.2	1458.77
528.654	1430.62
529.108	1433.72
529.562	1443.97
530.016	1437.87
530.47	1448.82
530.925	1434.07
531.379	1434.27
531.833	1444.87
532.287	1438.92
532.741	1428.22
533.195	1430.07
533.649	1438.67
534.103	1440.72
534.556	1414.82
535.01	1433.57
535.464	1424.52
535.918	1422.52
536.372	1443.52
536.826	1434.47
537.279	1425.62
537.733	1422.52
538.187	1435.62
538.64	1435.67
539.094	1444.42
539.548	1470.12
540.001	1465.37
540.455	1467.92
540.908	1477.42
541.362	1496.77
541.815	1498.07
542.269	1522.82
542.722	1530.92
543.175	1547.97
543.629	1563.12
544.082	1575.27
544.536	1602.67
544.989	1591.32
545.442	1615.27
545.895	1605.57
546.349	1614.62
546.802	1614.37
547.255	1619.67
547.708	1622.52
548.161	1643.47
548.614	1649.67
549.067	1661.97
549.52	1645.72
549.973	1603.47
550.426	1610.77
550.879	1597.07
551.332	1594.62
551.785	1599.32
552.238	1618.22
552.691	1620.62
553.144	1643.52
553.596	1686.92
554.049	1695.07
554.502	1725.02
554.955	1776.27
555.407	1797.87
555.86	1775.82
556.313	1744.87
556.765	1723.47
557.218	1697.27
557.67	1699.62
558.123	1682.12
558.576	1667.82
559.028	1669.82
559.48	1700.82
559.933	1693.97
560.385	1630.07
560.838	1558.17
561.29	1502.12
561.742	1507.07
562.195	1469.32
562.647	1459.57
563.099	1449.32
563.551	1445.07
564.004	1465.87
564.456	1459.87
564.908	1413.57
565.36	1374.77
565.812	1346.02
566.264	1337.17
566.716	1318.92
567.168	1296.72
567.62	1296.02
568.072	1284.82
568.524	1283.82
568.976	1267.72
569.428	1253.02
569.88	1254.87
570.332	1268.57
570.784	1262.52
571.235	1258.07
571.687	1268.22
572.139	1275.37
572.59	1286.57
573.042	1297.37
573.494	1291.52
573.945	1275.27
574.397	1237.82
574.849	1236.17
575.3	1240.67
575.752	1221.62
576.203	1212.92
576.655	1220.52
577.106	1198.47
577.557	1194.77
578.009	1180.27
578.46	1188.22
578.912	1176.92
579.363	1183.42
579.814	1184.07
580.265	1183.07
580.717	1184.72
581.168	1176.32
581.619	1184.02
582.07	1199.02
582.521	1188.22
582.972	1180.02
583.423	1188.57
583.875	1194.87
584.326	1208.57
584.777	1228.82
585.227	1245.82
585.678	1260.22
586.129	1272.62
586.58	1289.37
587.031	1315.12
587.482	1367.07
587.933	1384.37
588.384	1375.77
588.834	1365.22
589.285	1345.52
589.736	1358.87
590.186	1358.57
590.637	1345.12
591.088	1304.22
591.538	1280.92
591.989	1257.17
592.439	1236.27
592.89	1220.97
593.34	1219.97
593.791	1213.47
594.241	1206.82
594.692	1202.02
595.142	1199.02
595.593	1200.12
596.043	1199.47
596.493	1210.07
596.943	1213.47
597.394	1244.62
597.844	1260.22
598.294	1302.42
598.744	1339.87
599.195	1415.62
599.645	1496.72
600.095	1595.62
600.545	1680.32
600.995	1748.62
601.445	1819.87
601.895	1923.02
602.345	2004.37
602.795	1976.72
603.245	1875.67
603.695	1745.17
604.145	1638.02
604.594	1547.77
605.044	1458.42
605.494	1353.62
605.944	1270.22
606.393	1241.02
606.843	1226.32
607.293	1228.67
607.743	1214.72
608.192	1229.87
608.642	1241.12
609.091	1236.52
609.541	1241.77
609.99	1230.77
610.44	1201.27
610.889	1185.82
611.339	1166.97
611.788	1154.02
612.238	1152.82
612.687	1160.12
613.136	1166.82
613.586	1181.07
614.035	1178.67
614.484	1187.82
614.933	1186.92
615.383	1167.87
615.832	1137.97
616.281	1121.57
616.73	1099.07
617.179	1082.72
617.628	1044.97
618.077	1036.67
618.526	1014.92
618.975	1016.57
619.424	988.52
619.873	999.62
620.322	984.12
620.771	982.17
621.22	973.27
621.669	939.87
622.118	937.02
622.567	925.57
623.015	904.47
623.464	905.42
623.913	890.47
624.361	889.62
624.81	878.67
625.259	893.77
625.707	884.82
626.156	891.77
626.604	903.22
627.053	913.12
627.501	911.42
627.95	921.92
628.398	934.37
628.847	912.02
629.295	910.77
629.744	904.32
630.192	885.07
630.64	870.02
631.089	855.82
631.537	825.87
631.985	816.77
632.433	809.87
632.881	810.12
633.33	813.17
633.778	810.22
634.226	817.62
634.674	828.57
635.122	831.47
635.57	848.22
636.018	847.47
636.466	850.02
636.914	850.17
637.362	861.82
637.81	886.47
638.258	907.62
638.705	914.92
639.153	949.47
639.601	956.12
640.049	967.37
640.497	1001.47
640.944	1031.52
641.392	978.57
641.84	893.32
642.287	841.92
642.735	797.87
643.182	794.72
643.63	783.42
644.078	777.77
644.525	776.67
644.973	786.82
645.42	792.57
645.867	793.07
646.315	782.47
646.762	799.77
647.21	792.62
647.657	798.57
648.104	783.62
648.551	756.72
648.999	753.17
649.446	740.62
649.893	739.47
650.34	754.42
650.787	776.52
651.234	804.02
651.682	862.52
652.129	944.32
652.576	1085.32
653.023	1251.32
653.47	1351.47
653.917	1410.42
654.363	1457.72
654.81	1523.32
655.257	1569.77
655.704	1241.72
656.151	963.82
656.598	839.67
657.044	769.92
657.491	755.37
657.938	739.22
658.385	719.12
658.831	726.52
659.278	720.97
659.724	712.27
660.171	706.52
660.618	684.37
661.064	661.92
661.511	673.77
661.957	675.12
662.404	677.47
662.85	689.27
663.296	695.47
663.743	691.22
664.189	691.67
664.635	702.97
665.082	697.32
665.528	691.92
665.974	671.57
666.42	670.87
666.867	675.52
667.313	644.07
667.759	635.32
668.205	636.37
668.651	633.92
669.097	643.42
669.543	646.12
669.989	647.52
670.435	652.32
670.881	661.97
671.327	700.97
671.773	746.77
672.219	807.22
672.665	880.77
673.11	914.77
673.556	945.42
674.002	987.37
674.448	1006.22
674.893	836.67
675.339	705.62
675.785	654.02
676.23	619.62
676.676	592.62
677.122	575.07
677.567	563.27
678.013	538.17
678.458	537.17
678.904	539.27
679.349	532.22
679.794	533.02
680.24	531.97
680.685	524.92
681.131	526.37
681.576	527.02
682.021	537.22
682.466	538.12
682.912	538.87
683.357	570.12
683.802	620.52
684.247	694.02
684.692	745.92
685.137	786.12
685.583	798.37
686.028	860.47
686.473	811.57
686.918	688.27
687.363	625.12
687.807	593.77
688.252	553.57
688.697	533.92
689.142	513.82
689.587	510.37
690.032	531.82
690.477	549.07
690.921	578.67
691.366	617.52
691.811	638.02
692.255	692.02
692.7	854.17
693.145	1230.92
693.589	1904.32
694.034	2308.67
694.478	2524.37
694.923	2378.42
695.367	3475.07
695.812	2043.77
696.256	818.37
696.701	582.07
697.145	527.57
697.59	508.57
698.034	498.32
698.478	502.87
698.922	512.52
699.367	508.47
699.811	544.62
700.255	595.12
700.699	656.72
701.143	721.82
701.588	767.47
702.032	805.52
702.476	830.62
702.92	863.92
703.364	1119.92
703.808	1739.47
704.252	2221.42
704.696	2424.12
705.14	2332.87
705.584	3298.07
706.027	1768.92
706.471	852.17
706.915	625.32
707.359	543.02
707.803	495.57
708.246	482.77
708.69	478.72
709.134	478.67
709.577	478.32
710.021	484.42
710.465	473.82
710.908	472.72
711.352	492.42
711.795	556.17
712.239	599.27
712.682	618.07
713.126	603.37
713.569	688.27
714.012	552.47
714.456	467.47
714.899	445.47
715.342	428.87
715.786	406.07
716.229	391.27
716.672	377.92
717.115	380.37
717.558	391.37
718.002	405.02
718.445	423.27
718.888	450.72
719.331	461.77
719.774	468.22
720.217	460.77
720.66	432.72
721.103	404.42
721.546	382.62
721.989	369.17
722.432	368.47
722.874	363.72
723.317	369.02
723.76	404.02
724.203	500.67
724.645	681.22
725.088	820.72
725.531	818.47
725.974	924.27
726.416	812.32
726.859	476.12
727.301	387.37
727.744	360.62
728.187	362.42
728.629	370.07
729.071	400.97
729.514	417.47
729.956	442.17
730.399	449.57
730.841	448.57
731.283	430.32
731.726	420.27
732.168	422.82
732.61	443.97
733.053	482.57
733.495	537.72
733.937	608.17
734.379	714.67
734.821	912.37
735.263	1434.12
735.705	2592.47
736.148	3935.67
736.59	4062.62
737.032	4568.27
737.474	3717.82
737.916	1368.82
738.357	696.32
738.799	525.47
739.241	479.42
739.683	484.77
740.125	489.82
740.567	496.22
741.008	535.67
741.45	554.42
741.892	582.47
742.334	590.42
742.775	587.07
743.217	553.37
743.658	466.42
744.1	467.32
744.542	532.72
744.983	561.12
745.425	602.47
745.866	585.27
746.307	489.57
746.749	527.92
747.19	765.52
747.632	1515.17
748.073	2849.67
748.514	4070.42
748.956	5565.17
749.397	6593.42
749.838	4524.67
750.279	4432.27
750.72	2211.72
751.162	899.62
751.603	504.87
752.044	401.52
752.485	355.77
752.926	332.22
753.367	319.72
753.808	302.72
754.249	296.52
754.69	295.97
755.131	293.12
755.572	290.97
756.013	291.47
756.453	293.67
756.894	296.52
757.335	299.67
757.776	301.67
758.216	314.87
758.657	336.07
759.098	380.17
759.538	449.77
759.979	649.37
760.42	1307.72
760.86	3372.12
761.301	7249.42
761.741	8930.27
762.182	10755.17
762.622	6802.27
763.063	2310.92
763.503	922.12
763.943	530.47
764.384	418.62
764.824	357.17
765.264	332.12
765.705	310.87
766.145	294.42
766.585	278.12
767.025	272.17
767.465	270.47
767.906	279.12
768.346	302.12
768.786	347.07
769.226	501.42
769.666	1046.02
770.106	2392.87
770.546	3553.22
770.986	4187.72
771.426	3173.42
771.866	1254.52
772.306	547.47
772.745	332.07
773.185	281.27
773.625	268.22
774.065	276.07
774.505	379.12
774.944	658.07
775.384	961.02
775.824	1126.32
776.263	952.92
776.703	499.02
777.142	288.82
777.582	217.42
778.021	203.82
778.461	196.22
778.9	194.67
779.34	186.77
779.779	177.87
780.219	183.87
780.658	176.22
781.097	175.07
781.537	169.02
781.976	169.17
782.415	166.37
782.855	170.82
783.294	168.57
783.733	161.07
784.172	171.77
784.611	169.37
785.05	173.37
785.489	179.37
785.928	182.67
786.367	191.67
786.806	199.82
787.245	215.47
787.684	219.62
788.123	218.02
788.562	217.72
789.001	204.47
789.44	197.22
789.879	195.12
790.317	196.57
790.756	205.17
791.195	238.37
791.634	331.97
792.072	593.92
792.511	1497.07
792.95	2878.87
793.388	3659.17
793.827	2360.27
794.265	1038.17
794.704	480.22
795.142	289.92
795.581	240.77
796.019	216.57
796.458	215.92
796.896	220.32
797.334	256.37
797.773	340.97
798.211	667.97
798.649	1418.37
799.087	2449.47
799.526	3490.92
799.964	3710.42
800.402	2585.52
800.84	1118.87
801.278	526.12
801.716	317.47
802.154	249.32
802.592	239.52
803.03	242.22
803.468	246.57
803.906	238.77
804.344	237.87
804.782	231.82
805.22	235.67
805.658	242.87
806.096	259.02
806.533	286.87
806.971	372.77
807.409	542.52
807.847	1082.82
808.284	2799.67
808.722	5135.92
809.16	7243.97
809.597	9661.92
810.035	12521.87
810.472	8226.57
810.91	3325.52
811.347	1463.57
811.785	680.37
812.222	426.62
812.66	327.87
813.097	271.12
813.535	235.32
813.972	214.57
814.409	196.32
814.846	192.57
815.284	176.32
815.721	180.07
816.158	190.07
816.595	256.77
817.032	328.47
817.47	297.57
817.907	221.47
818.344	189.77
818.781	185.92
819.218	221.97
819.655	337.32
820.092	449.67
820.529	412.92
820.966	314.07
821.403	216.42
821.839	188.27
822.276	202.22
822.713	253.92
823.15	240.32
823.587	248.32
824.023	448.47
824.46	1167.77
824.897	2155.57
825.333	1723.32
825.77	754.12
826.206	380.67
826.643	215.27
827.08	162.82
827.516	140.92
827.953	133.82
828.389	122.02
828.825	121.07
829.262	109.67
829.698	110.92
830.135	101.57
830.571	102.07
831.007	110.12
831.443	103.57
831.88	107.32
832.316	111.17
832.752	112.92
833.188	114.12
833.624	112.97
834.06	115.22
834.497	117.17
834.933	116.82
835.369	129.47
835.805	142.02
836.241	139.77
836.677	157.12
837.112	179.42
837.548	225.37
837.984	333.57
838.42	723.67
838.856	2070.32
839.292	4285.57
839.727	3228.87
840.163	2039.67
840.599	3101.77
841.034	5052.92
841.47	2516.42
841.906	1165.52
842.341	603.27
842.777	422.42
843.212	432.37
843.648	271.42
844.083	188.87
844.519	136.52
844.954	119.12
845.39	104.67
845.825	103.92
846.261	99.57
846.696	99.12
847.131	93.12
847.566	93.52
848.002	91.12
848.437	104.77
848.872	100.52
849.307	136.32
849.742	250.27
850.177	676.52
850.613	1523.47
851.048	1111.17
851.483	490.77
851.918	260.72
852.353	141.82
852.788	99.72
853.223	88.62
853.657	78.62
854.092	77.07
854.527	81.42
854.962	79.37
855.397	91.37
855.832	75.17
856.266	73.02
856.701	65.92
857.136	73.32
857.57	86.17
858.005	106.67
858.44	90.17
858.874	84.07
859.309	93.72
859.743	86.37
860.178	82.92
860.612	87.62
861.047	120.12
861.481	171.02
861.915	112.27
862.35	84.57
862.784	68.67
863.218	66.02
863.653	74.42
864.087	89.32
864.521	112.22
864.955	189.92
865.39	351.57
865.824	248.47
866.258	299.42
866.692	460.77
867.126	332.42
867.56	175.27
867.994	112.72
868.428	97.02
868.862	122.57
869.296	107.82
869.73	135.12
870.164	117.42
870.598	107.77
871.031	72.92
871.465	63.87
871.899	53.17
872.333	47.47
872.766	45.57
873.2	47.42
873.634	52.62
874.067	56.72
874.501	55.62
874.935	57.97
875.368	54.57
875.802	49.77
876.235	42.97
876.669	43.57
877.102	37.32
877.535	38.77
877.969	40.62
878.402	38.92
878.836	37.62
879.269	37.22
879.702	40.62
880.135	42.62
880.569	40.57
881.002	37.77
881.435	37.42
881.868	42.07
882.301	34.27
882.734	35.72
883.167	35.82
883.601	34.27
884.034	34.22
884.467	29.77
884.899	39.37
885.332	28.87
885.765	32.12
886.198	33.32
886.631	33.32
887.064	34.67
887.497	34.12
887.929	35.52
888.362	28.77
888.795	33.67
889.228	34.12
889.66	32.72
890.093	31.32
890.526	34.02
890.958	31.42
891.391	30.32
891.823	29.67
892.256	30.22
892.688	28.87
893.121	31.92
893.553	32.17
893.985	27.57
894.418	26.77
894.85	34.97
895.282	29.77
895.715	21.62
896.147	26.02
896.579	27.67
897.011	29.42
897.444	32.12
897.876	23.27
898.308	25.02
898.74	30.02
899.172	32.52
899.604	32.47
900.036	24.02
900.468	25.27
900.9	29.57
901.332	35.07
901.764	38.07
902.196	32.87
902.628	37.87
903.06	54.72
903.491	61.67
903.923	51.62
904.355	47.47
904.787	47.87
905.218	40.77
905.65	34.62
906.082	39.17
906.513	30.57
906.945	35.52
907.376	36.47
907.808	33.02
908.239	34.17
908.671	46.82
909.102	48.07
909.534	67.47
909.965	131.82
910.397	339.57
910.828	1035.87
911.259	632.82
911.691	326.67
912.122	185.22
912.553	91.52
912.984	47.57
913.415	39.72
913.847	38.17
914.278	35.82
914.709	30.02
915.14	29.52
915.571	33.07
916.002	30.52
916.433	26.77
916.864	28.22
917.295	29.97
917.726	35.02
918.157	46.07
918.587	44.52
919.018	43.87
919.449	38.42
919.88	49.97
920.311	69.62
920.741	214.67
921.172	384.42
921.603	187.47
922.033	114.67
922.464	70.02
922.895	46.22
923.325	29.42
923.756	26.12
924.186	31.72
924.617	50.62
925.047	65.17
925.478	58.72
925.908	43.07
926.338	33.87
926.769	31.02
927.199	26.32
927.629	30.07
928.06	31.02
928.49	28.32
928.92	26.67
929.35	23.47
929.78	20.02
930.21	15.77
930.641	10.67
931.071	15.97
931.501	13.52
931.931	14.72
932.361	13.32
932.791	21.92
933.221	15.27
933.651	29.87
934.08	48.97
934.51	29.42
934.94	23.42
935.37	18.57
935.8	19.47
936.229	13.47
936.659	12.87
937.089	22.72
937.519	34.72
937.948	56.82
938.378	32.67
938.807	17.17
939.237	11.87
939.666	8.27
940.096	9.97
940.525	6.87
940.955	9.72
941.384	10.77
941.814	4.22
942.243	12.97
942.672	5.57
943.102	3.22
943.531	2.57
943.96	6.67
944.39	9.52
944.819	8.97
945.248	6.82
945.677	8.62
946.106	11.82
946.535	9.72
946.964	5.52
947.393	6.27
947.822	4.67
948.251	8.52
948.68	7.67
949.109	10.72
949.538	6.22
949.967	10.37
950.396	5.62
950.825	8.57
951.254	1.72
951.682	-0.73
952.111	4.42
952.54	4.42
952.969	4.27
953.397	0.22
953.826	5.17
954.254	7.12
954.683	3.07
955.112	9.22
955.54	4.92
955.969	6.12
956.397	8.67
956.826	2.62
957.254	6.22
957.682	8.37
958.111	2.27
958.539	7.27
958.967	2.82
959.396	7.52
959.824	8.27
960.252	6.07
960.68	6.47
961.109	8.87
961.537	11.42
961.965	2.22
962.393	4.42
962.821	2.87
963.249	7.12
963.677	10.07
964.105	65.02
964.533	113.17
964.961	54.92
965.389	26.52
965.817	15.52
966.245	5.02
966.672	7.37
967.1	7.37
967.528	-1.13
967.956	0.87
968.383	8.67
968.811	2.17
969.239	3.42
969.666	5.12
970.094	4.67
970.522	1.22
970.949	5.72
971.377	-0.83
971.804	1.27
972.232	6.82
972.659	4.92
973.087	5.17
973.514	0.07
973.941	3.52
974.369	-1.08
974.796	5.32
975.223	-0.48
975.651	2.97
976.078	4.72
976.505	9.02
976.932	27.97
977.359	30.92
977.786	17.87
978.214	13.37
978.641	6.37
979.068	7.92
979.495	3.07
979.922	7.97
980.349	5.32
980.776	9.67
981.202	4.02
981.629	7.27
982.056	2.97
982.483	-2.28
982.91	5.62
983.337	-1.33
983.763	2.27
984.19	3.87
984.617	5.57
985.043	1.92
985.47	5.57
985.897	1.62
986.323	8.22
986.75	-1.98
987.176	0.27
987.603	5.12
988.029	2.62
988.456	9.82
988.882	0.77
989.308	-3.98
989.735	-0.53
990.161	2.87
990.587	0.77
991.014	1.17
991.44	6.62
991.866	0.12
992.292	2.22
992.719	5.62
993.145	4.07
993.571	0.82
993.997	5.27
994.423	2.97
994.849	-1.23
995.275	3.27
995.701	2.87
996.127	-1.38
996.553	3.82
996.979	2.57
997.405	7.92
997.83	2.92
998.256	0.47
998.682	1.87
999.108	1.82
999.534	-3.73
999.959	2.27
1000.385	4.77
1000.811	-2.18
1001.236	-2.93
1001.662	-0.13
1002.087	6.22
1002.513	5.17
1002.938	0.52
1003.364	2.02
1003.789	5.62
1004.215	4.02
1004.64	2.47
1005.066	5.82
1005.491	0.17
1005.916	1.82
1006.342	1.67
1006.767	4.02
1007.192	2.32
1007.617	5.62
1008.042	1.47
1008.468	3.82
1008.893	6.62
1009.318	4.77
1009.743	7.02
1010.168	20.57
1010.593	20.47
1011.018	8.47
1011.443	8.12
1011.868	8.07
1012.293	4.12
1012.718	1.97
1013.143	-1.98
1013.567	10.37
1013.992	5.52
1014.417	3.72
1014.842	1.02
1015.267	0.32
1015.691	7.42
1016.116	0.47
1016.541	6.72
1016.965	-1.48
1017.39	1.42
1017.814	0.47
1018.239	0.57
1018.663	-3.58
1019.088	-1.28
1019.512	7.87
1019.937	-3.13
1020.361	2.02
1020.785	-3.98
1021.21	-1.73
1021.634	-1.33
1022.058	5.32
1022.483	-3.98
1022.907	0.97
1023.331	-4.18
1023.755	-3.08
1024.179	1.92
1024.604	-1.43
1025.028	3.47
1025.452	0.47
1025.876	4.52
1026.3	-2.38
1026.724	-1.33
1027.148	-0.08
1027.572	0.42
1027.996	2.57
1028.42	-0.48
1028.843	0.77
1029.267	2.17
1029.691	-0.53
1030.115	-1.33
1030.539	0.27
1030.962	1.82
1031.386	0.52
1031.81	3.52
1032.233	-2.43
1032.657	-9.33
1033.08	1.52
1033.504	-2.83
1033.927	-0.53
1034.351	1.07
1034.774	-1.33
1035.198	-3.18
1035.621	0.92
1036.045	-3.83
1036.468	8.72
1036.891	4.67
1037.315	3.97
1037.738	1.02
1038.161	6.22
1038.584	-1.63
1039.008	-2.73
1039.431	-2.63
1039.854	-7.58
1040.277	3.22
1040.7	-1.08
1041.123	0.62
1041.546	-3.13
1041.969	2.02
1042.392	6.12
1042.815	-5.08
1043.238	2.37
1043.661	2.07
1044.084	-2.73
1044.507	-0.38
1044.93	2.77
1045.352	0.42
1045.775	0.37
1046.198	6.42
1046.621	2.82
1047.043	2.32
1047.466	0.97
1047.889	0.42
1048.311	3.82
1048.734	-1.08
1049.156	-1.98
1049.579	-1.63
1050.001	-3.68
1050.424	0.17
1050.846	-4.28
1051.269	-5.73
1051.691	-1.88
1052.113	3.07
1052.536	-1.63
1052.958	-3.83
1053.38	-1.38
1053.802	-5.58
1054.225	2.22
1054.647	4.62
1055.069	-1.53
1055.491	5.67
1055.913	-0.78
1056.335	-7.38
1056.757	-3.38
1057.179	-2.33
1057.601	-0.23
1058.023	4.57
1058.445	-2.18
1058.867	5.12
1059.289	0.52
1059.711	-5.13
1060.133	4.52
1060.555	-2.28
1060.976	4.27
1061.398	-2.73
1061.82	0.87
1062.241	-3.48
1062.663	-0.93
1063.085	-5.13
1063.506	-2.33
1063.928	-4.28
1064.35	2.32
1064.771	-2.03
1065.193	0.67
1065.614	-1.73
1066.035	-0.88
1066.457	4.67
1066.878	1.92
1067.3	-2.88
1067.721	1.22
1068.142	0.82
1068.564	4.22
1068.985	-0.28
1069.406	-4.03
1069.827	3.67
1070.248	-1.28
1070.67	-3.93
1071.091	-3.33
1071.512	1.02
1071.933	-3.73
1072.354	-5.83
1072.775	-3.58
1073.196	0.12
1073.617	-4.63
1074.038	-3.28
1074.459	-3.58
1074.88	-4.98
1075.3	-1.93
1075.721	2.62
1076.142	-5.73
1076.563	-6.43
1076.983	-1.18
1077.404	-7.03
1077.825	-1.13
1078.246	-2.68
1078.666	0.47
1079.087	-4.23
1079.507	-3.63
1079.928	-3.68
1080.348	-3.18
1080.769	-3.03
1081.189	-1.23
1081.61	-4.23
1082.03	0.87
1082.451	0.72
1082.871	-5.83
1083.291	-5.03
1083.711	-2.88
1084.132	-3.38
1084.552	-0.48
1084.972	-8.98
1085.392	-5.88
1085.813	2.67
1086.233	-1.18
1086.653	-0.13
1087.073	-0.28
1087.493	-1.38
1087.913	0.12
1088.333	-2.13
1088.753	2.02
1089.173	-0.83
1089.593	2.42
1090.013	0.17
1090.433	-6.33
1090.852	4.62
1091.272	-5.73
1091.692	-3.73
1092.112	-3.58
1092.531	0.22
1092.951	0.27
1093.371	1.17
1093.79	-4.83
1094.21	-4.93
1094.63	-0.48
1095.049	0.87
1095.469	-2.73
1095.888	-1.38
1096.308	1.47
1096.727	-1.73
1097.146	-2.53
1097.566	-4.28
1097.985	-4.38
1098.405	-0.78
1098.824	4.17
1099.243	-3.33
1099.662	1.77
1100.082	1.42
1100.501	-0.58
1100.92	4.67
1101.339	-3.03
1101.758	0.17
