Data from MSPlasma+Separation6_Subt14_10-13-06-335.txt Node
Date: Fri Jul 21 10:13:06 EDT 2017
User: Ender
Spectrometer: HR+D1039
Trigger mode: 0
Integration Time (sec): 6.430000E-3
Scans to average: 20
Electric dark correction enabled: true
Nonlinearity correction enabled: false
Boxcar width: 0
XAxis mode: Wavelengths
Number of Pixels in Spectrum: 2048
>>>>>Begin Spectral Data<<<<<
187.836	1.91
188.309	1.91
188.782	1.91
189.255	-0.34
189.728	-0.14
190.201	-1.79
190.674	2.86
191.147	-4.69
191.619	3.86
192.092	-1.09
192.565	-3.59
193.038	2.06
193.511	2.56
193.984	1.86
194.456	0.46
194.929	-1.04
195.402	-2.79
195.874	-0.04
196.347	0.01
196.82	1.81
197.292	-1.99
197.765	-2.59
198.237	-5.89
198.71	-7.19
199.182	0.86
199.655	1.06
200.127	0.46
200.6	-4.19
201.072	2.11
201.544	-3.99
202.017	-1.09
202.489	0.26
202.961	-5.34
203.433	-0.89
203.906	-1.99
204.378	1.41
204.85	-4.09
205.322	-3.04
205.794	3.41
206.266	-1.44
206.739	2.11
207.211	-0.89
207.683	1.46
208.155	-3.54
208.627	-0.44
209.099	-0.19
209.57	4.91
210.042	2.86
210.514	5.46
210.986	-1.59
211.458	-2.14
211.93	-0.99
212.402	-2.24
212.873	-7.19
213.345	-3.54
213.817	2.51
214.288	-7.69
214.76	-0.34
215.232	-1.04
215.703	2.41
216.175	1.91
216.646	-1.19
217.118	1.71
217.589	-3.84
218.061	-0.79
218.532	-3.19
219.004	-1.74
219.475	0.71
219.946	2.61
220.418	-0.54
220.889	-1.09
221.36	4.06
221.832	2.71
222.303	2.06
222.774	-0.14
223.245	-2.94
223.717	-0.14
224.188	3.61
224.659	1.86
225.13	-0.99
225.601	-0.14
226.072	-0.04
226.543	5.36
227.014	1.36
227.485	3.01
227.956	2.31
228.427	4.56
228.898	3.51
229.369	1.21
229.839	2.51
230.31	7.66
230.781	6.26
231.252	7.56
231.722	7.31
232.193	6.91
232.664	1.61
233.135	0.91
233.605	4.51
234.076	9.26
234.546	6.26
235.017	9.81
235.487	6.36
235.958	6.56
236.428	10.26
236.899	7.36
237.369	11.11
237.84	10.66
238.31	9.11
238.78	0.86
239.251	8.61
239.721	5.11
240.191	9.26
240.662	9.71
241.132	10.61
241.602	11.86
242.072	8.21
242.542	9.11
243.013	5.81
243.483	16.71
243.953	7.91
244.423	13.16
244.893	10.86
245.363	16.41
245.833	11.96
246.303	13.36
246.773	13.36
247.243	11.01
247.712	13.11
248.182	19.86
248.652	17.31
249.122	14.86
249.592	15.31
250.061	10.71
250.531	12.71
251.001	15.01
251.471	16.56
251.94	16.06
252.41	16.81
252.879	13.56
253.349	21.26
253.818	20.06
254.288	19.16
254.757	16.51
255.227	20.61
255.696	18.11
256.166	24.11
256.635	22.96
257.105	22.51
257.574	29.66
258.043	20.46
258.513	23.36
258.982	19.51
259.451	23.76
259.92	21.46
260.389	24.46
260.859	24.16
261.328	25.61
261.797	23.36
262.266	27.81
262.735	26.86
263.204	22.81
263.673	25.81
264.142	24.71
264.611	25.76
265.08	29.71
265.549	24.96
266.018	27.76
266.487	32.51
266.955	25.41
267.424	32.11
267.893	35.36
268.362	34.71
268.83	28.31
269.299	31.86
269.768	35.41
270.236	28.81
270.705	33.71
271.174	34.86
271.642	28.91
272.111	29.96
272.579	35.31
273.048	33.96
273.516	34.66
273.985	34.46
274.453	34.86
274.922	35.01
275.39	33.71
275.858	39.96
276.327	39.41
276.795	41.26
277.263	40.11
277.731	37.06
278.2	39.66
278.668	41.01
279.136	42.91
279.604	38.61
280.072	42.11
280.54	41.36
281.008	47.66
281.477	41.86
281.945	38.71
282.413	43.41
282.881	47.91
283.348	46.61
283.816	45.21
284.284	45.71
284.752	48.86
285.22	46.81
285.688	47.61
286.156	52.41
286.623	48.71
287.091	48.81
287.559	55.96
288.026	52.06
288.494	56.11
288.962	53.61
289.429	52.96
289.897	51.06
290.364	53.11
290.832	53.61
291.3	51.16
291.767	56.01
292.234	55.46
292.702	54.86
293.169	58.36
293.637	60.76
294.104	62.86
294.571	57.91
295.039	65.06
295.506	57.96
295.973	62.36
296.44	58.21
296.908	67.21
297.375	61.11
297.842	61.56
298.309	62.86
298.776	61.86
299.243	67.71
299.71	67.06
300.177	64.06
300.644	66.36
301.111	62.51
301.578	71.81
302.045	65.21
302.512	63.91
302.979	70.51
303.446	70.81
303.913	73.36
304.379	77.66
304.846	75.31
305.313	84.81
305.78	83.61
306.246	78.96
306.713	82.86
307.18	84.16
307.646	83.16
308.113	84.96
308.579	84.51
309.046	86.26
309.512	86.56
309.979	88.96
310.445	83.56
310.912	88.66
311.378	96.11
311.845	92.51
312.311	87.91
312.777	91.16
313.244	95.31
313.71	91.36
314.176	101.66
314.642	92.91
315.109	94.21
315.575	91.91
316.041	94.01
316.507	93.51
316.973	103.76
317.439	107.66
317.905	104.26
318.371	98.91
318.837	103.91
319.303	102.16
319.769	99.26
320.235	106.86
320.701	109.81
321.167	101.26
321.633	104.61
322.099	108.21
322.564	108.66
323.03	108.21
323.496	112.11
323.962	111.91
324.427	115.76
324.893	113.36
325.359	122.66
325.824	117.91
326.29	125.21
326.755	116.66
327.221	115.61
327.686	127.01
328.152	130.26
328.617	128.91
329.083	133.31
329.548	129.86
330.014	128.11
330.479	134.26
330.944	132.91
331.41	139.96
331.875	128.31
332.34	132.21
332.805	129.51
333.271	134.91
333.736	134.51
334.201	133.16
334.666	141.66
335.131	143.96
335.596	146.91
336.061	142.26
336.526	145.31
336.991	136.11
337.456	137.11
337.921	131.86
338.386	140.06
338.851	138.16
339.316	137.91
339.781	136.91
340.246	146.61
340.711	144.71
341.175	145.11
341.64	152.61
342.105	154.91
342.569	161.41
343.034	154.26
343.499	157.06
343.963	163.26
344.428	159.91
344.893	161.56
345.357	170.66
345.822	168.01
346.286	171.41
346.751	170.16
347.215	176.11
347.679	180.46
348.144	192.61
348.608	191.06
349.073	189.26
349.537	196.66
350.001	194.96
350.465	200.56
350.93	200.41
351.394	201.66
351.858	202.26
352.322	204.46
352.786	207.96
353.25	213.06
353.715	206.41
354.179	221.71
354.643	224.21
355.107	225.86
355.571	218.46
356.035	221.46
356.498	223.11
356.962	214.76
357.426	214.76
357.89	209.31
358.354	206.36
358.818	211.11
359.281	214.96
359.745	214.86
360.209	210.56
360.673	212.31
361.136	213.86
361.6	219.86
362.064	223.66
362.527	230.01
362.991	227.41
363.454	219.36
363.918	230.56
364.381	235.06
364.845	226.76
365.308	227.46
365.772	228.36
366.235	232.86
366.698	229.46
367.162	223.36
367.625	229.01
368.088	239.81
368.552	236.31
369.015	236.01
369.478	237.11
369.941	238.41
370.404	247.41
370.867	238.96
371.331	241.91
371.794	247.66
372.257	247.31
372.72	251.26
373.183	258.06
373.646	253.21
374.109	257.46
374.572	253.51
375.035	257.21
375.497	258.81
375.96	263.36
376.423	271.36
376.886	270.76
377.349	275.56
377.811	280.51
378.274	279.96
378.737	273.31
379.199	279.31
379.662	276.81
380.125	283.06
380.587	283.06
381.05	288.01
381.512	291.01
381.975	302.06
382.437	312.21
382.9	297.71
383.362	303.31
383.825	309.61
384.287	308.76
384.75	307.61
385.212	311.01
385.674	317.01
386.136	318.66
386.599	310.96
387.061	314.86
387.523	320.01
387.985	320.01
388.447	322.11
388.91	322.46
389.372	330.96
389.834	329.11
390.296	322.56
390.758	329.01
391.22	318.21
391.682	321.56
392.144	321.76
392.606	326.66
393.068	334.36
393.529	358.91
393.991	364.41
394.453	345.81
394.915	330.01
395.377	324.61
395.838	333.51
396.3	327.21
396.762	338.01
397.224	336.26
397.685	333.76
398.147	338.91
398.608	346.41
399.07	349.31
399.531	349.71
399.993	361.46
400.454	362.56
400.916	357.96
401.377	369.31
401.839	368.11
402.3	369.21
402.762	385.41
403.223	415.61
403.684	415.81
404.145	395.06
404.607	386.46
405.068	378.56
405.529	376.41
405.99	387.31
406.451	383.76
406.913	374.66
407.374	378.86
407.835	380.41
408.296	387.31
408.757	388.61
409.218	401.46
409.679	409.31
410.14	411.36
410.601	425.51
411.062	433.56
411.522	444.71
411.983	446.96
412.444	445.91
412.905	457.46
413.366	481.11
413.826	508.71
414.287	582.46
414.748	709.61
415.208	732.56
415.669	599.56
416.13	536.46
416.59	521.61
417.051	552.91
417.511	576.96
417.972	632.16
418.432	685.71
418.893	769.81
419.353	733.16
419.814	543.36
420.274	476.21
420.734	465.16
421.195	478.86
421.655	482.21
422.115	489.26
422.576	483.26
423.036	487.61
423.496	509.01
423.956	529.01
424.416	562.06
424.876	641.46
425.336	638.66
425.797	613.76
426.257	604.26
426.717	552.26
427.177	492.66
427.637	486.01
428.097	504.36
428.556	524.01
429.016	553.06
429.476	542.36
429.936	511.36
430.396	498.66
430.856	509.76
431.315	515.16
431.775	557.56
432.235	613.71
432.694	625.81
433.154	570.26
433.614	557.36
434.073	548.41
434.533	496.56
434.993	492.31
435.452	501.71
435.912	504.01
436.371	507.71
436.83	501.86
437.29	506.46
437.749	500.61
438.209	506.26
438.668	513.81
439.127	522.21
439.587	527.76
440.046	512.06
440.505	533.11
440.964	539.86
441.424	553.31
441.883	563.66
442.342	537.36
442.801	521.86
443.26	531.26
443.719	530.16
444.178	530.46
444.637	530.01
445.096	536.96
445.555	541.01
446.014	541.31
446.473	543.96
446.932	541.46
447.391	555.36
447.849	559.31
448.308	555.46
448.767	556.36
449.226	568.16
449.685	574.61
450.143	608.46
450.602	601.26
451.061	569.91
451.519	573.31
451.978	560.86
452.436	559.76
452.895	569.76
453.353	561.26
453.812	554.36
454.27	555.51
454.729	559.76
455.187	564.46
455.646	568.26
456.104	569.91
456.562	571.76
457.021	583.01
457.479	554.01
457.937	572.31
458.395	598.16
458.854	597.36
459.312	578.91
459.77	580.21
460.228	592.16
460.686	599.36
461.144	596.26
461.602	592.91
462.06	596.91
462.518	602.66
462.976	597.21
463.434	609.96
463.892	619.21
464.35	628.66
464.808	638.81
465.266	646.46
465.724	654.16
466.181	655.56
466.639	648.86
467.097	679.76
467.555	701.11
468.012	697.06
468.47	697.61
468.928	725.46
469.385	734.31
469.843	744.86
470.3	735.76
470.758	754.81
471.215	756.01
471.673	778.16
472.13	798.16
472.588	801.06
473.045	802.01
473.503	812.31
473.96	855.81
474.417	847.96
474.875	881.16
475.332	896.16
475.789	904.91
476.246	916.51
476.704	936.21
477.161	941.41
477.618	945.11
478.075	970.31
478.532	998.11
478.989	1020.21
479.446	1067.51
479.903	1057.31
480.36	1083.56
480.817	1077.91
481.274	1087.06
481.731	1132.86
482.188	1155.56
482.645	1166.86
483.102	1178.01
483.558	1214.21
484.015	1243.96
484.472	1233.96
484.929	1244.96
485.385	1249.51
485.842	1239.06
486.299	1250.66
486.755	1243.91
487.212	1229.36
487.668	1194.61
488.125	1189.46
488.582	1174.71
489.038	1188.61
489.494	1207.46
489.951	1201.71
490.407	1212.56
490.864	1216.06
491.32	1198.91
491.776	1209.36
492.233	1226.11
492.689	1223.36
493.145	1212.66
493.602	1206.26
494.058	1223.81
494.514	1230.61
494.97	1238.91
495.426	1264.71
495.882	1263.11
496.338	1276.21
496.794	1280.66
497.251	1284.71
497.707	1300.96
498.163	1298.96
498.618	1307.61
499.074	1312.66
499.53	1323.71
499.986	1321.21
500.442	1311.76
500.898	1304.46
501.354	1314.96
501.809	1325.71
502.265	1326.31
502.721	1335.76
503.177	1344.41
503.632	1360.41
504.088	1357.96
504.543	1373.66
504.999	1377.81
505.455	1380.86
505.91	1372.66
506.366	1370.76
506.821	1370.91
507.277	1364.91
507.732	1377.41
508.187	1370.66
508.643	1385.61
509.098	1385.41
509.553	1394.71
510.009	1416.91
510.464	1452.71
510.919	1453.71
511.375	1478.71
511.83	1493.36
512.285	1509.01
512.74	1541.71
513.195	1559.31
513.65	1594.46
514.105	1634.66
514.56	1628.11
515.015	1657.76
515.47	1671.46
515.925	1639.26
516.38	1644.11
516.835	1649.31
517.29	1635.71
517.745	1643.61
518.2	1613.01
518.655	1577.76
519.109	1559.86
519.564	1534.01
520.019	1522.26
520.474	1512.71
520.928	1502.36
521.383	1490.86
521.838	1493.11
522.292	1473.21
522.747	1456.76
523.201	1465.36
523.656	1441.26
524.11	1433.86
524.565	1432.61
525.019	1438.36
525.474	1426.56
525.928	1417.31
526.382	1418.11
526.837	1420.91
527.291	1417.06
527.745	1416.91
528.2	1415.66
528.654	1393.91
529.108	1401.76
529.562	1394.81
530.016	1393.56
530.47	1404.76
530.925	1388.36
531.379	1385.91
531.833	1414.21
532.287	1407.86
532.741	1401.31
533.195	1404.06
533.649	1404.01
534.103	1406.51
534.556	1391.96
535.01	1404.81
535.464	1392.56
535.918	1397.06
536.372	1408.81
536.826	1396.11
537.279	1383.61
537.733	1390.96
538.187	1396.51
538.64	1396.61
539.094	1408.06
539.548	1429.36
540.001	1420.41
540.455	1429.96
540.908	1451.11
541.362	1463.91
541.815	1467.66
542.269	1497.31
542.722	1500.71
543.175	1509.36
543.629	1520.91
544.082	1528.01
544.536	1552.21
544.989	1561.06
545.442	1566.61
545.895	1569.36
546.349	1568.91
546.802	1564.16
547.255	1563.31
547.708	1588.06
548.161	1612.61
548.614	1609.56
549.067	1620.66
549.52	1603.16
549.973	1585.06
550.426	1572.46
550.879	1558.81
551.332	1559.96
551.785	1578.36
552.238	1585.71
552.691	1590.66
553.144	1619.71
553.596	1643.11
554.049	1667.16
554.502	1700.66
554.955	1738.51
555.407	1760.51
555.86	1738.81
556.313	1712.01
556.765	1696.11
557.218	1667.21
557.67	1667.06
558.123	1637.66
558.576	1644.81
559.028	1634.96
559.48	1672.21
559.933	1659.51
560.385	1587.46
560.838	1537.61
561.29	1474.11
561.742	1477.01
562.195	1433.21
562.647	1435.56
563.099	1433.11
563.551	1423.86
564.004	1444.81
564.456	1422.06
564.908	1400.56
565.36	1358.06
565.812	1321.86
566.264	1314.96
566.716	1294.56
567.168	1275.21
567.62	1274.66
568.072	1271.71
568.524	1252.61
568.976	1255.66
569.428	1242.31
569.88	1236.16
570.332	1250.51
570.784	1251.26
571.235	1238.26
571.687	1264.76
572.139	1262.71
572.59	1270.96
573.042	1280.26
573.494	1284.71
573.945	1266.71
574.397	1230.36
574.849	1225.21
575.3	1230.31
575.752	1209.81
576.203	1199.31
576.655	1202.21
577.106	1190.81
577.557	1184.11
578.009	1171.76
578.46	1183.46
578.912	1167.31
579.363	1171.01
579.814	1161.76
580.265	1164.01
580.717	1174.46
581.168	1164.41
581.619	1172.96
582.07	1180.71
582.521	1185.71
582.972	1175.96
583.423	1177.56
583.875	1184.86
584.326	1191.51
584.777	1211.01
585.227	1227.86
585.678	1244.11
586.129	1261.46
586.58	1265.31
587.031	1304.41
587.482	1334.66
587.933	1358.61
588.384	1365.76
588.834	1342.06
589.285	1329.21
589.736	1335.21
590.186	1345.51
590.637	1328.46
591.088	1281.56
591.538	1260.96
591.989	1239.51
592.439	1227.21
592.89	1220.71
593.34	1210.41
593.791	1201.76
594.241	1187.56
594.692	1186.71
595.142	1186.96
595.593	1192.16
596.043	1187.96
596.493	1205.41
596.943	1202.96
597.394	1229.66
597.844	1252.21
598.294	1276.31
598.744	1321.46
599.195	1392.21
599.645	1473.11
600.095	1559.16
600.545	1638.51
600.995	1731.66
601.445	1799.26
601.895	1896.46
602.345	1967.26
602.795	1940.96
603.245	1842.36
603.695	1730.56
604.145	1630.76
604.594	1548.71
605.044	1452.26
605.494	1346.71
605.944	1271.81
606.393	1236.76
606.843	1224.56
607.293	1220.36
607.743	1209.26
608.192	1220.86
608.642	1223.26
609.091	1223.41
609.541	1215.11
609.99	1223.01
610.44	1188.36
610.889	1176.51
611.339	1163.81
611.788	1145.31
612.238	1148.96
612.687	1150.06
613.136	1156.46
613.586	1164.66
614.035	1166.66
614.484	1179.86
614.933	1172.36
615.383	1150.21
615.832	1120.41
616.281	1110.96
616.73	1085.71
617.179	1066.46
617.628	1045.61
618.077	1027.66
618.526	1004.26
618.975	1006.91
619.424	984.21
619.873	994.81
620.322	986.26
620.771	972.01
621.22	954.91
621.669	934.61
622.118	928.11
622.567	915.81
623.015	894.96
623.464	905.41
623.913	883.41
624.361	894.01
624.81	884.11
625.259	884.21
625.707	874.41
626.156	890.36
626.604	903.51
627.053	902.91
627.501	908.16
627.95	907.71
628.398	927.41
628.847	905.51
629.295	907.11
629.744	896.16
630.192	887.31
630.64	867.61
631.089	845.71
631.537	826.01
631.985	808.01
632.433	815.26
632.881	810.11
633.33	814.61
633.778	803.71
634.226	815.01
634.674	814.01
635.122	821.81
635.57	832.36
636.018	851.01
636.466	843.06
636.914	841.91
637.362	856.61
637.81	873.61
638.258	900.41
638.705	910.41
639.153	942.01
639.601	949.01
640.049	965.86
640.497	996.66
640.944	1026.66
641.392	962.51
641.84	890.06
642.287	839.31
642.735	803.61
643.182	787.96
643.63	781.56
644.078	771.61
644.525	770.91
644.973	778.61
645.42	786.11
645.867	788.96
646.315	783.46
646.762	792.96
647.21	795.46
647.657	799.66
648.104	783.26
648.551	751.01
648.999	754.51
649.446	747.51
649.893	746.36
650.34	753.96
650.787	768.41
651.234	796.01
651.682	864.06
652.129	938.51
652.576	1074.66
653.023	1230.91
653.47	1335.31
653.917	1389.16
654.363	1434.16
654.81	1524.56
655.257	1552.56
655.704	1231.51
656.151	961.31
656.598	843.81
657.044	770.51
657.491	750.96
657.938	734.16
658.385	725.56
658.831	714.21
659.278	716.41
659.724	700.56
660.171	697.76
660.618	682.96
661.064	668.66
661.511	680.86
661.957	674.46
662.404	676.01
662.85	690.66
663.296	690.41
663.743	698.41
664.189	697.91
664.635	696.86
665.082	693.46
665.528	693.41
665.974	672.61
666.42	670.66
666.867	670.81
667.313	626.36
667.759	630.06
668.205	629.56
668.651	629.21
669.097	633.11
669.543	635.21
669.989	647.81
670.435	652.51
670.881	661.46
671.327	691.41
671.773	739.66
672.219	802.66
672.665	872.81
673.11	906.16
673.556	936.26
674.002	969.76
674.448	993.26
674.893	821.76
675.339	704.56
675.785	649.16
676.23	617.46
676.676	586.01
677.122	581.81
677.567	565.51
678.013	548.06
678.458	538.91
678.904	534.06
679.349	520.71
679.794	533.11
680.24	529.11
680.685	524.26
681.131	528.06
681.576	528.11
682.021	524.76
682.466	538.21
682.912	538.26
683.357	570.06
683.802	617.96
684.247	685.11
684.692	736.56
685.137	775.16
685.583	794.91
686.028	852.21
686.473	803.26
686.918	687.86
687.363	614.86
687.807	594.86
688.252	551.81
688.697	532.56
689.142	511.81
689.587	518.91
690.032	527.01
690.477	546.31
690.921	575.36
691.366	615.51
691.811	644.01
692.255	695.41
692.7	849.31
693.145	1223.81
693.589	1872.76
694.034	2283.56
694.478	2489.56
694.923	2338.26
695.367	3426.66
695.812	2019.31
696.256	820.46
696.701	578.31
697.145	533.51
697.59	509.91
698.034	495.56
698.478	497.96
698.922	499.96
699.367	510.86
699.811	543.51
700.255	593.81
700.699	649.16
701.143	713.11
701.588	761.61
702.032	800.41
702.476	825.56
702.92	870.51
703.364	1117.26
703.808	1715.21
704.252	2184.11
704.696	2383.46
705.14	2296.11
705.584	3262.26
706.027	1744.51
706.471	848.26
706.915	615.41
707.359	532.61
707.803	498.36
708.246	479.36
708.69	485.41
709.134	475.06
709.577	474.91
710.021	479.51
710.465	473.21
710.908	473.41
711.352	489.26
711.795	543.06
712.239	590.31
712.682	605.96
713.126	600.51
713.569	684.56
714.012	547.81
714.456	460.56
714.899	445.56
715.342	425.71
715.786	404.76
716.229	393.46
716.672	385.16
717.115	387.71
717.558	385.31
718.002	407.46
718.445	422.46
718.888	447.06
719.331	455.86
719.774	471.46
720.217	464.51
720.66	428.06
721.103	405.81
721.546	378.81
721.989	364.31
722.432	368.51
722.874	367.31
723.317	371.36
723.76	403.21
724.203	494.96
724.645	675.66
725.088	814.81
725.531	812.26
725.974	917.06
726.416	807.71
726.859	477.71
727.301	385.16
727.744	366.51
728.187	369.96
728.629	369.61
729.071	397.51
729.514	414.66
729.956	436.71
730.399	445.36
730.841	448.81
731.283	427.76
731.726	415.71
732.168	420.06
732.61	439.51
733.053	482.76
733.495	532.01
733.937	596.21
734.379	717.11
734.821	903.11
735.263	1427.91
735.705	2577.86
736.148	3876.11
736.59	4002.21
737.032	4513.46
737.474	3677.11
737.916	1359.41
738.357	687.31
738.799	526.41
739.241	479.81
739.683	487.01
740.125	487.21
740.567	491.31
741.008	533.01
741.45	556.71
741.892	582.86
742.334	591.56
742.775	586.76
743.217	561.26
743.658	465.51
744.1	466.76
744.542	538.16
744.983	571.61
745.425	595.66
745.866	590.86
746.307	487.46
746.749	524.51
747.19	758.91
747.632	1506.36
748.073	2833.81
748.514	3999.06
748.956	5502.81
749.397	6481.16
749.838	4450.86
750.279	4381.16
750.72	2200.16
751.162	897.61
751.603	504.56
752.044	400.96
752.485	352.36
752.926	334.96
753.367	311.71
753.808	303.91
754.249	295.76
754.69	294.01
755.131	286.91
755.572	295.21
756.013	286.21
756.453	290.01
756.894	299.36
757.335	298.16
757.776	303.96
758.216	312.91
758.657	333.41
759.098	368.81
759.538	444.16
759.979	643.86
760.42	1304.46
760.86	3361.86
761.301	7198.66
761.741	8803.66
762.182	10630.21
762.622	6701.46
763.063	2308.66
763.503	917.21
763.943	530.16
764.384	417.46
764.824	356.96
765.264	329.21
765.705	313.86
766.145	295.66
766.585	280.91
767.025	274.46
767.465	271.51
767.906	273.36
768.346	298.56
768.786	344.76
769.226	504.26
769.666	1032.21
770.106	2362.81
770.546	3493.31
770.986	4139.21
771.426	3122.11
771.866	1244.66
772.306	544.76
772.745	334.56
773.185	268.81
773.625	261.11
774.065	269.61
774.505	383.86
774.944	662.21
775.384	987.86
775.824	1145.91
776.263	959.36
776.703	502.96
777.142	289.91
777.582	218.11
778.021	199.86
778.461	196.91
778.9	196.56
779.34	185.41
779.779	178.96
780.219	174.46
780.658	176.51
781.097	172.31
781.537	168.41
781.976	168.31
782.415	167.26
782.855	164.91
783.294	169.26
783.733	166.41
784.172	170.06
784.611	167.41
785.05	174.31
785.489	180.91
785.928	181.96
786.367	188.16
786.806	199.06
787.245	211.21
787.684	218.06
788.123	217.71
788.562	210.66
789.001	206.71
789.44	196.16
789.879	198.91
790.317	198.76
790.756	213.31
791.195	237.01
791.634	327.21
792.072	589.71
792.511	1497.66
792.95	2843.06
793.388	3625.81
793.827	2340.71
794.265	1031.96
794.704	480.76
795.142	286.51
795.581	238.26
796.019	213.76
796.458	209.81
796.896	211.81
797.334	250.91
797.773	345.06
798.211	664.51
798.649	1413.91
799.087	2429.11
799.526	3454.21
799.964	3668.26
800.402	2549.36
800.84	1111.11
801.278	521.96
801.716	315.51
802.154	249.31
802.592	241.61
803.03	239.56
803.468	242.71
803.906	250.41
804.344	238.01
804.782	229.96
805.22	234.41
805.658	241.01
806.096	256.56
806.533	289.01
806.971	369.71
807.409	539.01
807.847	1073.66
808.284	2800.01
808.722	5098.21
809.16	7170.76
809.597	9588.86
810.035	12413.51
810.472	8112.81
810.91	3293.11
811.347	1451.46
811.785	679.06
812.222	423.76
812.66	326.61
813.097	273.36
813.535	238.66
813.972	216.06
814.409	199.46
814.846	185.96
815.284	173.21
815.721	180.76
816.158	189.81
816.595	257.56
817.032	334.26
817.47	308.11
817.907	221.06
818.344	189.06
818.781	183.61
819.218	225.16
819.655	337.61
820.092	454.81
820.529	414.26
820.966	327.96
821.403	224.31
821.839	190.46
822.276	208.06
822.713	255.21
823.15	238.81
823.587	248.26
824.023	451.16
824.46	1166.26
824.897	2139.11
825.333	1692.96
825.77	740.06
826.206	376.26
826.643	214.31
827.08	162.01
827.516	142.36
827.953	130.81
828.389	124.06
828.825	120.56
829.262	117.41
829.698	109.11
830.135	105.16
830.571	103.81
831.007	102.31
831.443	107.16
831.88	102.46
832.316	111.66
832.752	104.51
833.188	111.41
833.624	112.21
834.06	115.11
834.497	114.86
834.933	115.11
835.369	127.56
835.805	133.66
836.241	138.76
836.677	152.66
837.112	175.41
837.548	221.86
837.984	340.41
838.42	722.56
838.856	2047.56
839.292	4242.11
839.727	3179.81
840.163	2030.61
840.599	3069.61
841.034	4974.21
841.47	2493.71
841.906	1158.41
842.341	596.26
842.777	425.36
843.212	442.11
843.648	269.91
844.083	187.21
844.519	139.21
844.954	120.76
845.39	106.66
845.825	103.86
846.261	95.46
846.696	91.61
847.131	92.21
847.566	91.91
848.002	93.86
848.437	102.31
848.872	103.76
849.307	135.16
849.742	246.06
850.177	670.81
850.613	1501.01
851.048	1090.71
851.483	480.71
851.918	256.81
852.353	138.01
852.788	94.81
853.223	87.91
853.657	78.86
854.092	77.76
854.527	71.96
854.962	81.81
855.397	90.86
855.832	78.26
856.266	67.61
856.701	68.91
857.136	70.36
857.57	85.66
858.005	102.96
858.44	91.96
858.874	86.01
859.309	86.66
859.743	83.76
860.178	81.16
860.612	88.21
861.047	118.16
861.481	172.81
861.915	113.66
862.35	82.76
862.784	66.51
863.218	65.31
863.653	68.41
864.087	84.06
864.521	111.01
864.955	193.16
865.39	350.86
865.824	256.36
866.258	305.81
866.692	471.26
867.126	342.36
867.56	178.11
867.994	109.26
868.428	96.46
868.862	120.96
869.296	108.26
869.73	133.96
870.164	115.91
870.598	108.26
871.031	73.61
871.465	65.26
871.899	49.81
872.333	44.56
872.766	48.76
873.2	50.01
873.634	47.76
874.067	52.71
874.501	53.86
874.935	52.76
875.368	53.96
875.802	45.21
876.235	39.61
876.669	44.76
877.102	39.26
877.535	39.41
877.969	37.16
878.402	38.96
878.836	37.61
879.269	41.91
879.702	37.71
880.135	41.21
880.569	39.86
881.002	35.96
881.435	38.76
881.868	35.01
882.301	35.06
882.734	37.11
883.167	39.21
883.601	37.26
884.034	34.26
884.467	28.41
884.899	36.11
885.332	30.06
885.765	31.01
886.198	26.76
886.631	30.96
887.064	29.16
887.497	29.01
887.929	30.91
888.362	28.16
888.795	30.66
889.228	35.76
889.66	29.51
890.093	28.81
890.526	30.76
890.958	31.51
891.391	33.71
891.823	27.61
892.256	28.56
892.688	29.31
893.121	27.71
893.553	33.96
893.985	24.01
894.418	23.86
894.85	31.41
895.282	27.01
895.715	26.16
896.147	20.91
896.579	22.06
897.011	29.41
897.444	29.21
897.876	23.51
898.308	22.81
898.74	24.41
899.172	28.56
899.604	29.36
900.036	24.41
900.468	25.01
900.9	28.96
901.332	39.76
901.764	38.16
902.196	35.41
902.628	37.06
903.06	52.91
903.491	58.81
903.923	46.71
904.355	45.01
904.787	51.21
905.218	39.16
905.65	40.76
906.082	35.81
906.513	29.36
906.945	34.51
907.376	36.21
907.808	32.86
908.239	34.96
908.671	40.61
909.102	46.51
909.534	68.46
909.965	126.76
910.397	337.31
910.828	1021.31
911.259	616.51
911.691	322.71
912.122	185.21
912.553	90.81
912.984	44.91
913.415	46.01
913.847	37.61
914.278	31.21
914.709	28.71
915.14	30.36
915.571	30.76
916.002	29.21
916.433	30.21
916.864	28.06
917.295	29.01
917.726	36.41
918.157	49.26
918.587	46.96
919.018	41.01
919.449	40.31
919.88	44.81
920.311	71.31
920.741	206.91
921.172	373.96
921.603	183.61
922.033	112.21
922.464	73.16
922.895	50.26
923.325	31.81
923.756	29.56
924.186	34.76
924.617	51.26
925.047	70.26
925.478	59.91
925.908	44.66
926.338	32.51
926.769	26.96
927.199	29.56
927.629	23.71
928.06	27.81
928.49	25.41
928.92	23.76
929.35	19.36
929.78	15.96
930.21	17.61
930.641	9.56
931.071	19.36
931.501	14.31
931.931	15.41
932.361	9.31
932.791	19.11
933.221	24.06
933.651	28.26
934.08	45.91
934.51	25.61
934.94	24.01
935.37	18.36
935.8	12.76
936.229	11.61
936.659	16.71
937.089	24.71
937.519	38.11
937.948	54.86
938.378	32.41
938.807	17.61
939.237	4.86
939.666	12.96
940.096	7.06
940.525	2.86
940.955	4.21
941.384	3.31
941.814	5.66
942.243	3.96
942.672	4.76
943.102	6.81
943.531	5.36
943.96	4.96
944.39	7.21
944.819	9.76
945.248	10.71
945.677	5.16
946.106	7.56
946.535	3.91
946.964	7.86
947.393	2.16
947.822	5.21
948.251	6.86
948.68	7.41
949.109	8.66
949.538	4.16
949.967	7.41
950.396	6.96
950.825	7.61
951.254	5.71
951.682	-4.14
952.111	1.21
952.54	3.61
952.969	5.16
953.397	0.91
953.826	6.46
954.254	7.76
954.683	7.76
955.112	4.16
955.54	3.41
955.969	5.76
956.397	3.11
956.826	4.01
957.254	8.16
957.682	1.91
958.111	5.61
958.539	4.16
958.967	3.41
959.396	8.21
959.824	3.41
960.252	5.71
960.68	4.56
961.109	7.41
961.537	7.86
961.965	0.16
962.393	4.01
962.821	2.71
963.249	6.16
963.677	12.96
964.105	58.41
964.533	107.36
964.961	49.61
965.389	27.06
965.817	13.61
966.245	3.11
966.672	9.56
967.1	6.01
967.528	-0.79
967.956	0.01
968.383	6.06
968.811	-0.44
969.239	3.66
969.666	3.81
970.094	2.26
970.522	4.36
970.949	4.96
971.377	-1.39
971.804	6.26
972.232	-1.59
972.659	-0.54
973.087	2.21
973.514	3.31
973.941	-0.14
974.369	1.11
974.796	2.06
975.223	0.11
975.651	0.76
976.078	0.36
976.505	7.36
976.932	25.06
977.359	32.66
977.786	18.66
978.214	13.46
978.641	5.31
979.068	0.26
979.495	2.76
979.922	3.46
980.349	6.31
980.776	4.76
981.202	4.21
981.629	5.11
982.056	5.01
982.483	-4.24
982.91	3.66
983.337	-1.84
983.763	1.66
984.19	4.81
984.617	1.01
985.043	0.71
985.47	5.66
985.897	5.51
986.323	9.11
986.75	-0.44
987.176	3.61
987.603	-0.79
988.029	4.96
988.456	4.16
988.882	3.31
989.308	-1.09
989.735	-0.64
990.161	1.36
990.587	1.66
991.014	4.71
991.44	3.96
991.866	3.41
992.292	1.56
992.719	0.56
993.145	5.66
993.571	3.01
993.997	1.71
994.423	2.66
994.849	-4.94
995.275	6.16
995.701	3.26
996.127	-5.69
996.553	-0.59
996.979	-0.34
997.405	5.26
997.83	3.86
998.256	1.01
998.682	3.51
999.108	1.16
999.534	-2.44
999.959	0.31
1000.385	6.46
1000.811	-3.69
1001.236	-2.19
1001.662	-1.49
1002.087	3.96
1002.513	-1.34
1002.938	-1.39
1003.364	2.66
1003.789	0.51
1004.215	-0.99
1004.64	-4.29
1005.066	3.61
1005.491	4.11
1005.916	0.26
1006.342	4.41
1006.767	-1.54
1007.192	1.91
1007.617	3.26
1008.042	0.81
1008.468	2.76
1008.893	5.96
1009.318	-0.34
1009.743	11.56
1010.168	25.01
1010.593	20.21
1011.018	11.36
1011.443	6.66
1011.868	5.41
1012.293	-0.19
1012.718	-0.94
1013.143	-2.04
1013.567	2.86
1013.992	6.41
1014.417	-0.14
1014.842	-0.59
1015.267	-0.04
1015.691	7.01
1016.116	1.56
1016.541	4.26
1016.965	-2.14
1017.39	2.76
1017.814	-3.24
1018.239	-2.49
1018.663	-5.44
1019.088	-0.64
1019.512	-0.54
1019.937	-1.19
1020.361	1.86
1020.785	-1.99
1021.21	-6.49
1021.634	1.46
1022.058	3.91
1022.483	-3.69
1022.907	-2.54
1023.331	-0.49
1023.755	1.11
1024.179	0.76
1024.604	3.56
1025.028	-2.84
1025.452	1.96
1025.876	-0.44
1026.3	3.51
1026.724	-3.39
1027.148	3.51
1027.572	0.46
1027.996	1.06
1028.42	-0.14
1028.843	-0.29
1029.267	-2.54
1029.691	0.06
1030.115	-1.54
1030.539	-3.74
1030.962	-2.04
1031.386	-0.74
1031.81	-1.29
1032.233	-2.24
1032.657	-4.64
1033.08	0.91
1033.504	-1.64
1033.927	-1.39
1034.351	-4.39
1034.774	-5.34
1035.198	-2.84
1035.621	-1.59
1036.045	-1.09
1036.468	4.11
1036.891	0.76
1037.315	1.06
1037.738	0.26
1038.161	-0.69
1038.584	2.16
1039.008	2.36
1039.431	2.71
1039.854	-7.79
1040.277	1.26
1040.7	2.76
1041.123	2.76
1041.546	0.51
1041.969	0.11
1042.392	3.26
1042.815	-10.59
1043.238	-3.34
1043.661	-1.99
1044.084	-1.24
1044.507	-3.19
1044.93	1.31
1045.352	-2.59
1045.775	0.36
1046.198	2.36
1046.621	3.51
1047.043	-1.74
1047.466	0.81
1047.889	-1.09
1048.311	2.86
1048.734	-2.34
1049.156	-5.24
1049.579	-4.04
1050.001	-2.54
1050.424	-2.49
1050.846	-6.94
1051.269	-5.54
1051.691	-2.39
1052.113	-0.74
1052.536	-2.14
1052.958	-7.44
1053.38	0.26
1053.802	1.41
1054.225	4.41
1054.647	2.91
1055.069	-1.34
1055.491	1.56
1055.913	4.26
1056.335	-11.04
1056.757	-5.09
1057.179	-0.69
1057.601	-0.69
1058.023	0.11
1058.445	-5.69
1058.867	-0.19
1059.289	-2.49
1059.711	-2.49
1060.133	1.26
1060.555	-2.84
1060.976	-2.29
1061.398	-5.49
1061.82	-1.59
1062.241	-4.74
1062.663	-0.19
1063.085	-7.14
1063.506	-10.49
1063.928	-6.39
1064.35	-4.54
1064.771	0.31
1065.193	-2.14
1065.614	-2.44
1066.035	4.26
1066.457	4.11
1066.878	-0.09
1067.3	-2.84
1067.721	0.46
1068.142	4.31
1068.564	1.51
1068.985	-1.14
1069.406	-6.79
1069.827	-0.34
1070.248	-3.94
1070.67	-5.44
1071.091	-9.94
1071.512	-4.64
1071.933	-3.89
1072.354	-5.14
1072.775	-2.74
1073.196	-0.44
1073.617	-6.59
1074.038	-1.44
1074.459	-6.84
1074.88	-3.29
1075.3	-2.39
1075.721	-0.24
1076.142	-3.34
1076.563	-12.24
1076.983	1.26
1077.404	-5.14
1077.825	-0.39
1078.246	-2.74
1078.666	-1.24
1079.087	-0.84
1079.507	-4.64
1079.928	1.36
1080.348	1.01
1080.769	-1.34
1081.189	-5.29
1081.61	-5.94
1082.03	1.41
1082.451	-1.04
1082.871	-5.49
1083.291	-5.04
1083.711	-1.54
1084.132	-3.29
1084.552	-6.09
1084.972	-10.99
1085.392	-5.29
1085.813	-0.24
1086.233	-2.74
1086.653	-1.84
1087.073	-1.94
1087.493	-2.54
1087.913	-2.94
1088.333	3.06
1088.753	-2.14
1089.173	3.91
1089.593	2.41
1090.013	-0.74
1090.433	-4.69
1090.852	0.21
1091.272	-7.49
1091.692	-2.04
1092.112	-6.54
1092.531	-7.34
1092.951	2.96
1093.371	0.76
1093.79	-5.69
1094.21	-10.14
1094.63	-2.04
1095.049	-2.84
1095.469	-9.59
1095.888	2.61
1096.308	3.96
1096.727	-3.34
1097.146	-3.04
1097.566	-4.59
1097.985	-3.24
1098.405	1.61
1098.824	2.86
1099.243	-2.24
1099.662	-0.74
1100.082	-1.99
1100.501	-4.44
1100.92	3.06
1101.339	-2.49
1101.758	-0.74
