Data from MSPlasma+Separation6_Subt14_10-12-29-840.txt Node
Date: Fri Jul 21 10:12:29 EDT 2017
User: Ender
Spectrometer: HR+D1039
Trigger mode: 0
Integration Time (sec): 6.430000E-3
Scans to average: 20
Electric dark correction enabled: true
Nonlinearity correction enabled: false
Boxcar width: 0
XAxis mode: Wavelengths
Number of Pixels in Spectrum: 2048
>>>>>Begin Spectral Data<<<<<
187.836	0.18
188.309	0.18
188.782	0.18
189.255	0.58
189.728	2.38
190.201	-3.87
190.674	-0.07
191.147	-1.27
191.619	-3.02
192.092	-2.17
192.565	-1.27
193.038	0.38
193.511	2.38
193.984	5.13
194.456	-0.97
194.929	1.18
195.402	-1.57
195.874	1.93
196.347	6.03
196.82	-1.52
197.292	-2.42
197.765	-1.77
198.237	1.53
198.71	-3.57
199.182	-0.02
199.655	4.83
200.127	0.63
200.6	-0.17
201.072	0.58
201.544	0.23
202.017	2.03
202.489	3.33
202.961	-1.12
203.433	-5.22
203.906	-5.22
204.378	2.48
204.85	0.68
205.322	1.68
205.794	-0.22
206.266	-4.57
206.739	7.28
207.211	0.13
207.683	0.83
208.155	-0.22
208.627	0.78
209.099	7.28
209.57	1.23
210.042	4.98
210.514	-4.32
210.986	0.38
211.458	-4.42
211.93	-1.02
212.402	1.43
212.873	1.88
213.345	-1.87
213.817	2.18
214.288	-1.57
214.76	-0.92
215.232	0.38
215.703	-2.57
216.175	2.23
216.646	5.13
217.118	0.23
217.589	1.23
218.061	-0.57
218.532	-0.52
219.004	4.48
219.475	1.18
219.946	1.03
220.418	5.48
220.889	0.03
221.36	2.43
221.832	5.03
222.303	5.38
222.774	3.28
223.245	1.68
223.717	3.38
224.188	3.98
224.659	0.08
225.13	-1.27
225.601	4.33
226.072	1.78
226.543	5.88
227.014	2.38
227.485	3.98
227.956	-0.42
228.427	7.38
228.898	4.98
229.369	5.13
229.839	9.08
230.31	2.28
230.781	0.68
231.252	7.88
231.722	8.28
232.193	6.08
232.664	3.68
233.135	6.48
233.605	6.78
234.076	12.88
234.546	8.48
235.017	5.73
235.487	4.58
235.958	7.48
236.428	10.08
236.899	4.23
237.369	9.93
237.84	10.08
238.31	10.68
238.78	6.08
239.251	11.13
239.721	6.38
240.191	11.13
240.662	9.88
241.132	7.38
241.602	13.43
242.072	11.53
242.542	10.58
243.013	8.73
243.483	10.83
243.953	8.98
244.423	10.33
244.893	11.48
245.363	13.63
245.833	12.88
246.303	14.48
246.773	15.53
247.243	12.18
247.712	14.73
248.182	16.23
248.652	16.88
249.122	13.33
249.592	18.83
250.061	13.93
250.531	16.38
251.001	13.38
251.471	18.08
251.94	20.53
252.41	20.13
252.879	19.73
253.349	24.68
253.818	18.48
254.288	22.18
254.757	23.03
255.227	23.43
255.696	20.68
256.166	23.88
256.635	22.08
257.105	20.88
257.574	22.43
258.043	18.48
258.513	24.03
258.982	21.98
259.451	25.48
259.92	17.33
260.389	26.28
260.859	25.38
261.328	28.58
261.797	23.18
262.266	22.93
262.735	25.28
263.204	24.73
263.673	25.78
264.142	26.58
264.611	26.08
265.08	25.38
265.549	24.03
266.018	28.93
266.487	29.43
266.955	29.68
267.424	34.43
267.893	30.88
268.362	31.33
268.83	31.88
269.299	32.38
269.768	30.78
270.236	29.88
270.705	32.33
271.174	30.73
271.642	30.48
272.111	32.73
272.579	32.23
273.048	34.33
273.516	37.13
273.985	31.78
274.453	33.03
274.922	36.48
275.39	34.38
275.858	36.83
276.327	37.53
276.795	39.13
277.263	36.03
277.731	35.18
278.2	41.48
278.668	36.23
279.136	43.28
279.604	39.48
280.072	37.68
280.54	40.53
281.008	47.78
281.477	41.63
281.945	41.58
282.413	40.53
282.881	45.93
283.348	43.18
283.816	42.18
284.284	43.28
284.752	42.63
285.22	46.98
285.688	47.78
286.156	45.38
286.623	45.88
287.091	46.58
287.559	48.88
288.026	54.88
288.494	50.48
288.962	50.63
289.429	48.68
289.897	49.73
290.364	49.93
290.832	51.18
291.3	55.68
291.767	55.78
292.234	57.18
292.702	54.23
293.169	52.93
293.637	55.88
294.104	59.88
294.571	59.08
295.039	60.58
295.506	52.88
295.973	59.28
296.44	54.28
296.908	65.48
297.375	61.43
297.842	66.53
298.309	57.03
298.776	61.78
299.243	65.28
299.71	63.63
300.177	63.28
300.644	61.78
301.111	68.13
301.578	69.83
302.045	63.23
302.512	66.68
302.979	71.58
303.446	71.88
303.913	71.98
304.379	78.83
304.846	77.03
305.313	82.38
305.78	82.68
306.246	79.18
306.713	82.63
307.18	83.28
307.646	80.18
308.113	78.58
308.579	82.48
309.046	84.68
309.512	86.23
309.979	87.33
310.445	81.73
310.912	85.53
311.378	91.53
311.845	92.78
312.311	87.23
312.777	90.73
313.244	98.98
313.71	95.28
314.176	98.88
314.642	97.03
315.109	97.78
315.575	93.33
316.041	100.48
316.507	96.58
316.973	104.63
317.439	105.43
317.905	104.08
318.371	98.53
318.837	100.98
319.303	105.48
319.769	102.93
320.235	109.08
320.701	106.98
321.167	109.78
321.633	104.03
322.099	104.88
322.564	107.43
323.03	107.43
323.496	108.28
323.962	110.63
324.427	118.38
324.893	114.53
325.359	119.33
325.824	114.78
326.29	120.03
326.755	116.48
327.221	118.93
327.686	127.38
328.152	127.63
328.617	129.18
329.083	130.88
329.548	129.13
330.014	133.43
330.479	132.03
330.944	132.78
331.41	134.48
331.875	130.08
332.34	129.43
332.805	135.83
333.271	132.83
333.736	134.13
334.201	132.93
334.666	148.68
335.131	146.03
335.596	152.38
336.061	140.53
336.526	148.18
336.991	139.23
337.456	138.48
337.921	136.78
338.386	139.23
338.851	136.33
339.316	136.73
339.781	138.43
340.246	141.73
340.711	142.13
341.175	144.68
341.64	152.28
342.105	153.63
342.569	158.73
343.034	156.23
343.499	157.93
343.963	166.48
344.428	164.08
344.893	165.83
345.357	174.68
345.822	166.73
346.286	174.13
346.751	173.68
347.215	174.03
347.679	182.73
348.144	194.78
348.608	190.48
349.073	192.83
349.537	197.68
350.001	196.38
350.465	194.78
350.93	200.63
351.394	203.18
351.858	205.48
352.322	208.78
352.786	204.03
353.25	204.78
353.715	215.88
354.179	226.28
354.643	225.38
355.107	230.13
355.571	224.63
356.035	222.23
356.498	220.03
356.962	219.03
357.426	214.83
357.89	214.98
358.354	214.88
358.818	217.23
359.281	218.28
359.745	218.83
360.209	218.28
360.673	218.53
361.136	213.88
361.6	221.23
362.064	220.48
362.527	233.63
362.991	226.73
363.454	223.83
363.918	237.93
364.381	238.43
364.845	237.13
365.308	234.83
365.772	235.98
366.235	238.63
366.698	233.93
367.162	231.53
367.625	241.88
368.088	248.23
368.552	242.63
369.015	247.43
369.478	245.73
369.941	245.03
370.404	253.38
370.867	249.78
371.331	253.13
371.794	258.03
372.257	258.93
372.72	252.38
373.183	259.18
373.646	258.63
374.109	258.98
374.572	259.78
375.035	261.03
375.497	270.13
375.96	273.58
376.423	270.18
376.886	275.48
377.349	278.03
377.811	284.48
378.274	280.83
378.737	282.33
379.199	284.28
379.662	287.78
380.125	290.13
380.587	293.73
381.05	301.28
381.512	301.18
381.975	309.88
382.437	319.58
382.9	316.03
383.362	310.83
383.825	319.23
384.287	321.48
384.75	316.68
385.212	324.98
385.674	321.08
386.136	329.98
386.599	323.83
387.061	322.73
387.523	324.88
387.985	327.13
388.447	341.88
388.91	332.28
389.372	334.98
389.834	337.28
390.296	323.88
390.758	338.33
391.22	336.58
391.682	328.38
392.144	332.43
392.606	331.23
393.068	342.43
393.529	366.73
393.991	378.53
394.453	355.63
394.915	344.98
395.377	330.58
395.838	345.43
396.3	344.08
396.762	351.53
397.224	347.43
397.685	347.03
398.147	354.03
398.608	357.08
399.07	363.23
399.531	355.98
399.993	368.58
400.454	372.83
400.916	370.33
401.377	377.08
401.839	380.88
402.3	381.38
402.762	396.18
403.223	426.78
403.684	425.88
404.145	407.63
404.607	397.23
405.068	388.78
405.529	390.88
405.99	392.18
406.451	400.68
406.913	388.78
407.374	391.63
407.835	393.78
408.296	402.48
408.757	410.88
409.218	413.83
409.679	423.38
410.14	429.78
410.601	441.58
411.062	451.73
411.522	452.53
411.983	452.48
412.444	459.03
412.905	476.73
413.366	495.43
413.826	519.93
414.287	597.68
414.748	730.08
415.208	749.48
415.669	617.83
416.13	554.58
416.59	537.28
417.051	568.78
417.511	599.13
417.972	655.88
418.432	704.78
418.893	790.83
419.353	757.13
419.814	565.23
420.274	494.33
420.734	481.13
421.195	500.73
421.655	493.93
422.115	505.28
422.576	500.63
423.036	503.98
423.496	520.68
423.956	539.73
424.416	579.88
424.876	661.23
425.336	650.98
425.797	635.38
426.257	617.98
426.717	566.08
427.177	505.58
427.637	504.43
428.097	516.73
428.556	526.88
429.016	571.28
429.476	556.88
429.936	530.43
430.396	516.33
430.856	522.48
431.315	537.23
431.775	572.08
432.235	627.93
432.694	649.13
433.154	588.13
433.614	568.58
434.073	558.43
434.533	513.98
434.993	500.63
435.452	516.88
435.912	513.68
436.371	522.98
436.83	519.88
437.29	522.28
437.749	518.23
438.209	521.43
438.668	529.98
439.127	533.93
439.587	536.53
440.046	524.48
440.505	535.78
440.964	540.83
441.424	561.28
441.883	576.38
442.342	551.28
442.801	531.93
443.26	543.08
443.719	543.23
444.178	537.08
444.637	549.98
445.096	554.58
445.555	557.43
446.014	557.13
446.473	553.28
446.932	555.58
447.391	560.63
447.849	568.83
448.308	570.23
448.767	569.78
449.226	585.48
449.685	591.28
450.143	622.58
450.602	613.28
451.061	578.93
451.519	579.23
451.978	570.08
452.436	561.38
452.895	576.63
453.353	578.03
453.812	564.73
454.27	563.63
454.729	573.68
455.187	582.88
455.646	574.13
456.104	574.43
456.562	584.28
457.021	593.43
457.479	565.18
457.937	588.43
458.395	610.58
458.854	599.28
459.312	588.63
459.77	591.73
460.228	594.68
460.686	613.98
461.144	608.03
461.602	601.98
462.06	606.23
462.518	624.38
462.976	617.68
463.434	619.93
463.892	634.58
464.35	638.13
464.808	644.88
465.266	648.43
465.724	660.08
466.181	668.03
466.639	658.68
467.097	680.88
467.555	704.28
468.012	705.33
468.47	701.83
468.928	726.43
469.385	733.13
469.843	748.18
470.3	739.98
470.758	764.28
471.215	767.33
471.673	779.08
472.13	796.03
472.588	813.18
473.045	817.53
473.503	822.88
473.96	859.58
474.417	849.33
474.875	877.33
475.332	900.53
475.789	904.03
476.246	925.28
476.704	947.88
477.161	948.68
477.618	953.43
478.075	975.13
478.532	991.28
478.989	1025.43
479.446	1064.98
479.903	1060.13
480.36	1086.38
480.817	1079.23
481.274	1090.23
481.731	1124.03
482.188	1139.78
482.645	1160.08
483.102	1178.43
483.558	1213.03
484.015	1238.38
484.472	1234.18
484.929	1246.03
485.385	1247.38
485.842	1248.18
486.299	1255.68
486.755	1244.53
487.212	1227.63
487.668	1195.18
488.125	1196.08
488.582	1176.78
489.038	1181.58
489.494	1194.28
489.951	1202.58
490.407	1193.78
490.864	1202.48
491.32	1194.53
491.776	1212.23
492.233	1226.48
492.689	1224.33
493.145	1212.48
493.602	1203.23
494.058	1222.63
494.514	1223.13
494.97	1232.03
495.426	1259.48
495.882	1261.08
496.338	1262.58
496.794	1277.13
497.251	1272.83
497.707	1282.48
498.163	1291.58
498.618	1286.63
499.074	1286.93
499.53	1299.18
499.986	1321.33
500.442	1309.08
500.898	1304.53
501.354	1323.13
501.809	1318.58
502.265	1313.38
502.721	1325.53
503.177	1331.63
503.632	1345.58
504.088	1345.18
504.543	1360.03
504.999	1363.88
505.455	1360.58
505.91	1359.53
506.366	1354.18
506.821	1370.33
507.277	1355.43
507.732	1359.23
508.187	1362.83
508.643	1368.93
509.098	1363.43
509.553	1377.53
510.009	1403.63
510.464	1429.43
510.919	1437.53
511.375	1451.88
511.83	1464.23
512.285	1499.83
512.74	1533.33
513.195	1549.28
513.65	1577.63
514.105	1599.18
514.56	1606.93
515.015	1649.18
515.47	1640.68
515.925	1618.23
516.38	1615.53
516.835	1619.78
517.29	1623.83
517.745	1619.28
518.2	1597.13
518.655	1558.73
519.109	1528.13
519.564	1504.08
520.019	1496.73
520.474	1486.13
520.928	1476.93
521.383	1461.53
521.838	1463.58
522.292	1455.88
522.747	1440.68
523.201	1442.73
523.656	1414.18
524.11	1420.13
524.565	1411.58
525.019	1410.58
525.474	1403.58
525.928	1387.78
526.382	1399.53
526.837	1389.38
527.291	1391.73
527.745	1385.28
528.2	1385.78
528.654	1369.38
529.108	1377.23
529.562	1370.08
530.016	1373.58
530.47	1372.43
530.925	1359.03
531.379	1365.08
531.833	1377.63
532.287	1387.53
532.741	1368.83
533.195	1371.43
533.649	1374.93
534.103	1378.93
534.556	1364.58
535.01	1375.78
535.464	1363.83
535.918	1363.48
536.372	1382.18
536.826	1378.88
537.279	1358.88
537.733	1357.38
538.187	1374.83
538.64	1356.08
539.094	1373.38
539.548	1401.03
540.001	1399.83
540.455	1404.03
540.908	1417.73
541.362	1435.08
541.815	1439.93
542.269	1468.93
542.722	1464.63
543.175	1477.43
543.629	1501.93
544.082	1510.63
544.536	1515.48
544.989	1524.43
545.442	1539.03
545.895	1539.23
546.349	1538.43
546.802	1531.58
547.255	1533.18
547.708	1561.98
548.161	1574.38
548.614	1562.03
549.067	1579.78
549.52	1560.13
549.973	1545.93
550.426	1535.23
550.879	1519.73
551.332	1523.88
551.785	1536.13
552.238	1550.98
552.691	1542.03
553.144	1574.03
553.596	1599.13
554.049	1623.68
554.502	1657.08
554.955	1688.63
555.407	1720.13
555.86	1693.73
556.313	1669.38
556.765	1655.03
557.218	1636.43
557.67	1614.98
558.123	1591.93
558.576	1593.78
559.028	1577.58
559.48	1614.88
559.933	1609.58
560.385	1554.83
560.838	1500.78
561.29	1447.63
561.742	1437.73
562.195	1416.68
562.647	1394.13
563.099	1383.88
563.551	1385.43
564.004	1405.68
564.456	1393.93
564.908	1352.68
565.36	1317.98
565.812	1284.38
566.264	1282.78
566.716	1260.53
567.168	1244.78
567.62	1240.18
568.072	1233.38
568.524	1226.08
568.976	1216.98
569.428	1208.58
569.88	1199.63
570.332	1214.83
570.784	1212.83
571.235	1213.48
571.687	1228.03
572.139	1226.13
572.59	1235.48
573.042	1242.18
573.494	1240.73
573.945	1219.53
574.397	1186.83
574.849	1178.73
575.3	1187.68
575.752	1176.28
576.203	1171.58
576.655	1174.43
577.106	1146.43
577.557	1138.28
578.009	1133.33
578.46	1138.48
578.912	1123.93
579.363	1144.78
579.814	1139.13
580.265	1140.33
580.717	1138.13
581.168	1141.13
581.619	1136.33
582.07	1159.13
582.521	1144.78
582.972	1141.78
583.423	1145.88
583.875	1150.13
584.326	1154.43
584.777	1180.28
585.227	1197.28
585.678	1212.53
586.129	1223.63
586.58	1235.63
587.031	1260.58
587.482	1300.43
587.933	1310.53
588.384	1320.28
588.834	1300.23
589.285	1294.23
589.736	1298.43
590.186	1307.28
590.637	1292.78
591.088	1248.58
591.538	1221.83
591.989	1206.38
592.439	1190.38
592.89	1181.43
593.34	1168.33
593.791	1165.28
594.241	1152.43
594.692	1142.48
595.142	1155.08
595.593	1149.88
596.043	1161.53
596.493	1169.58
596.943	1159.73
597.394	1199.98
597.844	1211.73
598.294	1243.48
598.744	1289.13
599.195	1352.88
599.645	1437.73
600.095	1511.23
600.545	1602.43
600.995	1677.63
601.445	1739.83
601.895	1842.18
602.345	1911.23
602.795	1881.83
603.245	1787.78
603.695	1661.38
604.145	1568.13
604.594	1478.48
605.044	1404.43
605.494	1303.63
605.944	1227.03
606.393	1196.43
606.843	1176.78
607.293	1179.58
607.743	1175.13
608.192	1186.73
608.642	1186.28
609.091	1188.38
609.541	1184.73
609.99	1182.23
610.44	1159.73
610.889	1140.73
611.339	1118.83
611.788	1102.38
612.238	1109.98
612.687	1120.88
613.136	1130.33
613.586	1135.08
614.035	1132.13
614.484	1140.73
614.933	1134.03
615.383	1116.58
615.832	1089.73
616.281	1080.73
616.73	1053.03
617.179	1033.03
617.628	1003.93
618.077	1000.53
618.526	970.73
618.975	972.13
619.424	952.78
619.873	957.53
620.322	951.58
620.771	944.83
621.22	933.53
621.669	909.43
622.118	891.63
622.567	885.78
623.015	873.03
623.464	869.93
623.913	856.13
624.361	860.88
624.81	849.78
625.259	849.53
625.707	849.58
626.156	858.98
626.604	868.58
627.053	881.63
627.501	873.23
627.95	885.28
628.398	891.88
628.847	879.83
629.295	876.83
629.744	877.63
630.192	853.48
630.64	838.38
631.089	821.23
631.537	796.13
631.985	783.93
632.433	781.93
632.881	775.93
633.33	778.68
633.778	779.13
634.226	790.18
634.674	791.78
635.122	793.48
635.57	805.68
636.018	822.08
636.466	817.63
636.914	811.93
637.362	829.73
637.81	843.38
638.258	875.43
638.705	881.03
639.153	912.83
639.601	914.38
640.049	931.68
640.497	966.98
640.944	988.58
641.392	930.78
641.84	861.43
642.287	804.03
642.735	777.88
643.182	759.98
643.63	749.83
644.078	739.48
644.525	746.58
644.973	752.93
645.42	754.28
645.867	758.53
646.315	760.83
646.762	764.43
647.21	757.03
647.657	766.53
648.104	754.33
648.551	720.83
648.999	718.83
649.446	721.63
649.893	718.43
650.34	729.08
650.787	745.88
651.234	767.13
651.682	836.53
652.129	909.28
652.576	1047.68
653.023	1207.83
653.47	1304.08
653.917	1349.53
654.363	1398.38
654.81	1462.68
655.257	1497.38
655.704	1190.73
656.151	915.83
656.598	798.98
657.044	742.23
657.491	732.58
657.938	713.38
658.385	693.68
658.831	693.63
659.278	692.38
659.724	688.98
660.171	671.88
660.618	651.78
661.064	644.58
661.511	648.23
661.957	645.08
662.404	653.63
662.85	662.68
663.296	671.58
663.743	668.08
664.189	677.58
664.635	681.58
665.082	669.58
665.528	673.88
665.974	652.63
666.42	646.73
666.867	645.08
667.313	608.53
667.759	612.28
668.205	603.53
668.651	607.28
669.097	614.73
669.543	615.63
669.989	635.53
670.435	633.83
670.881	634.03
671.327	671.08
671.773	718.88
672.219	778.38
672.665	839.58
673.11	883.03
673.556	908.28
674.002	939.38
674.448	957.08
674.893	803.48
675.339	677.98
675.785	627.53
676.23	591.13
676.676	574.78
677.122	555.93
677.567	536.68
678.013	519.18
678.458	516.53
678.904	517.53
679.349	507.78
679.794	516.28
680.24	514.48
680.685	504.23
681.131	508.43
681.576	504.33
682.021	509.13
682.466	523.68
682.912	516.28
683.357	547.68
683.802	606.38
684.247	666.58
684.692	710.93
685.137	746.33
685.583	763.98
686.028	820.58
686.473	767.08
686.918	654.88
687.363	594.28
687.807	562.93
688.252	532.48
688.697	513.93
689.142	491.43
689.587	496.68
690.032	502.48
690.477	532.98
690.921	563.83
691.366	597.48
691.811	619.08
692.255	675.03
692.7	824.13
693.145	1187.28
693.589	1841.78
694.034	2223.93
694.478	2426.93
694.923	2264.08
695.367	3282.33
695.812	1946.63
696.256	776.78
696.701	555.98
697.145	514.33
697.59	486.98
698.034	486.43
698.478	476.63
698.922	482.83
699.367	493.78
699.811	526.28
700.255	572.93
700.699	634.93
701.143	691.98
701.588	743.63
702.032	778.88
702.476	793.03
702.92	828.98
703.364	1083.13
703.808	1681.58
704.252	2123.83
704.696	2315.03
705.14	2224.93
705.584	3113.33
706.027	1682.68
706.471	818.33
706.915	591.33
707.359	520.08
707.803	487.13
708.246	461.98
708.69	469.03
709.134	457.58
709.577	460.78
710.021	467.33
710.465	465.63
710.908	451.68
711.352	469.28
711.795	523.53
712.239	573.18
712.682	590.83
713.126	577.58
713.569	658.13
714.012	533.43
714.456	452.28
714.899	428.38
715.342	402.13
715.786	391.18
716.229	381.38
716.672	371.08
717.115	367.43
717.558	375.43
718.002	386.13
718.445	400.98
718.888	430.13
719.331	443.33
719.774	452.48
720.217	439.63
720.66	409.08
721.103	384.28
721.546	365.53
721.989	356.28
722.432	353.08
722.874	346.53
723.317	355.53
723.76	392.68
724.203	479.03
724.645	653.93
725.088	791.93
725.531	787.53
725.974	880.93
726.416	780.73
726.859	457.73
727.301	364.58
727.744	350.28
728.187	355.08
728.629	362.18
729.071	378.33
729.514	402.88
729.956	413.98
730.399	424.68
730.841	426.23
731.283	415.23
731.726	402.08
732.168	405.98
732.61	432.28
733.053	464.48
733.495	515.73
733.937	582.68
734.379	690.13
734.821	881.33
735.263	1390.43
735.705	2505.73
736.148	3751.03
736.59	3870.63
737.032	4295.88
737.474	3516.03
737.916	1316.48
738.357	663.98
738.799	505.23
739.241	460.03
739.683	463.93
740.125	472.13
740.567	476.08
741.008	512.13
741.45	530.33
741.892	554.38
742.334	565.03
742.775	574.08
743.217	537.68
743.658	448.13
744.1	448.03
744.542	513.73
744.983	549.98
745.425	572.03
745.866	568.38
746.307	471.63
746.749	504.08
747.19	739.63
747.632	1457.33
748.073	2736.93
748.514	3870.13
748.956	5296.88
749.397	6259.53
749.838	4275.58
750.279	4192.48
750.72	2112.73
751.162	859.58
751.603	479.38
752.044	389.48
752.485	343.48
752.926	322.13
753.367	302.28
753.808	293.88
754.249	288.03
754.69	284.13
755.131	282.58
755.572	278.28
756.013	280.43
756.453	279.93
756.894	287.58
757.335	277.73
757.776	290.88
758.216	304.83
758.657	322.13
759.098	359.23
759.538	430.33
759.979	621.18
760.42	1257.68
760.86	3236.83
761.301	6949.68
761.741	8501.68
762.182	10145.63
762.622	6430.53
763.063	2215.18
763.503	885.48
763.943	512.98
764.384	395.38
764.824	345.13
765.264	316.28
765.705	301.68
766.145	276.93
766.585	274.28
767.025	260.63
767.465	265.68
767.906	268.83
768.346	286.38
768.786	328.73
769.226	486.73
769.666	999.83
770.106	2282.63
770.546	3374.53
770.986	3948.33
771.426	2994.78
771.866	1205.73
772.306	868.78
772.745	670.23
773.185	614.78
773.625	608.03
774.065	614.93
774.505	716.43
774.944	969.58
775.384	1247.98
775.824	1399.83
776.263	1238.78
776.703	819.48
777.142	632.28
777.582	567.03
778.021	556.63
778.461	547.43
778.9	549.08
779.34	536.93
779.779	530.38
780.219	532.78
780.658	528.08
781.097	522.13
781.537	525.43
781.976	518.58
782.415	514.08
782.855	518.73
783.294	525.13
783.733	515.48
784.172	522.78
784.611	520.28
785.05	522.78
785.489	531.28
785.928	532.78
786.367	540.18
786.806	548.98
787.245	560.48
787.684	571.68
788.123	565.83
788.562	561.88
789.001	555.53
789.44	544.53
789.879	544.28
790.317	547.33
790.756	556.83
791.195	587.78
791.634	664.18
792.072	920.38
792.511	1733.33
792.95	2966.78
793.388	3653.53
793.827	2499.33
794.265	1305.98
794.704	811.78
795.142	631.03
795.581	587.13
796.019	562.33
796.458	563.63
796.896	566.03
797.334	597.93
797.773	684.73
798.211	972.08
798.649	1657.98
799.087	2580.13
799.526	3517.23
799.964	3679.43
800.402	2672.78
800.84	1378.43
801.278	849.53
801.716	651.88
802.154	597.63
802.592	583.28
803.03	582.53
803.468	588.48
803.906	591.33
804.344	583.63
804.782	579.58
805.22	578.58
805.658	588.78
806.096	604.83
806.533	629.98
806.971	712.08
807.409	860.18
807.847	1346.83
808.284	2908.78
808.722	5028.73
809.16	6914.23
809.597	9122.88
810.035	11635.88
810.472	7752.23
810.91	3386.38
811.347	1700.93
811.785	986.08
812.222	756.08
812.66	655.58
813.097	618.38
813.535	587.68
813.972	562.18
814.409	547.88
814.846	534.73
815.284	529.13
815.721	531.03
816.158	544.03
816.595	601.18
817.032	670.18
817.47	641.53
817.907	563.08
818.344	543.48
818.781	542.78
819.218	572.93
819.655	679.43
820.092	778.13
820.529	741.53
820.966	657.23
821.403	568.38
821.839	537.13
822.276	557.83
822.713	603.23
823.15	582.68
823.587	591.48
824.023	781.18
824.46	1434.88
824.897	2307.63
825.333	1912.93
825.77	1050.03
826.206	716.83
826.643	567.58
827.08	516.38
827.516	498.98
827.953	490.03
828.389	482.18
828.825	477.03
829.262	472.48
829.698	467.18
830.135	466.18
830.571	459.73
831.007	466.68
831.443	460.93
831.88	462.63
832.316	466.88
832.752	460.83
833.188	464.73
833.624	471.48
834.06	472.68
834.497	471.93
834.933	474.78
835.369	490.08
835.805	489.28
836.241	497.18
836.677	508.68
837.112	532.18
837.548	573.98
837.984	676.48
838.42	1020.43
838.856	2227.93
839.292	4227.83
839.727	3262.28
840.163	2222.98
840.599	3167.93
841.034	4898.43
841.47	2635.63
841.906	1424.23
842.341	909.73
842.777	750.13
843.212	757.73
843.648	617.63
844.083	537.58
844.519	492.13
844.954	475.93
845.39	466.13
845.825	461.38
846.261	456.88
846.696	454.78
847.131	452.33
847.566	451.93
848.002	452.78
848.437	456.83
848.872	464.18
849.307	490.83
849.742	591.23
850.177	980.13
850.613	1734.78
851.048	1363.73
851.483	803.23
851.918	602.13
852.353	492.78
852.788	455.13
853.223	449.73
853.657	443.88
854.092	437.43
854.527	438.88
854.962	442.23
855.397	449.98
855.832	434.68
856.266	431.68
856.701	431.53
857.136	431.73
857.57	445.43
858.005	464.88
858.44	447.88
858.874	442.38
859.309	450.88
859.743	448.98
860.178	439.98
860.612	448.23
861.047	481.58
861.481	523.53
861.915	476.68
862.35	448.78
862.784	430.93
863.218	427.13
863.653	433.48
864.087	448.53
864.521	469.23
864.955	544.33
865.39	689.53
865.824	589.98
866.258	641.68
866.692	788.48
867.126	666.53
867.56	530.33
867.994	469.13
868.428	451.78
868.862	475.28
869.296	467.68
869.73	487.03
870.164	475.28
870.598	458.03
871.031	436.88
871.465	427.63
871.899	415.48
872.333	408.98
872.766	409.98
873.2	413.83
873.634	409.98
874.067	414.48
874.501	415.58
874.935	411.68
875.368	417.53
875.802	410.33
876.235	407.48
876.669	403.98
877.102	406.63
877.535	406.93
877.969	403.18
878.402	404.58
878.836	403.68
879.269	401.98
879.702	401.53
880.135	404.28
880.569	405.58
881.002	401.23
881.435	402.13
881.868	403.88
882.301	401.43
882.734	400.38
883.167	401.48
883.601	405.18
884.034	401.18
884.467	394.23
884.899	400.18
885.332	390.53
885.765	394.83
886.198	397.73
886.631	395.28
887.064	394.93
887.497	395.38
887.929	398.43
888.362	394.38
888.795	398.43
889.228	397.68
889.66	395.03
890.093	393.08
890.526	395.83
890.958	393.68
891.391	400.03
891.823	390.98
892.256	396.93
892.688	396.48
893.121	390.08
893.553	395.08
893.985	396.78
894.418	390.38
894.85	395.83
895.282	395.93
895.715	392.43
896.147	388.68
896.579	389.88
897.011	393.38
897.444	394.58
897.876	388.13
898.308	391.88
898.74	393.93
899.172	393.38
899.604	390.73
900.036	396.43
900.468	389.98
900.9	393.83
901.332	400.03
901.764	401.98
902.196	402.03
902.628	399.08
903.06	413.68
903.491	417.68
903.923	408.58
904.355	413.13
904.787	409.28
905.218	406.48
905.65	404.88
906.082	397.43
906.513	396.08
906.945	399.63
907.376	396.73
907.808	398.13
908.239	402.43
908.671	402.88
909.102	409.08
909.534	428.23
909.965	485.13
910.397	670.78
910.828	1301.58
911.259	938.83
911.691	661.68
912.122	539.28
912.553	450.63
912.984	414.58
913.415	405.23
913.847	402.08
914.278	398.18
914.709	397.28
915.14	395.53
915.571	399.53
916.002	396.53
916.433	389.33
916.864	393.63
917.295	395.53
917.726	402.23
918.157	409.83
918.587	410.63
919.018	406.78
919.449	401.33
919.88	405.93
920.311	433.48
920.741	557.73
921.172	716.13
921.603	537.48
922.033	468.38
922.464	432.03
922.895	410.63
923.325	396.93
923.756	390.33
924.186	394.38
924.617	411.73
925.047	430.63
925.478	422.08
925.908	405.18
926.338	401.28
926.769	394.23
927.199	394.58
927.629	386.63
928.06	393.33
928.49	392.28
928.92	391.08
929.35	388.63
929.78	381.53
930.21	386.68
930.641	379.63
931.071	380.28
931.501	382.63
931.931	376.43
932.361	379.53
932.791	389.18
933.221	383.83
933.651	394.03
934.08	412.48
934.51	391.63
934.94	391.03
935.37	385.78
935.8	384.93
936.229	378.88
936.659	379.58
937.089	389.48
937.519	399.23
937.948	414.03
938.378	393.38
938.807	380.78
939.237	379.48
939.666	382.78
940.096	374.18
940.525	371.48
940.955	376.18
941.384	373.03
941.814	379.13
942.243	378.43
942.672	370.43
943.102	370.43
943.531	374.88
943.96	372.68
944.39	374.63
944.819	376.33
945.248	372.13
945.677	377.28
946.106	373.08
946.535	374.43
946.964	372.38
947.393	374.18
947.822	371.63
948.251	375.38
948.68	375.13
949.109	371.08
949.538	371.98
949.967	375.08
950.396	372.43
950.825	376.43
951.254	375.13
951.682	370.53
952.111	367.73
952.54	369.78
952.969	371.28
953.397	370.33
953.826	369.88
954.254	376.23
954.683	369.88
955.112	371.53
955.54	367.63
955.969	370.28
956.397	376.63
956.826	371.68
957.254	370.38
957.682	371.23
958.111	373.28
958.539	370.48
958.967	370.48
959.396	376.28
959.824	373.43
960.252	372.18
960.68	367.73
961.109	376.18
961.537	376.98
961.965	370.98
962.393	370.48
962.821	375.63
963.249	371.13
963.677	374.63
964.105	425.93
964.533	470.43
964.961	410.48
965.389	393.98
965.817	381.88
966.245	377.58
966.672	372.18
967.1	377.03
967.528	367.08
967.956	371.43
968.383	376.73
968.811	371.98
969.239	371.93
969.666	370.33
970.094	371.83
970.522	370.13
970.949	373.13
971.377	363.43
971.804	368.38
972.232	370.73
972.659	364.33
973.087	373.13
973.514	372.33
973.941	368.43
974.369	366.93
974.796	365.78
975.223	366.58
975.651	372.88
976.078	370.93
976.505	375.38
976.932	390.18
977.359	396.03
977.786	385.33
978.214	379.03
978.641	368.08
979.068	371.08
979.495	367.03
979.922	372.48
980.349	370.48
980.776	371.38
981.202	370.73
981.629	375.88
982.056	374.28
982.483	362.33
982.91	370.88
983.337	365.83
983.763	371.78
984.19	372.53
984.617	366.88
985.043	370.33
985.47	372.43
985.897	368.98
986.323	373.38
986.75	369.28
987.176	369.03
987.603	372.63
988.029	370.93
988.456	376.73
988.882	368.83
989.308	365.28
989.735	363.68
990.161	368.63
990.587	368.58
991.014	371.08
991.44	372.38
991.866	369.48
992.292	371.88
992.719	368.68
993.145	372.63
993.571	371.33
993.997	376.93
994.423	374.08
994.849	365.73
995.275	366.88
995.701	371.88
996.127	368.73
996.553	371.43
996.979	366.43
997.405	372.73
997.83	370.83
998.256	370.98
998.682	371.13
999.108	371.53
999.534	364.98
999.959	366.88
1000.385	373.13
1000.811	367.28
1001.236	362.38
1001.662	367.28
1002.087	373.88
1002.513	372.33
1002.938	363.63
1003.364	367.88
1003.789	372.23
1004.215	370.33
1004.64	365.93
1005.066	371.68
1005.491	374.33
1005.916	371.53
1006.342	371.18
1006.767	372.23
1007.192	370.83
1007.617	375.23
1008.042	364.68
1008.468	368.98
1008.893	373.43
1009.318	374.03
1009.743	373.88
1010.168	382.98
1010.593	385.83
1011.018	375.83
1011.443	370.98
1011.868	376.23
1012.293	368.03
1012.718	367.43
1013.143	369.03
1013.567	376.43
1013.992	372.88
1014.417	370.43
1014.842	369.38
1015.267	368.63
1015.691	375.53
1016.116	367.93
1016.541	372.73
1016.965	367.83
1017.39	366.18
1017.814	363.23
1018.239	365.13
1018.663	361.78
1019.088	366.48
1019.512	370.58
1019.937	366.48
1020.361	365.83
1020.785	364.83
1021.21	365.33
1021.634	364.63
1022.058	367.43
1022.483	361.58
1022.907	366.03
1023.331	368.18
1023.755	368.08
1024.179	368.88
1024.604	367.93
1025.028	368.23
1025.452	371.83
1025.876	368.78
1026.3	370.38
1026.724	362.98
1027.148	368.73
1027.572	371.68
1027.996	367.68
1028.42	367.23
1028.843	365.98
1029.267	370.03
1029.691	369.03
1030.115	366.58
1030.539	366.23
1030.962	362.43
1031.386	368.03
1031.81	366.98
1032.233	360.98
1032.657	359.78
1033.08	368.13
1033.504	365.88
1033.927	363.23
1034.351	363.28
1034.774	363.68
1035.198	363.63
1035.621	367.58
1036.045	365.58
1036.468	373.68
1036.891	369.18
1037.315	369.33
1037.738	368.38
1038.161	367.13
1038.584	367.53
1039.008	365.53
1039.431	366.33
1039.854	365.18
1040.277	369.58
1040.7	363.23
1041.123	365.78
1041.546	364.98
1041.969	369.33
1042.392	370.88
1042.815	360.18
1043.238	366.53
1043.661	366.33
1044.084	367.88
1044.507	365.93
1044.93	369.08
1045.352	369.23
1045.775	365.48
1046.198	367.68
1046.621	369.03
1047.043	368.93
1047.466	372.28
1047.889	367.03
1048.311	369.98
1048.734	369.43
1049.156	369.18
1049.579	367.98
1050.001	367.28
1050.424	370.58
1050.846	366.83
1051.269	366.68
1051.691	366.03
1052.113	369.28
1052.536	365.28
1052.958	363.48
1053.38	365.28
1053.802	369.28
1054.225	367.08
1054.647	367.48
1055.069	367.38
1055.491	368.48
1055.913	369.03
1056.335	360.98
1056.757	363.23
1057.179	366.93
1057.601	365.03
1058.023	369.83
1058.445	363.88
1058.867	374.28
1059.289	370.83
1059.711	365.53
1060.133	365.83
1060.555	367.33
1060.976	371.13
1061.398	362.23
1061.82	368.43
1062.241	365.68
1062.663	366.93
1063.085	363.78
1063.506	363.23
1063.928	365.48
1064.35	370.78
1064.771	365.73
1065.193	363.48
1065.614	365.58
1066.035	373.18
1066.457	370.78
1066.878	366.93
1067.3	366.08
1067.721	369.43
1068.142	368.68
1068.564	364.28
1068.985	365.28
1069.406	363.68
1069.827	365.58
1070.248	367.53
1070.67	362.63
1071.091	360.13
1071.512	366.43
1071.933	362.23
1072.354	359.18
1072.775	367.08
1073.196	365.58
1073.617	364.08
1074.038	364.78
1074.459	365.83
1074.88	364.73
1075.3	363.63
1075.721	369.83
1076.142	363.33
1076.563	361.38
1076.983	366.18
1077.404	357.73
1077.825	367.08
1078.246	362.33
1078.666	366.63
1079.087	365.13
1079.507	363.98
1079.928	365.48
1080.348	364.23
1080.769	371.38
1081.189	366.43
1081.61	362.68
1082.03	364.78
1082.451	364.68
1082.871	366.33
1083.291	364.93
1083.711	369.23
1084.132	366.43
1084.552	361.58
1084.972	363.63
1085.392	366.63
1085.813	370.93
1086.233	362.98
1086.653	371.98
1087.073	366.33
1087.493	362.33
1087.913	365.78
1088.333	367.28
1088.753	369.18
1089.173	369.13
1089.593	368.93
1090.013	367.68
1090.433	362.63
1090.852	372.83
1091.272	359.13
1091.692	370.68
1092.112	365.93
1092.531	363.93
1092.951	364.18
1093.371	365.93
1093.79	363.98
1094.21	362.53
1094.63	363.58
1095.049	363.83
1095.469	361.38
1095.888	366.48
1096.308	367.13
1096.727	365.63
1097.146	365.18
1097.566	369.53
1097.985	364.58
1098.405	368.43
1098.824	369.48
1099.243	367.08
1099.662	362.53
1100.082	366.83
1100.501	369.83
1100.92	373.88
1101.339	368.43
1101.758	372.63
