Data from MSPlasma+Separation6_Subt14_10-12-56-971.txt Node
Date: Fri Jul 21 10:12:56 EDT 2017
User: Ender
Spectrometer: HR+D1039
Trigger mode: 0
Integration Time (sec): 6.430000E-3
Scans to average: 20
Electric dark correction enabled: true
Nonlinearity correction enabled: false
Boxcar width: 0
XAxis mode: Wavelengths
Number of Pixels in Spectrum: 2048
>>>>>Begin Spectral Data<<<<<
187.836	-3.92
188.309	-3.92
188.782	-3.92
189.255	-2.07
189.728	-1.32
190.201	-2.82
190.674	0.83
191.147	0.63
191.619	1.13
192.092	2.78
192.565	0.48
193.038	2.93
193.511	3.68
193.984	1.18
194.456	-3.52
194.929	-1.37
195.402	0.03
195.874	1.28
196.347	3.03
196.82	1.93
197.292	-0.17
197.765	-4.12
198.237	-3.77
198.71	-8.62
199.182	-0.67
199.655	2.93
200.127	-1.62
200.6	-0.12
201.072	2.78
201.544	2.48
202.017	3.58
202.489	-0.67
202.961	-3.87
203.433	-2.82
203.906	0.53
204.378	0.53
204.85	-1.27
205.322	-2.62
205.794	5.23
206.266	-3.62
206.739	3.88
207.211	0.28
207.683	1.98
208.155	-2.12
208.627	-2.52
209.099	0.28
209.57	0.83
210.042	7.68
210.514	1.98
210.986	4.03
211.458	-1.92
211.93	1.93
212.402	2.08
212.873	-7.07
213.345	-4.37
213.817	-1.37
214.288	-0.42
214.76	1.18
215.232	3.58
215.703	-3.97
216.175	0.38
216.646	1.83
217.118	1.53
217.589	-4.17
218.061	2.98
218.532	-1.92
219.004	-0.87
219.475	0.93
219.946	2.73
220.418	4.13
220.889	3.68
221.36	5.43
221.832	2.08
222.303	0.08
222.774	1.23
223.245	-0.32
223.717	1.68
224.188	3.68
224.659	3.18
225.13	2.83
225.601	1.03
226.072	5.23
226.543	6.78
227.014	3.68
227.485	6.63
227.956	8.03
228.427	9.23
228.898	2.23
229.369	3.58
229.839	4.48
230.31	10.73
230.781	7.78
231.252	4.58
231.722	5.53
232.193	6.08
232.664	6.78
233.135	5.43
233.605	7.58
234.076	10.93
234.546	5.88
235.017	6.93
235.487	10.98
235.958	4.98
236.428	16.93
236.899	7.68
237.369	15.18
237.84	10.93
238.31	14.48
238.78	5.78
239.251	7.78
239.721	10.63
240.191	6.08
240.662	12.18
241.132	6.18
241.602	12.88
242.072	11.83
242.542	11.18
243.013	7.78
243.483	15.88
243.953	8.03
244.423	11.73
244.893	10.33
245.363	18.28
245.833	12.23
246.303	12.53
246.773	14.08
247.243	13.18
247.712	19.78
248.182	14.53
248.652	18.73
249.122	17.13
249.592	21.63
250.061	15.18
250.531	16.13
251.001	15.73
251.471	18.03
251.94	15.63
252.41	21.38
252.879	19.18
253.349	27.28
253.818	17.03
254.288	23.78
254.757	16.78
255.227	26.33
255.696	22.43
256.166	24.13
256.635	24.53
257.105	21.38
257.574	21.83
258.043	28.98
258.513	27.43
258.982	24.78
259.451	29.18
259.92	21.48
260.389	25.53
260.859	28.73
261.328	27.83
261.797	24.98
262.266	31.48
262.735	32.43
263.204	23.93
263.673	30.13
264.142	27.93
264.611	28.98
265.08	30.73
265.549	27.03
266.018	29.93
266.487	30.53
266.955	28.33
267.424	38.78
267.893	35.48
268.362	30.43
268.83	27.78
269.299	36.03
269.768	34.93
270.236	34.73
270.705	39.73
271.174	34.28
271.642	34.18
272.111	39.33
272.579	37.43
273.048	35.58
273.516	37.58
273.985	38.93
274.453	36.08
274.922	34.83
275.39	37.58
275.858	41.23
276.327	40.78
276.795	40.98
277.263	40.98
277.731	38.53
278.2	43.53
278.668	42.83
279.136	46.83
279.604	43.33
280.072	42.93
280.54	43.48
281.008	51.23
281.477	46.53
281.945	47.83
282.413	46.63
282.881	47.13
283.348	46.83
283.816	48.13
284.284	50.88
284.752	48.33
285.22	54.98
285.688	49.03
286.156	54.98
286.623	53.53
287.091	52.43
287.559	58.08
288.026	54.73
288.494	54.78
288.962	53.73
289.429	53.98
289.897	52.98
290.364	53.03
290.832	55.33
291.3	55.58
291.767	59.03
292.234	59.03
292.702	60.78
293.169	56.23
293.637	61.93
294.104	66.63
294.571	64.58
295.039	65.28
295.506	59.48
295.973	64.28
296.44	59.08
296.908	67.33
297.375	62.98
297.842	66.93
298.309	66.88
298.776	63.83
299.243	70.53
299.71	69.53
300.177	67.78
300.644	68.83
301.111	69.78
301.578	75.23
302.045	68.03
302.512	71.18
302.979	72.88
303.446	78.23
303.913	80.88
304.379	82.48
304.846	81.63
305.313	84.43
305.78	85.68
306.246	82.78
306.713	83.88
307.18	82.58
307.646	84.73
308.113	85.88
308.579	90.33
309.046	90.28
309.512	92.28
309.979	96.63
310.445	89.33
310.912	89.28
311.378	95.18
311.845	99.68
312.311	94.93
312.777	94.63
313.244	100.18
313.71	101.98
314.176	106.48
314.642	103.43
315.109	99.83
315.575	97.63
316.041	102.28
316.507	101.23
316.973	110.73
317.439	108.28
317.905	106.53
318.371	107.18
318.837	105.93
319.303	110.28
319.769	106.13
320.235	115.88
320.701	114.88
321.167	109.23
321.633	113.03
322.099	109.13
322.564	120.03
323.03	115.33
323.496	113.73
323.962	119.78
324.427	124.93
324.893	118.03
325.359	121.63
325.824	125.58
326.29	127.53
326.755	125.58
327.221	122.68
327.686	132.93
328.152	130.33
328.617	139.38
329.083	135.68
329.548	137.53
330.014	135.58
330.479	135.58
330.944	137.43
331.41	145.58
331.875	134.48
332.34	136.98
332.805	139.33
333.271	145.98
333.736	141.48
334.201	140.03
334.666	154.88
335.131	150.13
335.596	151.38
336.061	143.43
336.526	144.33
336.991	144.88
337.456	142.38
337.921	150.23
338.386	144.03
338.851	142.43
339.316	140.03
339.781	145.73
340.246	147.68
340.711	146.58
341.175	155.88
341.64	154.43
342.105	160.28
342.569	167.98
343.034	162.48
343.499	166.18
343.963	172.58
344.428	170.23
344.893	168.28
345.357	173.53
345.822	174.83
346.286	180.78
346.751	183.08
347.215	184.98
347.679	189.28
348.144	200.43
348.608	200.58
349.073	199.53
349.537	210.18
350.001	205.18
350.465	208.18
350.93	200.73
351.394	209.43
351.858	216.03
352.322	211.58
352.786	214.93
353.25	216.48
353.715	217.23
354.179	227.73
354.643	233.58
355.107	236.58
355.571	235.78
356.035	228.88
356.498	225.08
356.962	225.93
357.426	223.23
357.89	221.78
358.354	214.43
358.818	219.23
359.281	226.68
359.745	223.33
360.209	221.28
360.673	218.88
361.136	221.53
361.6	219.78
362.064	237.38
362.527	237.93
362.991	239.78
363.454	231.58
363.918	237.23
364.381	242.18
364.845	239.98
365.308	236.58
365.772	243.28
366.235	247.63
366.698	240.33
367.162	240.38
367.625	247.93
368.088	255.83
368.552	251.48
369.015	247.63
369.478	251.93
369.941	250.48
370.404	254.58
370.867	251.43
371.331	258.43
371.794	266.08
372.257	256.13
372.72	262.63
373.183	260.28
373.646	267.73
374.109	262.63
374.572	266.38
375.035	264.98
375.497	273.98
375.96	278.28
376.423	282.18
376.886	283.23
377.349	288.38
377.811	289.38
378.274	289.73
378.737	283.48
379.199	290.08
379.662	289.13
380.125	296.53
380.587	297.93
381.05	301.28
381.512	308.33
381.975	314.53
382.437	323.93
382.9	316.43
383.362	319.03
383.825	319.78
384.287	328.28
384.75	324.28
385.212	331.18
385.674	326.53
386.136	333.28
386.599	331.28
387.061	325.83
387.523	330.43
387.985	333.38
388.447	341.23
388.91	338.48
389.372	341.53
389.834	339.03
390.296	334.53
390.758	339.33
391.22	336.73
391.682	332.33
392.144	339.43
392.606	343.43
393.068	349.33
393.529	371.53
393.991	380.23
394.453	367.48
394.915	349.33
395.377	341.38
395.838	340.58
396.3	345.33
396.762	350.73
397.224	357.23
397.685	352.73
398.147	359.78
398.608	359.03
399.07	364.43
399.531	364.28
399.993	377.28
400.454	380.18
400.916	377.18
401.377	384.98
401.839	392.33
402.3	391.03
402.762	411.78
403.223	438.88
403.684	433.88
404.145	409.88
404.607	397.83
405.068	390.53
405.529	391.73
405.99	399.03
406.451	401.78
406.913	394.08
407.374	400.08
407.835	396.78
408.296	413.53
408.757	406.08
409.218	425.78
409.679	430.33
410.14	430.98
410.601	448.68
411.062	451.68
411.522	456.23
411.983	459.08
412.444	470.68
412.905	483.08
413.366	503.43
413.826	534.63
414.287	611.68
414.748	752.78
415.208	766.58
415.669	619.23
416.13	562.43
416.59	551.38
417.051	577.13
417.511	606.13
417.972	659.53
418.432	715.83
418.893	802.48
419.353	768.43
419.814	575.08
420.274	499.43
420.734	488.68
421.195	501.73
421.655	504.03
422.115	509.58
422.576	504.18
423.036	511.33
423.496	529.03
423.956	555.58
424.416	594.73
424.876	670.33
425.336	669.63
425.797	640.88
426.257	633.33
426.717	580.58
427.177	515.18
427.637	507.48
428.097	523.33
428.556	537.13
429.016	580.08
429.476	561.78
429.936	540.73
430.396	523.98
430.856	534.68
431.315	536.93
431.775	582.28
432.235	640.68
432.694	651.63
433.154	590.28
433.614	582.83
434.073	566.83
434.533	524.73
434.993	511.23
435.452	521.78
435.912	515.83
436.371	528.33
436.83	534.73
437.29	526.13
437.749	522.53
438.209	519.33
438.668	542.88
439.127	553.28
439.587	550.23
440.046	528.78
440.505	554.63
440.964	558.88
441.424	579.58
441.883	588.23
442.342	560.28
442.801	540.13
443.26	551.23
443.719	545.83
444.178	545.68
444.637	557.58
445.096	565.88
445.555	570.93
446.014	567.88
446.473	564.68
446.932	567.23
447.391	571.53
447.849	587.68
448.308	579.38
448.767	578.43
449.226	591.88
449.685	605.23
450.143	633.93
450.602	627.98
451.061	589.03
451.519	595.48
451.978	583.33
452.436	582.68
452.895	586.78
453.353	583.68
453.812	582.93
454.27	579.03
454.729	578.48
455.187	586.88
455.646	592.68
456.104	590.28
456.562	602.83
457.021	604.13
457.479	575.73
457.937	598.53
458.395	621.33
458.854	615.08
459.312	601.58
459.77	603.78
460.228	606.88
460.686	617.48
461.144	627.73
461.602	618.53
462.06	622.48
462.518	628.33
462.976	624.98
463.434	637.83
463.892	639.63
464.35	649.38
464.808	666.53
465.266	671.58
465.724	680.43
466.181	676.78
466.639	672.18
467.097	707.48
467.555	725.88
468.012	718.13
468.47	720.38
468.928	745.73
469.385	768.08
469.843	766.03
470.3	759.48
470.758	777.13
471.215	783.98
471.673	802.53
472.13	829.78
472.588	835.63
473.045	837.23
473.503	847.23
473.96	883.58
474.417	879.68
474.875	906.43
475.332	931.88
475.789	942.33
476.246	951.63
476.704	976.03
477.161	981.53
477.618	982.98
478.075	1000.03
478.532	1030.83
478.989	1060.88
479.446	1110.18
479.903	1112.28
480.36	1128.08
480.817	1121.03
481.274	1124.78
481.731	1171.58
482.188	1186.58
482.645	1203.23
483.102	1212.03
483.558	1254.33
484.015	1281.23
484.472	1283.43
484.929	1291.08
485.385	1285.73
485.842	1289.48
486.299	1300.43
486.755	1293.08
487.212	1275.88
487.668	1240.23
488.125	1231.83
488.582	1219.98
489.038	1233.93
489.494	1235.63
489.951	1246.33
490.407	1246.18
490.864	1248.33
491.32	1248.88
491.776	1252.48
492.233	1275.08
492.689	1269.23
493.145	1257.28
493.602	1245.78
494.058	1264.68
494.514	1274.68
494.97	1281.18
495.426	1307.18
495.882	1309.18
496.338	1311.38
496.794	1330.83
497.251	1326.98
497.707	1342.73
498.163	1358.98
498.618	1344.88
499.074	1350.18
499.53	1357.08
499.986	1377.03
500.442	1369.58
500.898	1354.43
501.354	1371.53
501.809	1375.98
502.265	1373.88
502.721	1391.83
503.177	1389.83
503.632	1388.13
504.088	1402.83
504.543	1424.48
504.999	1426.28
505.455	1420.53
505.91	1408.68
506.366	1416.13
506.821	1425.38
507.277	1408.33
507.732	1414.58
508.187	1414.98
508.643	1434.08
509.098	1426.73
509.553	1454.28
510.009	1467.48
510.464	1495.28
510.919	1504.28
511.375	1530.08
511.83	1528.78
512.285	1564.13
512.74	1602.48
513.195	1620.88
513.65	1653.03
514.105	1679.73
514.56	1684.08
515.015	1709.28
515.47	1727.23
515.925	1693.13
516.38	1700.43
516.835	1712.03
517.29	1696.33
517.745	1705.48
518.2	1674.33
518.655	1636.83
519.109	1614.78
519.564	1578.83
520.019	1565.98
520.474	1553.63
520.928	1555.28
521.383	1533.28
521.838	1539.68
522.292	1517.73
522.747	1510.83
523.201	1501.08
523.656	1485.18
524.11	1478.33
524.565	1474.18
525.019	1477.93
525.474	1472.33
525.928	1456.88
526.382	1471.28
526.837	1470.43
527.291	1465.43
527.745	1455.03
528.2	1460.73
528.654	1434.33
529.108	1441.18
529.562	1440.28
530.016	1444.88
530.47	1436.58
530.925	1445.33
531.379	1440.33
531.833	1449.38
532.287	1443.93
532.741	1432.38
533.195	1448.68
533.649	1440.93
534.103	1451.03
534.556	1438.98
535.01	1452.58
535.464	1434.28
535.918	1430.13
536.372	1453.33
536.826	1444.38
537.279	1432.78
537.733	1443.48
538.187	1447.58
538.64	1434.63
539.094	1456.28
539.548	1473.78
540.001	1468.58
540.455	1471.03
540.908	1482.63
541.362	1498.98
541.815	1514.68
542.269	1542.08
542.722	1540.73
543.175	1552.33
543.629	1570.73
544.082	1582.63
544.536	1597.88
544.989	1610.08
545.442	1615.38
545.895	1616.48
546.349	1614.08
546.802	1614.23
547.255	1624.68
547.708	1627.33
548.161	1660.98
548.614	1650.83
549.067	1675.78
549.52	1648.23
549.973	1627.53
550.426	1615.68
550.879	1606.48
551.332	1607.98
551.785	1624.63
552.238	1631.03
552.691	1630.73
553.144	1658.58
553.596	1691.98
554.049	1709.53
554.502	1759.98
554.955	1780.13
555.407	1813.13
555.86	1783.83
556.313	1762.13
556.765	1748.08
557.218	1721.13
557.67	1719.98
558.123	1688.48
558.576	1682.63
559.028	1686.08
559.48	1710.48
559.933	1710.18
560.385	1644.28
560.838	1582.08
561.29	1526.93
561.742	1521.73
562.195	1479.63
562.647	1467.08
563.099	1470.08
563.551	1465.13
564.004	1482.18
564.456	1464.33
564.908	1434.43
565.36	1396.83
565.812	1370.38
566.264	1355.23
566.716	1333.43
567.168	1313.73
567.62	1313.58
568.072	1299.83
568.524	1290.23
568.976	1284.83
569.428	1276.83
569.88	1281.33
570.332	1283.53
570.784	1290.93
571.235	1275.38
571.687	1303.63
572.139	1303.73
572.59	1312.33
573.042	1315.68
573.494	1316.48
573.945	1286.88
574.397	1261.73
574.849	1259.13
575.3	1269.33
575.752	1235.98
576.203	1233.53
576.655	1238.83
577.106	1216.08
577.557	1208.18
578.009	1198.73
578.46	1201.53
578.912	1193.53
579.363	1205.63
579.814	1200.53
580.265	1206.48
580.717	1203.48
581.168	1199.23
581.619	1206.93
582.07	1224.23
582.521	1212.88
582.972	1206.53
583.423	1211.83
583.875	1220.48
584.326	1227.28
584.777	1248.23
585.227	1268.88
585.678	1275.88
586.129	1285.88
586.58	1306.83
587.031	1348.18
587.482	1375.73
587.933	1394.68
588.384	1394.28
588.834	1387.43
589.285	1373.28
589.736	1376.68
590.186	1384.18
590.637	1359.68
591.088	1325.88
591.538	1294.13
591.989	1278.23
592.439	1267.18
592.89	1244.18
593.34	1235.93
593.791	1228.98
594.241	1218.93
594.692	1224.03
595.142	1223.78
595.593	1221.83
596.043	1227.93
596.493	1235.03
596.943	1231.48
597.394	1262.73
597.844	1288.33
598.294	1305.48
598.744	1370.23
599.195	1435.68
599.645	1520.63
600.095	1615.63
600.545	1690.98
600.995	1772.58
601.445	1857.43
601.895	1969.38
602.345	2028.28
602.795	1991.18
603.245	1911.98
603.695	1772.38
604.145	1665.78
604.594	1584.38
605.044	1491.68
605.494	1384.28
605.944	1304.28
606.393	1273.13
606.843	1246.93
607.293	1255.33
607.743	1240.68
608.192	1264.08
608.642	1258.83
609.091	1258.68
609.541	1253.53
609.99	1257.63
610.44	1228.88
610.889	1202.08
611.339	1188.73
611.788	1177.33
612.238	1186.23
612.687	1186.33
613.136	1195.18
613.586	1209.68
614.035	1198.33
614.484	1208.63
614.933	1206.48
615.383	1191.98
615.832	1159.73
616.281	1145.63
616.73	1115.83
617.179	1095.18
617.628	1068.33
618.077	1049.23
618.526	1033.78
618.975	1031.68
619.424	1007.48
619.873	1013.28
620.322	1008.58
620.771	1006.33
621.22	982.58
621.669	956.78
622.118	945.93
622.567	944.98
623.015	922.68
623.464	914.73
623.913	907.48
624.361	911.58
624.81	909.58
625.259	908.03
625.707	903.33
626.156	916.13
626.604	925.18
627.053	922.78
627.501	929.88
627.95	937.53
628.398	949.88
628.847	935.78
629.295	931.28
629.744	924.98
630.192	909.03
630.64	889.78
631.089	877.83
631.537	841.48
631.985	833.88
632.433	834.23
632.881	823.48
633.33	831.83
633.778	833.28
634.226	837.83
634.674	842.38
635.122	851.08
635.57	865.38
636.018	882.08
636.466	867.23
636.914	866.58
637.362	884.13
637.81	897.48
638.258	923.33
638.705	928.38
639.153	962.33
639.601	966.73
640.049	997.93
640.497	1022.63
640.944	1058.58
641.392	986.13
641.84	911.83
642.287	861.38
642.735	829.08
643.182	815.33
643.63	799.28
644.078	792.53
644.525	791.73
644.973	800.28
645.42	806.38
645.867	803.73
646.315	801.13
646.762	814.73
647.21	810.83
647.657	815.53
648.104	798.83
648.551	772.53
648.999	765.73
649.446	766.23
649.893	759.08
650.34	771.98
650.787	786.93
651.234	818.13
651.682	876.58
652.129	962.13
652.576	1087.33
653.023	1253.88
653.47	1366.48
653.917	1426.48
654.363	1455.83
654.81	1536.78
655.257	1581.78
655.704	1244.23
656.151	977.58
656.598	854.53
657.044	789.03
657.491	772.73
657.938	753.33
658.385	740.88
658.831	736.63
659.278	740.08
659.724	727.48
660.171	718.08
660.618	694.03
661.064	678.58
661.511	685.53
661.957	690.23
662.404	697.08
662.85	698.18
663.296	714.43
663.743	708.13
664.189	718.28
664.635	718.28
665.082	715.18
665.528	714.98
665.974	694.43
666.42	687.33
666.867	679.93
667.313	653.03
667.759	651.53
668.205	648.38
668.651	654.08
669.097	652.53
669.543	659.93
669.989	662.33
670.435	670.63
670.881	670.98
671.327	708.03
671.773	755.98
672.219	824.78
672.665	895.43
673.11	934.08
673.556	961.73
674.002	1002.38
674.448	1019.38
674.893	849.83
675.339	738.08
675.785	671.53
676.23	634.08
676.676	608.53
677.122	596.38
677.567	578.53
678.013	557.53
678.458	553.93
678.904	544.48
679.349	543.28
679.794	547.08
680.24	548.73
680.685	541.03
681.131	537.13
681.576	544.23
682.021	542.88
682.466	551.48
682.912	557.38
683.357	589.48
683.802	643.08
684.247	708.53
684.692	759.53
685.137	798.83
685.583	822.18
686.028	875.98
686.473	824.93
686.918	695.58
687.363	630.28
687.807	596.88
688.252	573.63
688.697	543.43
689.142	524.53
689.587	525.98
690.032	541.38
690.477	568.73
690.921	596.43
691.366	635.48
691.811	661.43
692.255	721.38
692.7	878.63
693.145	1261.48
693.589	1931.48
694.034	2351.08
694.478	2576.03
694.923	2413.63
695.367	3541.53
695.812	2082.58
696.256	833.88
696.701	592.13
697.145	540.93
697.59	524.53
698.034	511.53
698.478	514.23
698.922	514.13
699.367	521.13
699.811	557.38
700.255	610.98
700.699	666.13
701.143	734.28
701.588	783.03
702.032	816.93
702.476	850.43
702.92	887.43
703.364	1152.88
703.808	1769.83
704.252	2241.03
704.696	2453.18
705.14	2375.18
705.584	3359.28
706.027	1788.33
706.471	862.28
706.915	630.03
707.359	558.53
707.803	518.63
708.246	500.93
708.69	491.33
709.134	484.13
709.577	485.63
710.021	494.48
710.465	488.73
710.908	479.83
711.352	510.33
711.795	561.93
712.239	607.28
712.682	620.18
713.126	620.38
713.569	707.38
714.012	561.18
714.456	478.73
714.899	450.23
715.342	434.13
715.786	414.18
716.229	406.38
716.672	389.63
717.115	388.23
717.558	403.43
718.002	411.33
718.445	437.93
718.888	461.88
719.331	470.18
719.774	483.93
720.217	469.78
720.66	440.63
721.103	419.88
721.546	390.88
721.989	380.88
722.432	372.28
722.874	373.48
723.317	378.73
723.76	415.33
724.203	505.53
724.645	692.18
725.088	832.68
725.531	836.38
725.974	934.38
726.416	829.63
726.859	486.08
727.301	394.78
727.744	368.38
728.187	376.53
728.629	387.13
729.071	405.73
729.514	433.43
729.956	449.33
730.399	457.23
730.841	453.18
731.283	440.28
731.726	420.98
732.168	430.53
732.61	457.48
733.053	490.63
733.495	553.48
733.937	622.88
734.379	735.38
734.821	933.83
735.263	1470.13
735.705	2666.28
736.148	3988.48
736.59	4131.28
737.032	4658.08
737.474	3797.78
737.916	1395.88
738.357	705.48
738.799	541.53
739.241	499.73
739.683	494.43
740.125	508.98
740.567	511.08
741.008	544.28
741.45	569.63
741.892	586.23
742.334	597.08
742.775	603.18
743.217	572.18
743.658	476.08
744.1	478.38
744.542	554.18
744.983	578.93
745.425	610.03
745.866	602.13
746.307	507.28
746.749	537.33
747.19	784.08
747.632	1542.28
748.073	2929.88
748.514	4141.48
748.956	5671.23
749.397	6698.08
749.838	4597.53
750.279	4525.78
750.72	2250.83
751.162	926.33
751.603	517.53
752.044	413.78
752.485	362.13
752.926	336.33
753.367	327.28
753.808	317.38
754.249	306.98
754.69	300.13
755.131	303.13
755.572	295.78
756.013	299.08
756.453	294.08
756.894	309.33
757.335	305.08
757.776	309.23
758.216	320.73
758.657	344.88
759.098	382.98
759.538	459.08
759.979	660.43
760.42	1341.78
760.86	3465.53
761.301	7395.83
761.741	9094.68
762.182	10943.78
762.622	6905.18
763.063	2360.58
763.503	944.48
763.943	544.18
764.384	432.38
764.824	366.08
765.264	341.33
765.705	317.68
766.145	298.98
766.585	290.53
767.025	279.63
767.465	282.88
767.906	284.98
768.346	297.78
768.786	357.03
769.226	525.23
769.666	1066.98
770.106	2432.33
770.546	3606.38
770.986	4281.43
771.426	3241.38
771.866	1284.33
772.306	557.03
772.745	334.43
773.185	282.38
773.625	266.23
774.065	285.93
774.505	395.28
774.944	674.83
775.384	984.43
775.824	1161.58
776.263	967.23
776.703	505.33
777.142	295.43
777.582	220.83
778.021	211.33
778.461	201.78
778.9	203.43
779.34	195.98
779.779	183.78
780.219	184.23
780.658	180.08
781.097	178.58
781.537	173.78
781.976	173.28
782.415	168.73
782.855	171.58
783.294	168.73
783.733	164.28
784.172	172.23
784.611	171.28
785.05	180.43
785.489	184.53
785.928	191.88
786.367	194.33
786.806	201.83
787.245	223.93
787.684	232.88
788.123	230.13
788.562	221.18
789.001	209.83
789.44	200.98
789.879	200.13
790.317	205.23
790.756	217.38
791.195	246.98
791.634	340.78
792.072	616.78
792.511	1532.18
792.95	2931.48
793.388	3726.58
793.827	2419.88
794.265	1060.18
794.704	495.03
795.142	298.68
795.581	243.03
796.019	218.33
796.458	223.58
796.896	226.98
797.334	260.73
797.773	348.53
798.211	681.48
798.649	1461.83
799.087	2497.73
799.526	3559.38
799.964	3776.48
800.402	2621.03
800.84	1145.53
801.278	540.33
801.716	326.88
802.154	255.88
802.592	239.48
803.03	239.28
803.468	252.18
803.906	256.48
804.344	244.23
804.782	237.98
805.22	239.98
805.658	244.68
806.096	261.23
806.533	292.28
806.971	382.58
807.409	558.38
807.847	1116.08
808.284	2877.88
808.722	5253.88
809.16	7397.23
809.597	9851.48
810.035	12744.58
810.472	8369.88
810.91	3393.83
811.347	1502.48
811.785	701.08
812.222	436.28
812.66	337.98
813.097	288.23
813.535	243.53
813.972	215.58
814.409	202.83
814.846	192.08
815.284	180.43
815.721	187.93
816.158	200.03
816.595	259.88
817.032	340.83
817.47	310.73
817.907	222.33
818.344	191.03
818.781	195.73
819.218	232.18
819.655	349.93
820.092	457.93
820.529	418.18
820.966	326.98
821.403	222.88
821.839	188.73
822.276	211.23
822.713	260.13
823.15	245.98
823.587	255.93
824.023	464.58
824.46	1199.58
824.897	2204.73
825.333	1756.53
825.77	769.03
826.206	387.13
826.643	224.18
827.08	164.48
827.516	141.68
827.953	131.98
828.389	127.63
828.825	123.68
829.262	116.18
829.698	117.08
830.135	107.08
830.571	106.23
831.007	107.43
831.443	107.18
831.88	107.08
832.316	112.48
832.752	109.23
833.188	113.33
833.624	112.28
834.06	115.33
834.497	117.83
834.933	118.13
835.369	134.18
835.805	136.23
836.241	144.33
836.677	159.23
837.112	185.68
837.548	232.73
837.984	344.18
838.42	741.08
838.856	2108.38
839.292	4366.88
839.727	3262.63
840.163	2094.48
840.599	3175.63
841.034	5137.18
841.47	2559.78
841.906	1190.63
842.341	614.08
842.777	432.58
843.212	446.18
843.648	275.38
844.083	193.23
844.519	144.13
844.954	120.53
845.39	107.63
845.825	108.73
846.261	101.98
846.696	95.53
847.131	96.88
847.566	91.83
848.002	99.28
848.437	106.03
848.872	104.68
849.307	141.18
849.742	257.13
850.177	696.53
850.613	1545.98
851.048	1132.88
851.483	496.58
851.918	263.23
852.353	147.58
852.788	102.48
853.223	90.88
853.657	82.93
854.092	82.23
854.527	74.98
854.962	83.38
855.397	90.18
855.832	78.98
856.266	69.08
856.701	70.43
857.136	69.58
857.57	86.68
858.005	108.93
858.44	89.73
858.874	83.93
859.309	89.73
859.743	89.48
860.178	85.98
860.612	96.53
861.047	126.78
861.481	175.33
861.915	117.23
862.35	86.43
862.784	72.13
863.218	63.58
863.653	75.88
864.087	90.88
864.521	110.88
864.955	192.03
865.39	355.88
865.824	254.03
866.258	308.43
866.692	485.13
867.126	347.98
867.56	179.88
867.994	114.38
868.428	94.83
868.862	123.98
869.296	114.98
869.73	139.38
870.164	116.43
870.598	106.98
871.031	79.83
871.465	72.43
871.899	50.43
872.333	51.08
872.766	51.38
873.2	52.98
873.634	47.43
874.067	55.53
874.501	52.83
874.935	52.03
875.368	54.48
875.802	51.28
876.235	44.78
876.669	43.03
877.102	38.13
877.535	40.48
877.969	38.18
878.402	43.88
878.836	38.98
879.269	40.23
879.702	37.63
880.135	40.78
880.569	40.88
881.002	40.43
881.435	42.23
881.868	40.33
882.301	38.18
882.734	35.33
883.167	42.53
883.601	37.08
884.034	35.88
884.467	35.93
884.899	37.63
885.332	34.43
885.765	34.53
886.198	29.33
886.631	34.53
887.064	33.23
887.497	29.73
887.929	34.18
888.362	31.18
888.795	27.93
889.228	40.18
889.66	31.78
890.093	28.88
890.526	29.43
890.958	30.83
891.391	32.53
891.823	29.53
892.256	33.18
892.688	32.33
893.121	30.68
893.553	35.63
893.985	26.38
894.418	24.33
894.85	31.63
895.282	35.13
895.715	25.98
896.147	23.78
896.579	23.93
897.011	31.28
897.444	28.03
897.876	21.88
898.308	25.53
898.74	30.78
899.172	30.53
899.604	23.53
900.036	28.48
900.468	24.18
900.9	30.58
901.332	37.73
901.764	42.98
902.196	40.08
902.628	35.13
903.06	56.73
903.491	54.68
903.923	49.53
904.355	48.38
904.787	52.88
905.218	43.08
905.65	42.18
906.082	36.58
906.513	29.53
906.945	32.18
907.376	36.28
907.808	39.63
908.239	32.28
908.671	41.58
909.102	51.43
909.534	67.53
909.965	135.08
910.397	350.33
910.828	1062.33
911.259	641.88
911.691	328.18
912.122	183.88
912.553	95.28
912.984	54.33
913.415	40.38
913.847	40.03
914.278	37.93
914.709	36.33
915.14	28.83
915.571	34.38
916.002	26.68
916.433	28.53
916.864	27.23
917.295	34.38
917.726	39.28
918.157	50.53
918.587	46.03
919.018	43.58
919.449	38.33
919.88	49.13
920.311	73.73
920.741	212.73
921.172	391.08
921.603	189.18
922.033	114.28
922.464	72.38
922.895	47.78
923.325	30.18
923.756	24.63
924.186	34.68
924.617	50.08
925.047	73.28
925.478	68.28
925.908	44.38
926.338	31.63
926.769	26.78
927.199	29.18
927.629	24.43
928.06	27.33
928.49	33.08
928.92	20.28
929.35	25.13
929.78	16.88
930.21	15.43
930.641	10.48
931.071	16.43
931.501	16.03
931.931	14.28
932.361	14.88
932.791	19.83
933.221	20.38
933.651	30.28
934.08	45.88
934.51	29.28
934.94	23.93
935.37	16.88
935.8	16.08
936.229	10.88
936.659	16.48
937.089	24.88
937.519	39.23
937.948	54.93
938.378	32.43
938.807	19.03
939.237	13.78
939.666	12.58
940.096	9.53
940.525	5.13
940.955	6.93
941.384	6.83
941.814	7.23
942.243	6.03
942.672	3.13
943.102	2.68
943.531	2.73
943.96	4.43
944.39	10.68
944.819	11.48
945.248	6.93
945.677	5.83
946.106	7.03
946.535	5.63
946.964	3.93
947.393	5.18
947.822	5.68
948.251	6.68
948.68	9.88
949.109	7.38
949.538	3.18
949.967	8.98
950.396	4.53
950.825	10.63
951.254	8.03
951.682	4.18
952.111	1.73
952.54	4.23
952.969	3.98
953.397	-2.27
953.826	4.68
954.254	5.13
954.683	3.53
955.112	4.33
955.54	7.63
955.969	6.13
956.397	4.38
956.826	4.38
957.254	6.03
957.682	10.18
958.111	8.18
958.539	8.43
958.967	2.63
959.396	10.73
959.824	5.43
960.252	4.28
960.68	4.48
961.109	5.43
961.537	10.53
961.965	1.03
962.393	5.38
962.821	4.13
963.249	6.93
963.677	7.68
964.105	64.58
964.533	110.63
964.961	51.63
965.389	29.93
965.817	14.13
966.245	8.68
966.672	7.93
967.1	9.53
967.528	-1.17
967.956	5.38
968.383	4.93
968.811	3.83
969.239	2.83
969.666	1.78
970.094	5.53
970.522	0.28
970.949	1.13
971.377	-3.37
971.804	-2.47
972.232	0.73
972.659	5.43
973.087	9.63
973.514	-0.52
973.941	-0.22
974.369	-1.92
974.796	-0.07
975.223	-2.37
975.651	5.28
976.078	2.98
976.505	9.88
976.932	25.28
977.359	34.48
977.786	20.28
978.214	13.83
978.641	5.73
979.068	1.63
979.495	1.78
979.922	2.53
980.349	4.18
980.776	9.18
981.202	0.13
981.629	5.38
982.056	2.63
982.483	-4.27
982.91	3.18
983.337	1.43
983.763	3.93
984.19	6.88
984.617	-1.92
985.043	2.98
985.47	5.48
985.897	3.68
986.323	7.28
986.75	-2.97
987.176	-1.72
987.603	1.28
988.029	3.98
988.456	9.93
988.882	3.03
989.308	-1.37
989.735	4.38
990.161	5.63
990.587	2.93
991.014	3.88
991.44	3.03
991.866	4.13
992.292	0.83
992.719	-1.87
993.145	5.63
993.571	5.93
993.997	8.33
994.423	8.98
994.849	-1.27
995.275	5.63
995.701	1.98
996.127	-0.62
996.553	4.68
996.979	-0.12
997.405	6.13
997.83	4.48
998.256	4.13
998.682	5.98
999.108	7.88
999.534	-1.77
999.959	-0.02
1000.385	4.28
1000.811	0.18
1001.236	-0.77
1001.662	1.13
1002.087	6.83
1002.513	2.13
1002.938	1.88
1003.364	4.33
1003.789	8.33
1004.215	-0.02
1004.64	3.58
1005.066	5.03
1005.491	8.98
1005.916	2.88
1006.342	5.48
1006.767	2.53
1007.192	6.53
1007.617	2.48
1008.042	1.88
1008.468	2.48
1008.893	5.88
1009.318	6.88
1009.743	5.93
1010.168	19.18
1010.593	20.43
1011.018	10.58
1011.443	3.98
1011.868	6.73
1012.293	1.58
1012.718	-3.47
1013.143	-0.52
1013.567	8.13
1013.992	2.53
1014.417	2.93
1014.842	-1.27
1015.267	2.78
1015.691	1.18
1016.116	1.23
1016.541	1.83
1016.965	3.23
1017.39	4.28
1017.814	2.13
1018.239	-3.22
1018.663	-1.07
1019.088	-4.62
1019.512	5.33
1019.937	-4.42
1020.361	1.28
1020.785	0.73
1021.21	-3.07
1021.634	-0.87
1022.058	1.23
1022.483	-0.82
1022.907	-3.17
1023.331	-1.12
1023.755	-1.97
1024.179	-0.07
1024.604	1.63
1025.028	0.73
1025.452	6.63
1025.876	0.13
1026.3	-0.62
1026.724	-3.92
1027.148	0.18
1027.572	3.78
1027.996	0.48
1028.42	4.33
1028.843	1.33
1029.267	-1.82
1029.691	4.13
1030.115	-0.57
1030.539	1.83
1030.962	0.93
1031.386	1.23
1031.81	3.78
1032.233	0.08
1032.657	-6.17
1033.08	-2.17
1033.504	-4.47
1033.927	1.23
1034.351	2.13
1034.774	0.23
1035.198	1.88
1035.621	-0.32
1036.045	-1.72
1036.468	9.88
1036.891	2.68
1037.315	5.63
1037.738	-0.32
1038.161	0.18
1038.584	-2.57
1039.008	-0.97
1039.431	1.68
1039.854	-4.62
1040.277	4.38
1040.7	-1.92
1041.123	0.38
1041.546	2.83
1041.969	3.23
1042.392	3.18
1042.815	-5.57
1043.238	0.93
1043.661	-4.27
1044.084	-0.77
1044.507	-1.17
1044.93	-3.42
1045.352	0.78
1045.775	2.03
1046.198	-0.67
1046.621	0.93
1047.043	-2.97
1047.466	0.23
1047.889	0.03
1048.311	3.53
1048.734	0.48
1049.156	-0.32
1049.579	-1.17
1050.001	-3.82
1050.424	0.33
1050.846	-4.12
1051.269	-4.27
1051.691	-3.67
1052.113	3.48
1052.536	2.68
1052.958	-6.67
1053.38	-1.02
1053.802	4.53
1054.225	1.58
1054.647	1.23
1055.069	-3.82
1055.491	7.13
1055.913	2.88
1056.335	-6.82
1056.757	-3.47
1057.179	0.08
1057.601	-1.12
1058.023	1.73
1058.445	-3.87
1058.867	3.23
1059.289	-0.77
1059.711	-1.32
1060.133	4.13
1060.555	-4.27
1060.976	-0.77
1061.398	-1.67
1061.82	3.48
1062.241	-0.82
1062.663	-2.37
1063.085	-2.72
1063.506	-5.82
1063.928	-0.82
1064.35	-2.07
1064.771	0.93
1065.193	-0.87
1065.614	-0.67
1066.035	2.78
1066.457	4.68
1066.878	-0.12
1067.3	-4.47
1067.721	1.18
1068.142	7.48
1068.564	3.18
1068.985	-0.77
1069.406	-5.12
1069.827	-3.82
1070.248	-5.32
1070.67	-4.97
1071.091	-4.72
1071.512	-3.87
1071.933	-4.32
1072.354	-7.12
1072.775	-4.02
1073.196	-4.62
1073.617	-4.92
1074.038	-2.02
1074.459	-3.62
1074.88	-0.17
1075.3	-1.02
1075.721	-1.57
1076.142	1.93
1076.563	-6.87
1076.983	1.88
1077.404	-4.17
1077.825	2.63
1078.246	-2.37
1078.666	-2.47
1079.087	-1.72
1079.507	-5.62
1079.928	2.43
1080.348	-0.77
1080.769	3.93
1081.189	-1.22
1081.61	-4.92
1082.03	-1.02
1082.451	-0.67
1082.871	-5.07
1083.291	-5.42
1083.711	-1.72
1084.132	-0.32
1084.552	-7.37
1084.972	-5.97
1085.392	-3.92
1085.813	0.28
1086.233	-6.07
1086.653	-0.42
1087.073	-1.32
1087.493	-3.07
1087.913	-4.52
1088.333	-0.22
1088.753	-1.92
1089.173	-0.27
1089.593	3.58
1090.013	-5.27
1090.433	-3.22
1090.852	1.88
1091.272	-3.37
1091.692	-0.92
1092.112	-3.82
1092.531	-2.97
1092.951	-5.07
1093.371	-1.72
1093.79	-2.27
1094.21	-1.57
1094.63	-0.42
1095.049	-5.37
1095.469	-7.67
1095.888	-2.82
1096.308	4.33
1096.727	-2.67
1097.146	-1.62
1097.566	-0.92
1097.985	-0.92
1098.405	2.33
1098.824	-0.07
1099.243	-2.42
1099.662	-0.92
1100.082	-4.12
1100.501	-1.62
1100.92	4.78
1101.339	2.83
1101.758	3.38
