Data from MSPlasma+Separation6_Subt14_10-13-05-294.txt Node
Date: Fri Jul 21 10:13:05 EDT 2017
User: Ender
Spectrometer: HR+D1039
Trigger mode: 0
Integration Time (sec): 6.430000E-3
Scans to average: 20
Electric dark correction enabled: true
Nonlinearity correction enabled: false
Boxcar width: 0
XAxis mode: Wavelengths
Number of Pixels in Spectrum: 2048
>>>>>Begin Spectral Data<<<<<
187.836	2.83
188.309	2.83
188.782	2.83
189.255	1.98
189.728	-1.17
190.201	-4.02
190.674	-0.07
191.147	-2.82
191.619	-1.22
192.092	1.93
192.565	1.33
193.038	2.38
193.511	4.38
193.984	-1.82
194.456	-3.02
194.929	-0.47
195.402	-3.57
195.874	3.28
196.347	7.83
196.82	2.93
197.292	-2.02
197.765	-2.07
198.237	-3.77
198.71	-3.32
199.182	2.68
199.655	3.98
200.127	-2.22
200.6	-2.47
201.072	-0.27
201.544	-5.02
202.017	3.03
202.489	3.08
202.961	-0.72
203.433	-6.97
203.906	-2.87
204.378	2.13
204.85	-0.82
205.322	-1.22
205.794	3.43
206.266	-2.97
206.739	3.23
207.211	-6.62
207.683	-0.82
208.155	3.13
208.627	-0.07
209.099	2.63
209.57	0.13
210.042	4.63
210.514	-0.22
210.986	1.43
211.458	-2.22
211.93	1.13
212.402	3.03
212.873	-3.37
213.345	-4.22
213.817	-2.12
214.288	-4.67
214.76	0.53
215.232	-0.12
215.703	0.18
216.175	2.08
216.646	1.98
217.118	0.78
217.589	-1.47
218.061	-1.02
218.532	-5.27
219.004	2.73
219.475	-1.27
219.946	3.13
220.418	5.33
220.889	0.78
221.36	2.08
221.832	4.63
222.303	3.18
222.774	3.18
223.245	4.28
223.717	-2.12
224.188	1.03
224.659	0.98
225.13	3.53
225.601	1.83
226.072	3.63
226.543	6.53
227.014	3.03
227.485	3.93
227.956	3.48
228.427	11.93
228.898	2.68
229.369	2.23
229.839	4.18
230.31	3.28
230.781	0.83
231.252	7.58
231.722	6.83
232.193	5.63
232.664	4.63
233.135	4.88
233.605	4.93
234.076	9.03
234.546	5.63
235.017	9.08
235.487	9.83
235.958	9.33
236.428	10.28
236.899	4.43
237.369	9.63
237.84	11.43
238.31	12.38
238.78	4.63
239.251	5.63
239.721	6.83
240.191	7.98
240.662	12.98
241.132	8.63
241.602	10.98
242.072	9.93
242.542	8.83
243.013	13.13
243.483	15.48
243.953	5.43
244.423	11.78
244.893	12.53
245.363	17.03
245.833	12.73
246.303	15.03
246.773	15.88
247.243	16.73
247.712	17.53
248.182	16.23
248.652	20.43
249.122	20.18
249.592	22.08
250.061	17.63
250.531	18.13
251.001	17.13
251.471	21.28
251.94	20.73
252.41	19.58
252.879	18.88
253.349	26.03
253.818	18.98
254.288	26.28
254.757	17.33
255.227	29.23
255.696	21.88
256.166	24.88
256.635	25.53
257.105	23.13
257.574	23.88
258.043	23.63
258.513	26.48
258.982	19.93
259.451	32.03
259.92	25.23
260.389	27.53
260.859	27.43
261.328	30.03
261.797	23.58
262.266	34.18
262.735	30.28
263.204	24.93
263.673	30.83
264.142	22.73
264.611	27.33
265.08	28.23
265.549	30.88
266.018	30.53
266.487	32.68
266.955	28.38
267.424	34.88
267.893	38.53
268.362	34.63
268.83	33.03
269.299	31.58
269.768	32.53
270.236	32.03
270.705	37.18
271.174	36.33
271.642	34.58
272.111	35.38
272.579	39.63
273.048	41.13
273.516	40.83
273.985	37.88
274.453	38.68
274.922	34.13
275.39	35.93
275.858	40.83
276.327	38.73
276.795	38.08
277.263	43.43
277.731	39.68
278.2	44.88
278.668	41.63
279.136	40.23
279.604	44.23
280.072	45.98
280.54	47.48
281.008	45.78
281.477	48.73
281.945	44.78
282.413	45.08
282.881	50.13
283.348	48.08
283.816	49.73
284.284	52.23
284.752	54.73
285.22	55.78
285.688	49.98
286.156	57.53
286.623	53.58
287.091	53.63
287.559	55.18
288.026	56.68
288.494	55.13
288.962	58.08
289.429	58.18
289.897	50.23
290.364	60.78
290.832	55.28
291.3	62.68
291.767	56.18
292.234	60.98
292.702	59.68
293.169	60.23
293.637	62.38
294.104	63.18
294.571	62.13
295.039	68.48
295.506	62.48
295.973	61.03
296.44	68.93
296.908	70.98
297.375	64.98
297.842	72.33
298.309	69.08
298.776	66.98
299.243	72.28
299.71	70.43
300.177	67.33
300.644	68.48
301.111	72.68
301.578	75.13
302.045	72.13
302.512	76.13
302.979	77.28
303.446	78.48
303.913	78.48
304.379	79.73
304.846	79.83
305.313	87.33
305.78	88.68
306.246	86.13
306.713	83.63
307.18	91.83
307.646	89.53
308.113	84.58
308.579	93.78
309.046	96.23
309.512	94.13
309.979	98.73
310.445	91.43
310.912	93.43
311.378	101.18
311.845	99.83
312.311	98.08
312.777	94.28
313.244	103.63
313.71	97.18
314.176	106.88
314.642	101.68
315.109	108.63
315.575	97.08
316.041	106.03
316.507	103.13
316.973	112.53
317.439	115.23
317.905	113.48
318.371	109.33
318.837	106.23
319.303	109.48
319.769	111.08
320.235	112.58
320.701	114.38
321.167	116.88
321.633	112.23
322.099	112.78
322.564	115.88
323.03	117.63
323.496	119.28
323.962	121.43
324.427	125.13
324.893	124.33
325.359	129.73
325.824	128.73
326.29	132.83
326.755	128.98
327.221	127.48
327.686	137.08
328.152	131.38
328.617	134.48
329.083	138.78
329.548	137.63
330.014	138.93
330.479	145.83
330.944	141.53
331.41	145.38
331.875	133.38
332.34	137.33
332.805	145.93
333.271	144.53
333.736	146.13
334.201	143.93
334.666	154.13
335.131	155.93
335.596	155.18
336.061	151.73
336.526	147.33
336.991	148.68
337.456	150.83
337.921	144.88
338.386	144.08
338.851	142.18
339.316	150.03
339.781	143.68
340.246	151.93
340.711	154.63
341.175	154.98
341.64	161.28
342.105	157.03
342.569	172.93
343.034	160.08
343.499	170.98
343.963	177.78
344.428	171.23
344.893	173.58
345.357	179.73
345.822	182.43
346.286	182.98
346.751	184.93
347.215	189.13
347.679	192.48
348.144	200.38
348.608	204.53
349.073	206.38
349.537	209.93
350.001	207.38
350.465	207.03
350.93	208.53
351.394	214.58
351.858	215.63
352.322	220.33
352.786	217.28
353.25	217.98
353.715	221.63
354.179	235.03
354.643	240.93
355.107	239.18
355.571	236.08
356.035	238.63
356.498	235.78
356.962	231.03
357.426	227.13
357.89	226.13
358.354	224.78
358.818	225.38
359.281	227.33
359.745	229.58
360.209	230.88
360.673	229.53
361.136	226.93
361.6	230.98
362.064	233.58
362.527	242.43
362.991	236.88
363.454	237.83
363.918	241.83
364.381	245.98
364.845	247.18
365.308	245.98
365.772	255.23
366.235	250.23
366.698	248.13
367.162	246.28
367.625	247.78
368.088	255.08
368.552	252.13
369.015	250.98
369.478	261.53
369.941	254.43
370.404	262.68
370.867	260.58
371.331	262.03
371.794	264.98
372.257	264.93
372.72	261.13
373.183	270.18
373.646	269.53
374.109	272.88
374.572	273.28
375.035	272.38
375.497	276.58
375.96	281.33
376.423	284.78
376.886	287.53
377.349	291.73
377.811	292.38
378.274	294.93
378.737	284.68
379.199	291.03
379.662	300.63
380.125	296.93
380.587	305.58
381.05	303.23
381.512	316.83
381.975	319.88
382.437	334.38
382.9	331.73
383.362	323.78
383.825	324.23
384.287	331.48
384.75	332.88
385.212	330.73
385.674	331.83
386.136	342.28
386.599	339.78
387.061	329.33
387.523	335.43
387.985	340.03
388.447	345.58
388.91	346.13
389.372	344.63
389.834	350.63
390.296	340.38
390.758	346.13
391.22	343.78
391.682	345.93
392.144	342.08
392.606	347.48
393.068	355.03
393.529	379.38
393.991	386.68
394.453	368.18
394.915	354.93
395.377	343.43
395.838	357.58
396.3	352.23
396.762	361.33
397.224	359.63
397.685	355.68
398.147	369.28
398.608	363.98
399.07	368.43
399.531	371.98
399.993	384.28
400.454	388.33
400.916	382.58
401.377	397.13
401.839	400.13
402.3	406.98
402.762	413.73
403.223	446.33
403.684	440.38
404.145	427.18
404.607	407.18
405.068	394.58
405.529	398.93
405.99	399.53
406.451	410.03
406.913	398.53
407.374	405.28
407.835	399.13
408.296	417.48
408.757	417.98
409.218	427.13
409.679	433.93
410.14	438.08
410.601	455.48
411.062	458.68
411.522	463.53
411.983	465.98
412.444	477.13
412.905	484.43
413.366	505.63
413.826	540.08
414.287	615.63
414.748	757.68
415.208	774.73
415.669	632.88
416.13	566.53
416.59	556.53
417.051	591.08
417.511	614.18
417.972	666.38
418.432	738.98
418.893	823.53
419.353	774.13
419.814	581.13
420.274	511.93
420.734	502.18
421.195	513.43
421.655	510.03
422.115	521.03
422.576	519.78
423.036	518.18
423.496	535.08
423.956	558.88
424.416	597.58
424.876	678.68
425.336	673.23
425.797	654.18
426.257	632.18
426.717	587.48
427.177	531.23
427.637	519.38
428.097	529.43
428.556	546.38
429.016	587.83
429.476	573.08
429.936	542.23
430.396	534.08
430.856	540.78
431.315	551.53
431.775	587.03
432.235	650.13
432.694	663.53
433.154	609.38
433.614	587.78
434.073	578.43
434.533	530.68
434.993	526.28
435.452	534.03
435.912	527.78
436.371	540.73
436.83	540.13
437.29	537.28
437.749	534.98
438.209	535.68
438.668	551.58
439.127	558.83
439.587	554.18
440.046	545.13
440.505	565.68
440.964	572.58
441.424	584.23
441.883	602.78
442.342	572.18
442.801	553.73
443.26	563.83
443.719	560.23
444.178	554.73
444.637	570.13
445.096	580.13
445.555	583.88
446.014	583.03
446.473	571.03
446.932	584.88
447.391	586.53
447.849	597.63
448.308	589.78
448.767	595.13
449.226	600.28
449.685	618.28
450.143	640.63
450.602	633.03
451.061	604.43
451.519	604.48
451.978	595.78
452.436	590.03
452.895	595.28
453.353	599.63
453.812	589.63
454.27	593.83
454.729	588.73
455.187	606.18
455.646	602.53
456.104	595.88
456.562	605.33
457.021	613.98
457.479	588.23
457.937	607.73
458.395	625.68
458.854	626.03
459.312	612.68
459.77	613.98
460.228	625.93
460.686	635.98
461.144	641.83
461.602	626.08
462.06	628.73
462.518	642.83
462.976	635.48
463.434	644.53
463.892	652.53
464.35	664.83
464.808	668.93
465.266	681.58
465.724	694.48
466.181	695.23
466.639	687.88
467.097	719.08
467.555	746.28
468.012	727.73
468.47	733.28
468.928	758.48
469.385	780.73
469.843	784.38
470.3	777.33
470.758	805.33
471.215	804.23
471.673	821.48
472.13	837.78
472.588	852.58
473.045	848.08
473.503	862.73
473.96	899.63
474.417	901.78
474.875	932.58
475.332	952.33
475.789	957.93
476.246	973.33
476.704	995.28
477.161	997.38
477.618	996.98
478.075	1020.13
478.532	1052.03
478.989	1083.93
479.446	1134.83
479.903	1122.48
480.36	1143.88
480.817	1148.63
481.274	1148.88
481.731	1176.18
482.188	1201.88
482.645	1232.93
483.102	1238.28
483.558	1274.93
484.015	1296.78
484.472	1299.33
484.929	1315.23
485.385	1310.28
485.842	1320.43
486.299	1331.53
486.755	1325.48
487.212	1300.78
487.668	1265.48
488.125	1258.68
488.582	1243.53
489.038	1258.18
489.494	1265.23
489.951	1271.78
490.407	1275.38
490.864	1275.53
491.32	1271.28
491.776	1278.38
492.233	1306.53
492.689	1293.43
493.145	1276.38
493.602	1274.78
494.058	1289.88
494.514	1302.58
494.97	1305.13
495.426	1331.58
495.882	1337.08
496.338	1339.98
496.794	1359.83
497.251	1354.68
497.707	1377.43
498.163	1380.03
498.618	1384.08
499.074	1374.28
499.53	1399.28
499.986	1400.68
500.442	1400.33
500.898	1385.93
501.354	1404.43
501.809	1401.98
502.265	1407.63
502.721	1413.33
503.177	1416.48
503.632	1430.13
504.088	1427.03
504.543	1453.78
504.999	1458.73
505.455	1456.23
505.91	1441.88
506.366	1448.53
506.821	1449.08
507.277	1450.58
507.732	1447.13
508.187	1443.33
508.643	1459.03
509.098	1461.43
509.553	1471.68
510.009	1497.08
510.464	1513.53
510.919	1527.93
511.375	1553.03
511.83	1573.78
512.285	1601.88
512.74	1633.18
513.195	1652.23
513.65	1683.98
514.105	1707.48
514.56	1718.83
515.015	1749.43
515.47	1755.13
515.925	1732.63
516.38	1736.93
516.835	1746.73
517.29	1739.83
517.745	1738.83
518.2	1706.38
518.655	1679.78
519.109	1645.83
519.564	1626.68
520.019	1607.08
520.474	1594.48
520.928	1586.28
521.383	1576.58
521.838	1569.33
522.292	1561.28
522.747	1538.43
523.201	1544.13
523.656	1518.03
524.11	1518.88
524.565	1505.08
525.019	1515.68
525.474	1513.43
525.928	1494.38
526.382	1494.13
526.837	1495.58
527.291	1500.08
527.745	1493.78
528.2	1484.58
528.654	1474.78
529.108	1475.08
529.562	1480.63
530.016	1478.78
530.47	1470.93
530.925	1463.18
531.379	1462.33
531.833	1480.18
532.287	1481.33
532.741	1475.83
533.195	1478.38
533.649	1481.38
534.103	1483.43
534.556	1464.18
535.01	1479.53
535.464	1468.63
535.918	1468.88
536.372	1489.18
536.826	1473.63
537.279	1465.93
537.733	1473.43
538.187	1476.93
538.64	1477.03
539.094	1492.73
539.548	1504.83
540.001	1504.23
540.455	1507.38
540.908	1521.08
541.362	1540.28
541.815	1544.83
542.269	1582.48
542.722	1572.98
543.175	1590.23
543.629	1601.53
544.082	1621.33
544.536	1635.13
544.989	1644.03
545.442	1649.98
545.895	1653.93
546.349	1650.98
546.802	1655.43
547.255	1657.93
547.708	1681.13
548.161	1700.98
548.614	1694.28
549.067	1709.18
549.52	1690.28
549.973	1663.23
550.426	1652.48
550.879	1655.93
551.332	1647.73
551.785	1661.18
552.238	1670.98
552.691	1678.38
553.144	1693.38
553.596	1732.08
554.049	1754.03
554.502	1789.08
554.955	1828.23
555.407	1853.18
555.86	1835.93
556.313	1801.33
556.765	1798.13
557.218	1761.93
557.67	1753.78
558.123	1729.18
558.576	1725.18
559.028	1730.03
559.48	1757.63
559.933	1738.98
560.385	1682.38
560.838	1617.83
561.29	1571.88
561.742	1567.73
562.195	1523.23
562.647	1513.23
563.099	1502.23
563.551	1494.23
564.004	1516.88
564.456	1515.38
564.908	1468.08
565.36	1437.48
565.812	1392.48
566.264	1388.18
566.716	1365.88
567.168	1349.28
567.62	1337.93
568.072	1334.18
568.524	1332.23
568.976	1314.53
569.428	1312.53
569.88	1305.18
570.332	1312.73
570.784	1312.58
571.235	1301.43
571.687	1325.08
572.139	1325.03
572.59	1346.93
573.042	1349.68
573.494	1348.23
573.945	1319.98
574.397	1293.38
574.849	1287.98
575.3	1292.98
575.752	1272.28
576.203	1263.48
576.655	1283.28
577.106	1251.38
577.557	1247.23
578.009	1234.93
578.46	1243.33
578.912	1228.83
579.363	1231.43
579.814	1228.83
580.265	1230.48
580.717	1235.78
581.168	1230.08
581.619	1241.43
582.07	1252.78
582.521	1242.13
582.972	1234.58
583.423	1233.08
583.875	1245.68
584.326	1263.08
584.777	1272.38
585.227	1296.48
585.678	1311.73
586.129	1327.18
586.58	1343.53
587.031	1364.18
587.482	1400.23
587.933	1422.73
588.384	1425.28
588.834	1416.83
589.285	1406.33
589.736	1405.73
590.186	1423.18
590.637	1396.78
591.088	1350.78
591.538	1329.93
591.989	1315.98
592.439	1297.03
592.89	1277.93
593.34	1267.58
593.791	1263.93
594.241	1248.03
594.692	1252.58
595.142	1248.58
595.593	1248.78
596.043	1257.38
596.493	1275.78
596.943	1258.13
597.394	1288.43
597.844	1308.88
598.294	1338.93
598.744	1398.78
599.195	1468.13
599.645	1559.53
600.095	1645.33
600.545	1727.98
600.995	1825.43
601.445	1890.93
601.895	1988.98
602.345	2077.73
602.795	2040.28
603.245	1956.03
603.695	1828.53
604.145	1718.78
604.594	1627.68
605.044	1529.88
605.494	1420.83
605.944	1342.63
606.393	1304.48
606.843	1279.83
607.293	1281.68
607.743	1274.13
608.192	1284.73
608.642	1290.08
609.091	1296.38
609.541	1293.58
609.99	1287.13
610.44	1256.88
610.889	1249.03
611.339	1223.13
611.788	1206.33
612.238	1211.73
612.687	1211.18
613.136	1215.83
613.586	1229.68
614.035	1233.08
614.484	1231.73
614.933	1237.23
615.383	1218.93
615.832	1187.28
616.281	1175.58
616.73	1152.23
617.179	1117.38
617.628	1095.98
618.077	1073.23
618.526	1057.23
618.975	1048.58
619.424	1031.33
619.873	1038.43
620.322	1029.63
620.771	1028.18
621.22	1004.63
621.669	979.03
622.118	976.93
622.567	955.53
623.015	942.73
623.464	944.38
623.913	933.78
624.361	936.08
624.81	925.23
625.259	933.03
625.707	919.28
626.156	933.98
626.604	945.78
627.053	959.13
627.501	955.73
627.95	962.13
628.398	969.28
628.847	952.98
629.295	948.13
629.744	953.23
630.192	929.08
630.64	917.68
631.089	895.33
631.537	864.08
631.985	851.53
632.433	849.18
632.881	842.28
633.33	851.08
633.778	846.53
634.226	856.38
634.674	867.33
635.122	876.23
635.57	889.73
636.018	898.98
636.466	892.48
636.914	891.83
637.362	910.93
637.81	924.73
638.258	942.68
638.705	956.63
639.153	991.43
639.601	1001.23
640.049	1012.58
640.497	1043.73
640.944	1072.78
641.392	1013.03
641.84	931.23
642.287	876.58
642.735	843.13
643.182	830.03
643.63	816.68
644.078	815.68
644.525	813.18
644.973	824.43
645.42	826.78
645.867	829.58
646.315	830.98
646.762	836.68
647.21	825.93
647.657	834.48
648.104	820.68
648.551	789.88
648.999	787.58
649.446	788.78
649.893	778.73
650.34	788.43
650.787	798.63
651.234	838.78
651.682	902.68
652.129	979.18
652.576	1121.28
653.023	1292.43
653.47	1390.93
653.917	1458.48
654.363	1496.98
654.81	1565.83
655.257	1622.48
655.704	1278.58
656.151	995.53
656.598	872.83
657.044	809.18
657.491	792.18
657.938	771.03
658.385	760.98
658.831	760.13
659.278	759.58
659.724	743.88
660.171	735.63
660.618	711.98
661.064	704.33
661.511	708.88
661.957	703.58
662.404	715.23
662.85	721.88
663.296	725.48
663.743	727.93
664.189	734.33
664.635	736.93
665.082	727.48
665.528	726.88
665.974	711.78
666.42	706.48
666.867	705.68
667.313	661.18
667.759	663.88
668.205	663.08
668.651	666.53
669.097	668.23
669.543	677.43
669.989	683.48
670.435	682.08
670.881	686.93
671.327	731.13
671.773	781.68
672.219	850.28
672.665	914.83
673.11	953.58
673.556	980.68
674.002	1022.88
674.448	1038.58
674.893	867.63
675.339	738.68
675.785	685.18
676.23	649.03
676.676	620.23
677.122	609.88
677.567	592.13
678.013	576.38
678.458	561.43
678.904	561.53
679.349	557.18
679.794	555.73
680.24	559.73
680.685	545.33
681.131	555.13
681.576	560.08
682.021	554.33
682.466	569.53
682.912	570.83
683.357	597.48
683.802	649.03
684.247	717.78
684.692	775.43
685.137	814.08
685.583	840.08
686.028	903.18
686.473	852.78
686.918	721.33
687.363	655.58
687.807	622.88
688.252	586.33
688.697	558.08
689.142	547.33
689.587	543.58
690.032	555.68
690.477	568.78
690.921	608.78
691.366	644.33
691.811	675.48
692.255	731.03
692.7	891.83
693.145	1278.93
693.589	1973.18
694.034	2401.68
694.478	2634.78
694.923	2468.53
695.367	3641.38
695.812	2137.18
696.256	851.58
696.701	613.13
697.145	557.48
697.59	532.33
698.034	524.88
698.478	520.18
698.922	526.38
699.367	539.08
699.811	571.73
700.255	623.43
700.699	682.73
701.143	751.93
701.588	803.33
702.032	847.58
702.476	863.38
702.92	909.93
703.364	1171.68
703.808	1813.48
704.252	2307.93
704.696	2518.83
705.14	2422.03
705.584	3445.23
706.027	1837.63
706.471	894.88
706.915	648.88
707.359	565.33
707.803	527.33
708.246	512.58
708.69	504.33
709.134	497.53
709.577	491.73
710.021	498.58
710.465	509.23
710.908	494.38
711.352	519.83
711.795	575.43
712.239	615.38
712.682	638.08
713.126	630.33
713.569	720.98
714.012	574.28
714.456	495.68
714.899	468.83
715.342	444.63
715.786	429.38
716.229	413.53
716.672	404.13
717.115	403.43
717.558	408.33
718.002	421.18
718.445	445.98
718.888	472.98
719.331	485.13
719.774	489.68
720.217	477.78
720.66	452.03
721.103	427.83
721.546	397.53
721.989	387.88
722.432	385.03
722.874	382.83
723.317	383.98
723.76	418.58
724.203	519.73
724.645	708.53
725.088	857.18
725.531	852.48
725.974	968.58
726.416	853.88
726.859	503.13
727.301	403.08
727.744	380.53
728.187	378.88
728.629	386.98
729.071	415.58
729.514	436.93
729.956	458.83
730.399	459.63
730.841	464.18
731.283	448.53
731.726	436.33
732.168	442.93
732.61	466.03
733.053	501.73
733.495	565.38
733.937	628.43
734.379	747.28
734.821	950.08
735.263	1504.23
735.705	2710.48
736.148	4092.98
736.59	4234.08
737.032	4767.68
737.474	3881.93
737.916	1427.98
738.357	726.18
738.799	552.03
739.241	502.13
739.683	509.23
740.125	515.03
740.567	525.73
741.008	559.98
741.45	587.43
741.892	607.88
742.334	623.53
742.775	620.48
743.217	593.88
743.658	491.73
744.1	496.43
744.542	562.88
744.983	594.18
745.425	627.08
745.866	620.58
746.307	515.63
746.749	547.58
747.19	804.13
747.632	1586.08
748.073	2985.13
748.514	4245.68
748.956	5814.73
749.397	6878.73
749.838	4697.58
750.279	4634.73
750.72	2314.78
751.162	948.08
751.603	526.83
752.044	419.58
752.485	377.93
752.926	347.73
753.367	328.68
753.808	320.33
754.249	310.43
754.69	311.68
755.131	303.48
755.572	303.93
756.013	305.28
756.453	302.93
756.894	312.73
757.335	315.23
757.776	316.53
758.216	325.18
758.657	350.43
759.098	385.43
759.538	468.08
759.979	673.68
760.42	1379.33
760.86	3526.43
761.301	7585.98
761.741	9304.78
762.182	11252.98
762.622	7084.63
763.063	2422.98
763.503	963.93
763.943	554.43
764.384	439.73
764.824	376.93
765.264	348.13
765.705	325.48
766.145	307.83
766.585	292.33
767.025	282.98
767.465	287.08
767.906	291.98
768.346	313.43
768.786	360.78
769.226	534.03
769.666	1092.53
770.106	2493.38
770.546	3704.93
770.986	4413.13
771.426	3312.58
771.866	1306.68
772.306	576.28
772.745	346.68
773.185	286.08
773.625	275.88
774.065	289.78
774.505	404.88
774.944	691.13
775.384	1011.93
775.824	1184.48
776.263	1002.98
776.703	518.53
777.142	300.78
777.582	232.78
778.021	211.88
778.461	207.48
778.9	203.18
779.34	197.73
779.779	191.08
780.219	192.78
780.658	185.63
781.097	181.73
781.537	178.43
781.976	178.73
782.415	174.18
782.855	173.08
783.294	173.38
783.733	169.28
784.172	176.28
784.611	178.98
785.05	177.98
785.489	188.83
785.928	189.93
786.367	197.63
786.806	209.88
787.245	225.18
787.684	234.53
788.123	231.53
788.562	223.13
789.001	215.18
789.44	208.48
789.879	204.28
790.317	207.98
790.756	221.13
791.195	257.38
791.634	341.83
792.072	631.33
792.511	1564.98
792.95	3010.63
793.388	3825.53
793.827	2476.63
794.265	1071.13
794.704	504.68
795.142	296.83
795.581	244.33
796.019	220.03
796.458	225.88
796.896	233.88
797.334	264.83
797.773	363.28
798.211	697.68
798.649	1499.43
799.087	2564.68
799.526	3651.88
799.964	3855.33
800.402	2694.98
800.84	1160.78
801.278	552.98
801.716	332.83
802.154	264.23
802.592	248.93
803.03	243.43
803.468	255.18
803.906	258.48
804.344	256.18
804.782	242.88
805.22	244.33
805.658	253.58
806.096	266.08
806.533	299.88
806.971	392.23
807.409	572.78
807.847	1142.28
808.284	2952.58
808.722	5392.53
809.16	7556.53
809.597	10115.08
810.035	13078.58
810.472	8606.33
810.91	3481.53
811.347	1535.43
811.785	717.83
812.222	449.48
812.66	342.98
813.097	288.03
813.535	249.38
813.972	222.43
814.409	202.43
814.846	193.98
815.284	185.73
815.721	185.53
816.158	208.08
816.595	268.78
817.032	342.53
817.47	318.48
817.907	230.33
818.344	200.33
818.781	197.08
819.218	239.03
819.655	353.03
820.092	477.38
820.529	432.58
820.966	336.28
821.403	227.48
821.839	199.03
822.276	214.98
822.713	267.18
823.15	256.33
823.587	260.83
824.023	480.78
824.46	1233.93
824.897	2255.68
825.333	1798.88
825.77	783.43
826.206	403.88
826.643	227.93
827.08	175.28
827.516	144.53
827.953	136.83
828.389	131.68
828.825	125.93
829.262	118.38
829.698	115.88
830.135	108.93
830.571	102.08
831.007	114.33
831.443	109.18
831.88	113.98
832.316	117.03
832.752	112.43
833.188	114.03
833.624	119.43
834.06	122.03
834.497	118.88
834.933	120.23
835.369	132.03
835.805	143.23
836.241	146.53
836.677	166.53
837.112	190.03
837.548	233.73
837.984	357.18
838.42	752.78
838.856	2163.73
839.292	4486.53
839.727	3359.53
840.163	2147.93
840.599	3259.68
841.034	5270.48
841.47	2621.68
841.906	1219.48
842.341	626.93
842.777	446.93
843.212	458.18
843.648	286.73
844.083	189.68
844.519	149.58
844.954	128.93
845.39	113.78
845.825	108.23
846.261	102.53
846.696	101.43
847.131	99.58
847.566	97.58
848.002	94.93
848.437	109.83
848.872	109.68
849.307	139.88
849.742	258.98
850.177	710.88
850.613	1586.93
851.048	1157.63
851.483	508.48
851.918	271.58
852.353	149.28
852.788	100.78
853.223	91.38
853.657	82.18
854.092	81.13
854.527	82.13
854.962	83.83
855.397	93.53
855.832	80.58
856.266	67.93
856.701	73.83
857.136	77.63
857.57	91.13
858.005	109.98
858.44	95.83
858.874	89.83
859.309	87.13
859.743	92.18
860.178	86.43
860.612	99.93
861.047	125.88
861.481	180.08
861.915	119.98
862.35	94.18
862.784	74.13
863.218	70.78
863.653	71.43
864.087	94.28
864.521	120.43
864.955	200.23
865.39	374.88
865.824	262.48
866.258	318.78
866.692	491.78
867.126	356.48
867.56	187.78
867.994	115.58
868.428	95.78
868.862	124.18
869.296	115.23
869.73	140.28
870.164	119.33
870.598	111.08
871.031	78.78
871.465	66.53
871.899	58.68
872.333	50.13
872.766	46.88
873.2	53.28
873.634	50.23
874.067	56.43
874.501	53.78
874.935	53.68
875.368	51.28
875.802	51.53
876.235	50.58
876.669	40.88
877.102	39.03
877.535	43.73
877.969	40.43
878.402	41.88
878.836	44.83
879.269	41.73
879.702	38.28
880.135	42.28
880.569	40.38
881.002	36.23
881.435	38.23
881.868	42.93
882.301	37.38
882.734	34.68
883.167	35.38
883.601	39.83
884.034	37.68
884.467	31.23
884.899	36.88
885.332	30.23
885.765	34.63
886.198	34.08
886.631	35.98
887.064	36.28
887.497	32.23
887.929	38.18
888.362	29.28
888.795	32.08
889.228	33.93
889.66	30.43
890.093	33.03
890.526	32.23
890.958	31.88
891.391	33.08
891.823	28.53
892.256	31.58
892.688	31.78
893.121	29.18
893.553	38.33
893.985	26.08
894.418	28.58
894.85	31.93
895.282	29.43
895.715	26.88
896.147	26.83
896.579	28.23
897.011	30.73
897.444	32.83
897.876	25.93
898.308	23.98
898.74	26.58
899.172	33.83
899.604	28.83
900.036	29.08
900.468	26.68
900.9	35.53
901.332	44.63
901.764	41.58
902.196	34.38
902.628	35.78
903.06	55.23
903.491	63.08
903.923	49.28
904.355	48.33
904.787	47.78
905.218	43.23
905.65	42.78
906.082	39.88
906.513	33.08
906.945	34.83
907.376	35.23
907.808	35.13
908.239	37.33
908.671	44.73
909.102	49.13
909.534	69.38
909.965	137.13
910.397	361.48
910.828	1084.88
911.259	657.78
911.691	338.33
912.122	191.98
912.553	97.53
912.984	56.68
913.415	51.13
913.847	40.93
914.278	41.63
914.709	29.48
915.14	30.88
915.571	34.88
916.002	30.33
916.433	26.13
916.864	32.08
917.295	29.88
917.726	38.43
918.157	53.23
918.587	49.13
919.018	43.78
919.449	40.23
919.88	49.23
920.311	77.43
920.741	221.68
921.172	404.58
921.603	194.73
922.033	116.73
922.464	72.18
922.895	47.83
923.325	28.78
923.756	28.98
924.186	37.08
924.617	51.08
925.047	75.93
925.478	68.18
925.908	42.28
926.338	33.98
926.769	28.08
927.199	27.63
927.629	26.08
928.06	28.18
928.49	28.78
928.92	24.28
929.35	22.03
929.78	19.58
930.21	15.23
930.641	10.43
931.071	16.53
931.501	16.33
931.931	10.38
932.361	18.28
932.791	19.18
933.221	16.88
933.651	29.93
934.08	51.28
934.51	26.63
934.94	25.23
935.37	17.63
935.8	13.88
936.229	11.53
936.659	14.98
937.089	25.33
937.519	43.08
937.948	55.43
938.378	31.08
938.807	19.28
939.237	13.28
939.666	12.63
940.096	5.13
940.525	3.13
940.955	9.83
941.384	5.43
941.814	9.13
942.243	6.28
942.672	5.93
943.102	6.43
943.531	7.73
943.96	4.73
944.39	9.53
944.819	10.48
945.248	8.23
945.677	5.28
946.106	5.93
946.535	11.33
946.964	4.98
947.393	3.33
947.822	5.38
948.251	7.08
948.68	9.03
949.109	3.98
949.538	5.93
949.967	6.88
950.396	4.73
950.825	5.68
951.254	8.38
951.682	3.48
952.111	2.98
952.54	4.03
952.969	3.38
953.397	2.83
953.826	2.63
954.254	9.08
954.683	7.78
955.112	7.53
955.54	3.88
955.969	2.78
956.397	2.93
956.826	1.73
957.254	5.23
957.682	5.98
958.111	5.03
958.539	6.28
958.967	5.78
959.396	9.03
959.824	2.88
960.252	7.08
960.68	5.58
961.109	7.68
961.537	13.18
961.965	-0.52
962.393	0.48
962.821	2.18
963.249	5.73
963.677	15.08
964.105	66.28
964.533	115.28
964.961	53.53
965.389	28.93
965.817	14.53
966.245	8.83
966.672	6.83
967.1	6.43
967.528	4.98
967.956	-0.92
968.383	6.38
968.811	3.43
969.239	3.23
969.666	1.88
970.094	4.88
970.522	0.03
970.949	2.23
971.377	-3.97
971.804	-2.02
972.232	3.88
972.659	0.18
973.087	5.98
973.514	2.28
973.941	1.78
974.369	-0.67
974.796	1.83
975.223	-0.97
975.651	5.98
976.078	3.43
976.505	7.43
976.932	29.08
977.359	33.28
977.786	16.93
978.214	13.08
978.641	-1.77
979.068	1.53
979.495	-0.52
979.922	1.58
980.349	7.63
980.776	3.53
981.202	5.83
981.629	7.28
982.056	2.98
982.483	-4.72
982.91	7.78
983.337	0.98
983.763	4.53
984.19	2.08
984.617	1.98
985.043	7.18
985.47	5.58
985.897	6.38
986.323	7.08
986.75	-0.57
987.176	-1.12
987.603	-0.32
988.029	4.28
988.456	8.73
988.882	-2.57
989.308	-1.02
989.735	0.68
990.161	-0.67
990.587	-1.02
991.014	1.98
991.44	5.23
991.866	-0.42
992.292	0.78
992.719	-1.22
993.145	3.73
993.571	3.58
993.997	5.98
994.423	9.48
994.849	1.43
995.275	3.93
995.701	6.83
996.127	-3.32
996.553	1.83
996.979	3.23
997.405	5.73
997.83	2.73
998.256	3.03
998.682	0.73
999.108	1.28
999.534	-3.62
999.959	-1.62
1000.385	3.73
1000.811	-4.97
1001.236	-3.02
1001.662	-1.32
1002.087	7.68
1002.513	1.03
1002.938	-2.47
1003.364	1.13
1003.789	6.53
1004.215	-1.32
1004.64	-1.37
1005.066	5.83
1005.491	1.28
1005.916	4.43
1006.342	1.03
1006.767	0.63
1007.192	3.83
1007.617	0.53
1008.042	2.43
1008.468	2.03
1008.893	5.78
1009.318	7.03
1009.743	12.38
1010.168	18.68
1010.593	15.63
1011.018	9.68
1011.443	5.88
1011.868	5.13
1012.293	5.08
1012.718	-2.17
1013.143	1.63
1013.567	6.08
1013.992	3.73
1014.417	4.48
1014.842	0.78
1015.267	1.33
1015.691	2.93
1016.116	1.33
1016.541	2.83
1016.965	2.13
1017.39	0.88
1017.814	-1.42
1018.239	-0.52
1018.663	-4.02
1019.088	-1.42
1019.512	9.38
1019.937	-3.07
1020.361	-0.12
1020.785	-3.17
1021.21	-1.17
1021.634	-2.02
1022.058	2.18
1022.483	-2.92
1022.907	-3.97
1023.331	-3.42
1023.755	-3.77
1024.179	0.73
1024.604	0.08
1025.028	0.73
1025.452	-0.12
1025.876	-2.62
1026.3	-1.57
1026.724	-0.12
1027.148	3.48
1027.572	0.53
1027.996	3.23
1028.42	-1.62
1028.843	-1.72
1029.267	1.43
1029.691	5.53
1030.115	1.63
1030.539	-1.47
1030.962	-4.02
1031.386	-0.92
1031.81	-1.02
1032.233	-2.62
1032.657	-9.57
1033.08	0.93
1033.504	-2.42
1033.927	1.73
1034.351	-4.42
1034.774	0.98
1035.198	-3.87
1035.621	-3.42
1036.045	-2.22
1036.468	3.28
1036.891	-0.77
1037.315	-0.62
1037.738	-0.12
1038.161	2.08
1038.584	-0.42
1039.008	-6.57
1039.431	-2.52
1039.854	-3.67
1040.277	7.68
1040.7	-0.57
1041.123	4.33
1041.546	-0.47
1041.969	1.43
1042.392	0.98
1042.815	-5.07
1043.238	-2.67
1043.661	-2.07
1044.084	-3.72
1044.507	1.23
1044.93	-1.02
1045.352	2.43
1045.775	0.73
1046.198	6.43
1046.621	2.18
1047.043	-4.97
1047.466	-0.47
1047.889	0.78
1048.311	2.63
1048.734	-6.17
1049.156	-1.72
1049.579	-5.87
1050.001	-4.07
1050.424	1.58
1050.846	-3.92
1051.269	-2.42
1051.691	-2.82
1052.113	-0.27
1052.536	1.03
1052.958	-2.02
1053.38	-1.47
1053.802	-0.62
1054.225	2.33
1054.647	-2.82
1055.069	-2.52
1055.491	2.43
1055.913	-2.07
1056.335	-7.02
1056.757	-3.57
1057.179	0.33
1057.601	-3.72
1058.023	0.18
1058.445	-5.02
1058.867	5.83
1059.289	-1.17
1059.711	-1.22
1060.133	2.43
1060.555	-2.42
1060.976	3.73
1061.398	-1.82
1061.82	-1.52
1062.241	-4.52
1062.663	-0.17
1063.085	-5.77
1063.506	-3.82
1063.928	-2.02
1064.35	0.18
1064.771	-1.32
1065.193	-2.02
1065.614	-0.37
1066.035	0.53
1066.457	6.13
1066.878	1.78
1067.3	2.83
1067.721	0.48
1068.142	0.98
1068.564	3.38
1068.985	-2.82
1069.406	-3.37
1069.827	0.23
1070.248	-6.32
1070.67	-5.47
1071.091	-4.97
1071.512	-7.22
1071.933	-4.32
1072.354	-4.47
1072.775	-3.47
1073.196	-4.77
1073.617	-2.72
1074.038	-1.72
1074.459	-4.17
1074.88	-2.67
1075.3	-3.32
1075.721	-2.92
1076.142	-7.97
1076.563	-4.67
1076.983	-0.72
1077.404	-8.02
1077.825	-0.52
1078.246	-3.77
1078.666	-2.37
1079.087	-2.02
1079.507	-6.17
1079.928	-0.72
1080.348	-2.57
1080.769	1.88
1081.189	-4.17
1081.61	-9.07
1082.03	0.58
1082.451	1.88
1082.871	-4.17
1083.291	-3.92
1083.711	-5.57
1084.132	-2.32
1084.552	-6.82
1084.972	-5.02
1085.392	-6.02
1085.813	1.73
1086.233	-1.92
1086.653	-2.37
1087.073	-1.07
1087.493	-6.82
1087.913	-9.17
1088.333	-3.67
1088.753	-2.87
1089.173	3.83
1089.593	1.03
1090.013	-1.02
1090.433	-6.42
1090.852	1.93
1091.272	-3.12
1091.692	-2.87
1092.112	-2.02
1092.531	-5.32
1092.951	0.33
1093.371	-4.97
1093.79	-4.87
1094.21	-6.42
1094.63	-1.47
1095.049	-0.27
1095.469	-10.52
1095.888	-0.57
1096.308	-2.87
1096.727	-2.12
1097.146	-5.77
1097.566	-2.37
1097.985	-0.02
1098.405	-1.42
1098.824	-0.52
1099.243	-1.47
1099.662	-2.37
1100.082	-5.77
1100.501	-1.17
1100.92	1.63
1101.339	-0.17
1101.758	0.98
