Data from MSPlasma+Separation6_Subt14_10-13-09-501.txt Node
Date: Fri Jul 21 10:13:09 EDT 2017
User: Ender
Spectrometer: HR+D1039
Trigger mode: 0
Integration Time (sec): 6.430000E-3
Scans to average: 20
Electric dark correction enabled: true
Nonlinearity correction enabled: false
Boxcar width: 0
XAxis mode: Wavelengths
Number of Pixels in Spectrum: 2048
>>>>>Begin Spectral Data<<<<<
187.836	2.8
188.309	2.8
188.782	2.8
189.255	-2.95
189.728	7.15
190.201	1.85
190.674	-3.55
191.147	-0.15
191.619	-1.45
192.092	-0.2
192.565	-2.6
193.038	3.1
193.511	0.7
193.984	-0.8
194.456	4.05
194.929	0.5
195.402	-1.55
195.874	-6.9
196.347	1.65
196.82	1.15
197.292	-2.25
197.765	2.25
198.237	1.2
198.71	-6.35
199.182	2.4
199.655	5.35
200.127	1.2
200.6	1.65
201.072	2.55
201.544	-0.75
202.017	-1.4
202.489	-0.3
202.961	-2.15
203.433	-4.75
203.906	-0.75
204.378	4.3
204.85	-1.05
205.322	-2.8
205.794	3.25
206.266	0.1
206.739	3.2
207.211	0.75
207.683	2.95
208.155	6.25
208.627	1.25
209.099	5.55
209.57	-1.5
210.042	0.05
210.514	0.25
210.986	-3.2
211.458	-2.95
211.93	-0.5
212.402	2.15
212.873	-0.85
213.345	-4
213.817	4.75
214.288	-5.15
214.76	0.4
215.232	-0.55
215.703	-1.35
216.175	-2.5
216.646	3.7
217.118	1.05
217.589	-0.1
218.061	-0.95
218.532	-5.5
219.004	3.2
219.475	3.15
219.946	1.35
220.418	5.5
220.889	6.2
221.36	4.3
221.832	3.7
222.303	2.05
222.774	4.25
223.245	1.55
223.717	1.9
224.188	2.55
224.659	3.05
225.13	-0.15
225.601	3.6
226.072	5.7
226.543	2.25
227.014	0.85
227.485	1.3
227.956	5.8
228.427	9.15
228.898	5.2
229.369	7.15
229.839	0.85
230.31	7.55
230.781	6.55
231.252	5.8
231.722	6.6
232.193	5.1
232.664	5.35
233.135	6.55
233.605	4.8
234.076	8.95
234.546	11.4
235.017	8.65
235.487	9.45
235.958	9.85
236.428	12.2
236.899	9.9
237.369	16.65
237.84	9.35
238.31	12.75
238.78	8.5
239.251	12.7
239.721	6.45
240.191	6.4
240.662	11.5
241.132	8.3
241.602	8.8
242.072	6.8
242.542	7.85
243.013	10.8
243.483	12.5
243.953	8.1
244.423	9.9
244.893	9.4
245.363	15.3
245.833	10.3
246.303	13.7
246.773	14
247.243	12
247.712	14.35
248.182	17.05
248.652	18.6
249.122	15.15
249.592	15.75
250.061	14.6
250.531	15.35
251.001	16.8
251.471	19.95
251.94	19.1
252.41	18.75
252.879	19.45
253.349	27.6
253.818	20.05
254.288	25.05
254.757	24.7
255.227	21.35
255.696	22.75
256.166	25
256.635	20.8
257.105	23.7
257.574	22.25
258.043	23.65
258.513	22.7
258.982	22.05
259.451	26.3
259.92	21.15
260.389	23.5
260.859	30.05
261.328	23.05
261.797	24.5
262.266	29.4
262.735	27
263.204	24.8
263.673	25.65
264.142	26.8
264.611	26.25
265.08	26.4
265.549	27
266.018	30.25
266.487	29.55
266.955	26.55
267.424	30.7
267.893	35
268.362	36.6
268.83	31.85
269.299	27.85
269.768	36
270.236	26.9
270.705	39.35
271.174	32.35
271.642	31.85
272.111	36.15
272.579	35.1
273.048	33.75
273.516	38.65
273.985	35.25
274.453	36.95
274.922	33.55
275.39	33.6
275.858	35.6
276.327	39.7
276.795	35.75
277.263	40.05
277.731	34.6
278.2	41.35
278.668	41.4
279.136	42.05
279.604	41.45
280.072	40.9
280.54	45.4
281.008	42.4
281.477	48.8
281.945	39.85
282.413	42.3
282.881	47
283.348	40.5
283.816	46.65
284.284	50.05
284.752	46
285.22	51.15
285.688	45.9
286.156	44.6
286.623	51.6
287.091	45.9
287.559	51.45
288.026	53.65
288.494	51.85
288.962	50.75
289.429	49.5
289.897	46.65
290.364	49.7
290.832	53.75
291.3	53.75
291.767	56.65
292.234	56.85
292.702	51.8
293.169	57.7
293.637	56.65
294.104	54.85
294.571	53.6
295.039	62.8
295.506	53.05
295.973	60.1
296.44	58.5
296.908	62.75
297.375	60.05
297.842	64
298.309	59.15
298.776	61.45
299.243	65.65
299.71	63.25
300.177	68.85
300.644	63.95
301.111	63.75
301.578	65.35
302.045	63.9
302.512	64.95
302.979	66.2
303.446	72.5
303.913	69.75
304.379	78.45
304.846	72.75
305.313	75.25
305.78	77.1
306.246	78.15
306.713	82.8
307.18	83.9
307.646	80.1
308.113	79.2
308.579	83.8
309.046	85.8
309.512	87.6
309.979	90.1
310.445	80.75
310.912	84.25
311.378	94.85
311.845	92.8
312.311	87.35
312.777	90.25
313.244	89.4
313.71	91.7
314.176	92.9
314.642	96
315.109	93.95
315.575	96.8
316.041	92.75
316.507	93.35
316.973	100.05
317.439	103.1
317.905	96.8
318.371	103.25
318.837	99.6
319.303	99.45
319.769	96.85
320.235	105.25
320.701	105.55
321.167	101.55
321.633	102.8
322.099	96.8
322.564	108.3
323.03	104.45
323.496	106.95
323.962	111.75
324.427	114.75
324.893	109.9
325.359	115.05
325.824	118.85
326.29	121.05
326.755	113.15
327.221	117.5
327.686	124.85
328.152	122.7
328.617	122.9
329.083	128.6
329.548	124.75
330.014	131.2
330.479	131
330.944	128.6
331.41	130.15
331.875	127.95
332.34	126.55
332.805	130.5
333.271	131.95
333.736	132.8
334.201	130.8
334.666	143
335.131	138.3
335.596	143.55
336.061	136.6
336.526	136.25
336.991	138.35
337.456	133.8
337.921	135.65
338.386	132.05
338.851	134.45
339.316	138.4
339.781	131.85
340.246	138.45
340.711	134.55
341.175	137.25
341.64	142.25
342.105	145.85
342.569	149.7
343.034	146.8
343.499	147.45
343.963	152.4
344.428	156.2
344.893	155.4
345.357	164.2
345.822	164.85
346.286	163.5
346.751	165.9
347.215	166.65
347.679	175.3
348.144	181.15
348.608	185.6
349.073	182.2
349.537	188.5
350.001	185.65
350.465	190.65
350.93	188.8
351.394	199.1
351.858	192.8
352.322	195.85
352.786	202.55
353.25	201.35
353.715	199.45
354.179	211.25
354.643	214.3
355.107	215.4
355.571	209.2
356.035	211.45
356.498	210.25
356.962	210.55
357.426	205.75
357.89	205.9
358.354	201.05
358.818	205.9
359.281	205.95
359.745	206.1
360.209	206.25
360.673	204.75
361.136	208.55
361.6	207.4
362.064	212.2
362.527	218.15
362.991	216
363.454	210.35
363.918	225.45
364.381	223.1
364.845	214.75
365.308	216.8
365.772	218.2
366.235	224.8
366.698	222
367.162	215.3
367.625	222.25
368.088	232.8
368.552	226
369.015	228.6
369.478	232.3
369.941	230.7
370.404	235.4
370.867	231.6
371.331	229.35
371.794	240.75
372.257	238.5
372.72	237
373.183	242.45
373.646	240.55
374.109	240.95
374.572	242.3
375.035	242.5
375.497	248.2
375.96	256.4
376.423	259.25
376.886	265.8
377.349	266.65
377.811	262.8
378.274	261.5
378.737	260.7
379.199	261.05
379.662	263.1
380.125	268.95
380.587	271.85
381.05	278.5
381.512	281.8
381.975	288.95
382.437	301.45
382.9	288.8
383.362	293.35
383.825	295.5
384.287	297.65
384.75	297.75
385.212	294.55
385.674	302.95
386.136	309.25
386.599	306.8
387.061	303.55
387.523	305.35
387.985	306.45
388.447	314.3
388.91	313.8
389.372	313.3
389.834	312.25
390.296	305.8
390.758	307.75
391.22	306.5
391.682	310.7
392.144	310.15
392.606	314.2
393.068	333.15
393.529	348.1
393.991	350.05
394.453	336.9
394.915	316.6
395.377	311.35
395.838	317
396.3	318.95
396.762	324.85
397.224	321.95
397.685	319.2
398.147	326.4
398.608	331.85
399.07	339.45
399.531	334.8
399.993	349.55
400.454	346.85
400.916	341.8
401.377	355.75
401.839	360.5
402.3	361.05
402.762	375.5
403.223	409.4
403.684	402.35
404.145	376.25
404.607	367.25
405.068	354.9
405.529	357.3
405.99	367.25
406.451	376.2
406.913	360.35
407.374	363.3
407.835	364.2
408.296	377.85
408.757	376.4
409.218	388.85
409.679	394
410.14	399.75
410.601	417.5
411.062	416
411.522	423
411.983	429.8
412.444	426.3
412.905	438.95
413.366	465.25
413.826	489.15
414.287	565.45
414.748	699.8
415.208	709.9
415.669	574.25
416.13	513.45
416.59	508
417.051	529.75
417.511	556.7
417.972	605.05
418.432	659.7
418.893	747.4
419.353	708.35
419.814	523.35
420.274	460.95
420.734	452.05
421.195	465.3
421.655	466.05
422.115	468.75
422.576	468.7
423.036	475.5
423.496	493.1
423.956	511.3
424.416	550.25
424.876	625.5
425.336	618.1
425.797	596.75
426.257	575.9
426.717	525.5
427.177	467.45
427.637	471
428.097	486.25
428.556	498.75
429.016	537.6
429.476	523.7
429.936	490.6
430.396	484.7
430.856	490.95
431.315	503.4
431.775	540.4
432.235	583.85
432.694	601.95
433.154	547
433.614	531.9
434.073	519.8
434.533	479.65
434.993	469.7
435.452	485.2
435.912	485.3
436.371	497.15
436.83	493.7
437.29	486.6
437.749	479.15
438.209	488.65
438.668	498.7
439.127	504.7
439.587	512.65
440.046	498.4
440.505	511.75
440.964	522.75
441.424	531.15
441.883	542.55
442.342	522.9
442.801	504.05
443.26	509.5
443.719	505.8
444.178	501.8
444.637	509.5
445.096	510.8
445.555	532.7
446.014	523.35
446.473	521.05
446.932	526.8
447.391	528.85
447.849	539.15
448.308	533.8
448.767	533.1
449.226	553.8
449.685	563.6
450.143	587.3
450.602	583.4
451.061	553.85
451.519	550.6
451.978	533.95
452.436	542.25
452.895	548.1
453.353	544.5
453.812	538.15
454.27	539.4
454.729	539.7
455.187	547.25
455.646	547.3
456.104	551.15
456.562	548.45
457.021	557.45
457.479	538.15
457.937	548.1
458.395	575.95
458.854	566.3
459.312	557.5
459.77	558.65
460.228	565.8
460.686	578.45
461.144	578.35
461.602	570.15
462.06	567.2
462.518	581.8
462.976	584.2
463.434	595.7
463.892	599.1
464.35	609.65
464.808	617.9
465.266	630.9
465.724	631.9
466.181	632.45
466.639	632.65
467.097	660.75
467.555	679.2
468.012	673.8
468.47	678.35
468.928	700.3
469.385	716.25
469.843	717.3
470.3	714.05
470.758	732
471.215	736
471.673	751.25
472.13	758.8
472.588	784.5
473.045	780.55
473.503	790.25
473.96	817.05
474.417	827.4
474.875	844.35
475.332	864.85
475.789	878.35
476.246	891.85
476.704	919.3
477.161	913.75
477.618	921.9
478.075	933.5
478.532	964
478.989	992.1
479.446	1028.55
479.903	1026.55
480.36	1050
480.817	1048.1
481.274	1062.15
481.731	1093.3
482.188	1116.15
482.645	1135
483.102	1141.85
483.558	1188.2
484.015	1208.35
484.472	1203.85
484.929	1212
485.385	1206
485.842	1215.8
486.299	1223.15
486.755	1204.9
487.212	1183.95
487.668	1163.45
488.125	1161.9
488.582	1148.05
489.038	1156.15
489.494	1177.75
489.951	1170.35
490.407	1171.1
490.864	1174.5
491.32	1175.1
491.776	1181.05
492.233	1195.7
492.689	1186.15
493.145	1183.55
493.602	1175.15
494.058	1184.4
494.514	1196.85
494.97	1205.55
495.426	1228.65
495.882	1228.9
496.338	1238.1
496.794	1254.75
497.251	1241.9
497.707	1261.2
498.163	1266.9
498.618	1273.35
499.074	1272
499.53	1286.6
499.986	1296.3
500.442	1287.5
500.898	1270.7
501.354	1287.6
501.809	1294.2
502.265	1300.55
502.721	1304.7
503.177	1302
503.632	1312.45
504.088	1314.9
504.543	1335.65
504.999	1348.4
505.455	1346.3
505.91	1328.75
506.366	1340.75
506.821	1334
507.277	1324.05
507.732	1339.5
508.187	1331.2
508.643	1343
509.098	1345.2
509.553	1361
510.009	1391
510.464	1411.15
510.919	1425.9
511.375	1439.4
511.83	1457.55
512.285	1473.35
512.74	1508.85
513.195	1530.75
513.65	1564.75
514.105	1588.25
514.56	1591.8
515.015	1627.25
515.47	1641.05
515.925	1616.9
516.38	1610.8
516.835	1618.6
517.29	1621.15
517.745	1613.55
518.2	1581
518.655	1548.8
519.109	1527.35
519.564	1502.9
520.019	1494.75
520.474	1480.75
520.928	1468.6
521.383	1461.45
521.838	1455.9
522.292	1444.55
522.747	1433.85
523.201	1426.75
523.656	1399.65
524.11	1400.15
524.565	1388.4
525.019	1395.45
525.474	1395.1
525.928	1383.4
526.382	1391.6
526.837	1388.1
527.291	1387.55
527.745	1383.1
528.2	1382.15
528.654	1371.05
529.108	1370.05
529.562	1365.6
530.016	1362.3
530.47	1370.7
530.925	1364.35
531.379	1359.15
531.833	1375.8
532.287	1376.25
532.741	1366.3
533.195	1361.85
533.649	1366.95
534.103	1374.85
534.556	1364.55
535.01	1364.95
535.464	1366.6
535.918	1366.85
536.372	1377.65
536.826	1365.05
537.279	1359.75
537.733	1357.7
538.187	1356.3
538.64	1365.35
539.094	1383.4
539.548	1403.7
540.001	1390.8
540.455	1418.55
540.908	1417
541.362	1429.4
541.815	1440.15
542.269	1461.25
542.722	1462.65
543.175	1476.8
543.629	1492.3
544.082	1503.7
544.536	1526.95
544.989	1523.55
545.442	1534.2
545.895	1533.3
546.349	1527.7
546.802	1536.35
547.255	1540.95
547.708	1559.3
548.161	1578.2
548.614	1584.95
549.067	1590.25
549.52	1576.05
549.973	1551.15
550.426	1548.45
550.879	1530.8
551.332	1524.75
551.785	1552.25
552.238	1558.85
552.691	1555.05
553.144	1579.15
553.596	1619.45
554.049	1630.4
554.502	1677.7
554.955	1699.65
555.407	1736.55
555.86	1704.95
556.313	1684.4
556.765	1662.6
557.218	1645.05
557.67	1639.35
558.123	1615.4
558.576	1612.85
559.028	1615.5
559.48	1645.55
559.933	1624.8
560.385	1562
560.838	1497.9
561.29	1458.05
561.742	1450.1
562.195	1413.4
562.647	1396.05
563.099	1401.15
563.551	1390.75
564.004	1416.65
564.456	1403.3
564.908	1364.3
565.36	1331.15
565.812	1292.15
566.264	1283.1
566.716	1276.65
567.168	1253.55
567.62	1253.85
568.072	1241.95
568.524	1226.1
568.976	1227.5
569.428	1214.55
569.88	1210.5
570.332	1220.7
570.784	1222.35
571.235	1216
571.687	1237.1
572.139	1226.7
572.59	1247.9
573.042	1255.8
573.494	1260.15
573.945	1230
574.397	1206.95
574.849	1196.6
575.3	1208.55
575.752	1178.75
576.203	1180.65
576.655	1172.5
577.106	1161.05
577.557	1153.95
578.009	1146.15
578.46	1153
578.912	1136.25
579.363	1155.1
579.814	1154.3
580.265	1148.05
580.717	1149.1
581.168	1150.9
581.619	1154.55
582.07	1168.25
582.521	1154.8
582.972	1139.55
583.423	1154.75
583.875	1158.05
584.326	1165.3
584.777	1189.7
585.227	1205.5
585.678	1225
586.129	1237.45
586.58	1257.9
587.031	1278.25
587.482	1319.95
587.933	1334.6
588.384	1330.9
588.834	1318.55
589.285	1302.7
589.736	1311.4
590.186	1312.1
590.637	1299.8
591.088	1266.1
591.538	1232.45
591.989	1218.15
592.439	1203.5
592.89	1190
593.34	1190.85
593.791	1183.15
594.241	1167.1
594.692	1157.25
595.142	1167.65
595.593	1163.85
596.043	1171.5
596.493	1179.15
596.943	1182.7
597.394	1210.9
597.844	1231.05
598.294	1258.4
598.744	1305.8
599.195	1371.25
599.645	1459.95
600.095	1552.75
600.545	1636
600.995	1703.5
601.445	1781.85
601.895	1889.8
602.345	1945.35
602.795	1928.7
603.245	1837.7
603.695	1711.35
604.145	1602.2
604.594	1518.8
605.044	1430.15
605.494	1331.35
605.944	1237.55
606.393	1208.05
606.843	1200.85
607.293	1200.85
607.743	1194.35
608.192	1202.9
608.642	1201.45
609.091	1205.75
609.541	1205.4
609.99	1196.1
610.44	1170.65
610.889	1152.9
611.339	1142
611.788	1127.65
612.238	1130.4
612.687	1130.85
613.136	1145.55
613.586	1160.4
614.035	1147.7
614.484	1160.8
614.933	1160.3
615.383	1133.7
615.832	1113.35
616.281	1094.55
616.73	1073.9
617.179	1049.7
617.628	1029.15
618.077	1008.05
618.526	992.5
618.975	991.25
619.424	979.5
619.873	974.65
620.322	962.45
620.771	966.35
621.22	941.25
621.669	922.4
622.118	909.8
622.567	904.7
623.015	883.2
623.464	881.8
623.913	865.75
624.361	877.8
624.81	859.7
625.259	868.8
625.707	861.8
626.156	865.3
626.604	880.7
627.053	893.7
627.501	887.45
627.95	903.2
628.398	906.9
628.847	897.75
629.295	895.9
629.744	882.25
630.192	872.05
630.64	853.95
631.089	837.45
631.537	806.8
631.985	804.65
632.433	796.25
632.881	782.6
633.33	783.95
633.778	787.35
634.226	797.65
634.674	805.55
635.122	814.75
635.57	827.05
636.018	840
636.466	832.9
636.914	832.4
637.362	849.05
637.81	863.65
638.258	890.85
638.705	896.3
639.153	930.15
639.601	934.35
640.049	947.4
640.497	985.25
640.944	1016.1
641.392	951.95
641.84	869.1
642.287	820.85
642.735	789
643.182	774.5
643.63	764.65
644.078	752.75
644.525	751.75
644.973	763.55
645.42	772.05
645.867	773.45
646.315	775.95
646.762	779.5
647.21	773.2
647.657	786.05
648.104	770.8
648.551	738.9
648.999	733.35
649.446	732.65
649.893	725.5
650.34	740.4
650.787	759.95
651.234	795.25
651.682	852.1
652.129	936.8
652.576	1071.6
653.023	1238.65
653.47	1333.2
653.917	1395.25
654.363	1429.6
654.81	1499.1
655.257	1545.75
655.704	1225
656.151	939.3
656.598	823.75
657.044	759.7
657.491	737.35
657.938	716.3
658.385	710.5
658.831	715.35
659.278	709.05
659.724	695.4
660.171	686.7
660.618	664.25
661.064	655.05
661.511	665.1
661.957	666.8
662.404	670.6
662.85	676.9
663.296	688.05
663.743	686.3
664.189	686.4
664.635	692.15
665.082	684.8
665.528	681.35
665.974	663.45
666.42	668.7
666.867	657.2
667.313	626.45
667.759	616.45
668.205	618.3
668.651	624.6
669.097	620.8
669.543	635
669.989	640.5
670.435	636.35
670.881	653.1
671.327	681.15
671.773	732.85
672.219	798.95
672.665	857.85
673.11	908.1
673.556	927.85
674.002	959.65
674.448	980.4
674.893	812.3
675.339	701.35
675.785	637.45
676.23	609.2
676.676	583.15
677.122	564.05
677.567	553.65
678.013	534.05
678.458	529.3
678.904	526.25
679.349	522.2
679.794	522.9
680.24	518.9
680.685	511.15
681.131	517.95
681.576	521.15
682.021	524.3
682.466	526.55
682.912	531.2
683.357	560.8
683.802	618
684.247	676.1
684.692	728.2
685.137	768.5
685.583	786.15
686.028	857.6
686.473	798.05
686.918	669.9
687.363	606.1
687.807	576.7
688.252	538.75
688.697	527.45
689.142	504.1
689.587	507.95
690.032	520.75
690.477	537.6
690.921	571.8
691.366	601.3
691.811	631.95
692.255	692.2
692.7	840.5
693.145	1219
693.589	1883.7
694.034	2268.5
694.478	2490.25
694.923	2341.05
695.367	3417.25
695.812	2004.8
696.256	799.25
696.701	562.1
697.145	515.2
697.59	494.65
698.034	491.6
698.478	491.75
698.922	492.4
699.367	506.65
699.811	531.4
700.255	590
700.699	646.8
701.143	706
701.588	754.55
702.032	791.4
702.476	820.8
702.92	850.2
703.364	1100.9
703.808	1716.7
704.252	2179.05
704.696	2370.75
705.14	2292
705.584	3240.1
706.027	1736.85
706.471	837.05
706.915	606.8
707.359	526.15
707.803	491.3
708.246	474.35
708.69	472
709.134	470.9
709.577	465.9
710.021	476.2
710.465	466.3
710.908	468.45
711.352	486.4
711.795	535.9
712.239	586.85
712.682	597.35
713.126	596.55
713.569	672.3
714.012	534.95
714.456	467
714.899	438.8
715.342	415.65
715.786	399.3
716.229	394.7
716.672	376.65
717.115	382.7
717.558	386.15
718.002	391.05
718.445	419.4
718.888	442.45
719.331	459.6
719.774	462.95
720.217	458.15
720.66	420.8
721.103	395.6
721.546	371.8
721.989	362.75
722.432	356.2
722.874	353.95
723.317	359.25
723.76	391.35
724.203	493.5
724.645	673.5
725.088	803.1
725.531	804.3
725.974	906.65
726.416	798.4
726.859	464.35
727.301	375.85
727.744	358.5
728.187	357.7
728.629	368.5
729.071	393.8
729.514	411.1
729.956	425.7
730.399	439.5
730.841	434.3
731.283	419.05
731.726	401
732.168	413.2
732.61	444.45
733.053	479.25
733.495	534.4
733.937	592.45
734.379	704.8
734.821	901.85
735.263	1425.8
735.705	2580.7
736.148	3883.55
736.59	3980.2
737.032	4475.05
737.474	3643.8
737.916	1340.95
738.357	681.3
738.799	508
739.241	475.55
739.683	472.65
740.125	484.65
740.567	498.75
741.008	526.9
741.45	545.2
741.892	573.95
742.334	577.35
742.775	591.3
743.217	563.2
743.658	458.2
744.1	468.65
744.542	526.8
744.983	558.65
745.425	594.45
745.866	583.55
746.307	487.95
746.749	512.5
747.19	757.1
747.632	1502.8
748.073	2841.1
748.514	4011.25
748.956	5501.4
749.397	6471.9
749.838	4412
750.279	4369.2
750.72	2173.15
751.162	883.95
751.603	494.4
752.044	399.4
752.485	344.6
752.926	324
753.367	309.4
753.808	299.1
754.249	296.8
754.69	293.45
755.131	282.6
755.572	283.7
756.013	285.55
756.453	285.45
756.894	290.9
757.335	291.8
757.776	294.6
758.216	305.35
758.657	328.6
759.098	366.9
759.538	435.9
759.979	639.1
760.42	1294.2
760.86	3334.55
761.301	7151.3
761.741	8723.95
762.182	10542.15
762.622	6620.8
763.063	2273.9
763.503	909.9
763.943	521.8
764.384	402.85
764.824	350.75
765.264	321.75
765.705	312.95
766.145	290.85
766.585	275.6
767.025	266.05
767.465	272.8
767.906	278.8
768.346	293.75
768.786	344.3
769.226	500.3
769.666	1036.5
770.106	2363.55
770.546	3491
770.986	4125.3
771.426	3100.3
771.866	1230.85
772.306	536.5
772.745	323.5
773.185	269
773.625	262.85
774.065	272.3
774.505	378.35
774.944	666.6
775.384	981.85
775.824	1138.5
776.263	959.65
776.703	496.5
777.142	286.1
777.582	220.35
778.021	201.1
778.461	192.25
778.9	190.85
779.34	187.15
779.779	179.6
780.219	175.15
780.658	168.25
781.097	169.85
781.537	164.8
781.976	163.45
782.415	165.15
782.855	166.3
783.294	167.15
783.733	162.6
784.172	161.5
784.611	161.8
785.05	169.7
785.489	178.75
785.928	179.55
786.367	187.05
786.806	202.95
787.245	216.4
787.684	223.15
788.123	221.05
788.562	206.9
789.001	198.9
789.44	193.75
789.879	194.85
790.317	202.3
790.756	210.05
791.195	238.85
791.634	324.75
792.072	591.1
792.511	1496.25
792.95	2830
793.388	3600.3
793.827	2320
794.265	1015.4
794.704	470.4
795.142	281.2
795.581	233.7
796.019	211.05
796.458	212.4
796.896	217.95
797.334	246.9
797.773	329.35
798.211	656.55
798.649	1420.4
799.087	2421.75
799.526	3435.2
799.964	3637.1
800.402	2521.5
800.84	1092.5
801.278	522.3
801.716	312.05
802.154	247.25
802.592	234.75
803.03	232.45
803.468	240.35
803.906	243.2
804.344	235.55
804.782	226.4
805.22	230.35
805.658	235.95
806.096	251.35
806.533	279.2
806.971	360.75
807.409	533
807.847	1071.4
808.284	2774.85
808.722	5051.6
809.16	7120.45
809.597	9478.4
810.035	12229.95
810.472	7943.55
810.91	3238.8
811.347	1431.1
811.785	664.65
812.222	412.65
812.66	318.15
813.097	271.4
813.535	232.2
813.972	213.5
814.409	191.4
814.846	183.6
815.284	172.1
815.721	179.6
816.158	196.7
816.595	254.2
817.032	329.7
817.47	302.3
817.907	219.05
818.344	192
818.781	187.75
819.218	223.5
819.655	343.15
820.092	446.15
820.529	413.2
820.966	320.65
821.403	216.8
821.839	189.5
822.276	205.75
822.713	250.35
823.15	239.15
823.587	244.9
824.023	446.1
824.46	1162.85
824.897	2128.25
825.333	1677.85
825.77	738.55
826.206	373.6
826.643	217.2
827.08	164.65
827.516	139.5
827.953	133.7
828.389	121.3
828.825	117.8
829.262	113.3
829.698	105.7
830.135	100.35
830.571	105.95
831.007	104.55
831.443	104
831.88	106.6
832.316	107.6
832.752	107.5
833.188	110.55
833.624	111.4
834.06	113.65
834.497	110.65
834.933	115.05
835.369	127.1
835.805	132.65
836.241	134.75
836.677	159.35
837.112	175.35
837.548	224.95
837.984	336.85
838.42	718.25
838.856	2036.2
839.292	4199.4
839.727	3125.85
840.163	2010.85
840.599	3053.05
841.034	4942.6
841.47	2448.4
841.906	1144.55
842.341	588.1
842.777	417.7
843.212	433.9
843.648	268.65
844.083	184.45
844.519	139.85
844.954	115.65
845.39	103.15
845.825	100.3
846.261	101.55
846.696	94.55
847.131	84.1
847.566	88.6
848.002	92.4
848.437	100.5
848.872	99.25
849.307	131.2
849.742	251.8
850.177	670.9
850.613	1502
851.048	1086.55
851.483	471.8
851.918	252.35
852.353	137.7
852.788	94.9
853.223	88.5
853.657	77.75
854.092	76.15
854.527	72.4
854.962	81
855.397	91.5
855.832	70.65
856.266	65
856.701	64.7
857.136	70.35
857.57	82.85
858.005	99.7
858.44	92.35
858.874	80.5
859.309	88.4
859.743	84.7
860.178	83.55
860.612	93.4
861.047	117.2
861.481	169.1
861.915	103.75
862.35	83.1
862.784	64.8
863.218	63.8
863.653	75.1
864.087	85.15
864.521	111.85
864.955	191.95
865.39	351.1
865.824	246.9
866.258	304.3
866.692	465.35
867.126	337
867.56	175.6
867.994	109.1
868.428	90.45
868.862	116.25
869.296	109.4
869.73	136.7
870.164	119.3
870.598	103.15
871.031	75.85
871.465	65.25
871.899	52.1
872.333	43.2
872.766	48.6
873.2	47.9
873.634	44.6
874.067	55.4
874.501	56
874.935	57.7
875.368	50.05
875.802	43.4
876.235	45.8
876.669	47.25
877.102	37.3
877.535	41.9
877.969	36.4
878.402	38.1
878.836	37.55
879.269	34.3
879.702	39.25
880.135	39.5
880.569	41.6
881.002	35.05
881.435	35.65
881.868	41.4
882.301	36.25
882.734	34.75
883.167	36.3
883.601	34.5
884.034	40.15
884.467	28.7
884.899	34
885.332	32.85
885.765	32.45
886.198	30.55
886.631	31.5
887.064	28
887.497	31.1
887.929	27.75
888.362	30.3
888.795	29.15
889.228	33.9
889.66	35.45
890.093	28.65
890.526	30.25
890.958	30.9
891.391	32
891.823	26
892.256	30.35
892.688	28.75
893.121	25.5
893.553	30.55
893.985	25.8
894.418	25.45
894.85	29.25
895.282	26.75
895.715	25.25
896.147	22.55
896.579	17.85
897.011	24.4
897.444	29.35
897.876	20.75
898.308	25.35
898.74	28.05
899.172	29.35
899.604	27.9
900.036	25.85
900.468	26.9
900.9	28.8
901.332	37.25
901.764	37.1
902.196	36.4
902.628	35.2
903.06	53.6
903.491	59.9
903.923	42.2
904.355	45.05
904.787	46.3
905.218	39
905.65	39.8
906.082	40.05
906.513	32.5
906.945	34.95
907.376	37.6
907.808	35.45
908.239	35.1
908.671	43.85
909.102	43.2
909.534	63.4
909.965	126.6
910.397	338.15
910.828	1019.75
911.259	617.5
911.691	318.3
912.122	184.6
912.553	89.85
912.984	48.2
913.415	43.5
913.847	38.2
914.278	29.85
914.709	29.05
915.14	27.6
915.571	30.15
916.002	32.65
916.433	27.1
916.864	29.5
917.295	29.5
917.726	34.7
918.157	51.3
918.587	45.8
919.018	41.25
919.449	37.65
919.88	46.55
920.311	72.4
920.741	205.75
921.172	380
921.603	185.4
922.033	109.2
922.464	72.5
922.895	46.25
923.325	29.75
923.756	24.8
924.186	34.9
924.617	53.55
925.047	71.05
925.478	61
925.908	44.5
926.338	34.95
926.769	25
927.199	27.6
927.629	25.7
928.06	32.2
928.49	26.85
928.92	23.7
929.35	22.75
929.78	14.35
930.21	21.6
930.641	13
931.071	11.85
931.501	14.3
931.931	12.55
932.361	14.2
932.791	17.05
933.221	17.5
933.651	31.65
934.08	47.3
934.51	32.7
934.94	21.7
935.37	18.45
935.8	16.95
936.229	13.45
936.659	13.95
937.089	19.2
937.519	40.05
937.948	50.65
938.378	32.55
938.807	18.05
939.237	12.85
939.666	10.9
940.096	9.75
940.525	3.5
940.955	14.95
941.384	10.6
941.814	7.3
942.243	6.3
942.672	5.25
943.102	3.65
943.531	3.65
943.96	2.8
944.39	10.55
944.819	3.85
945.248	7.45
945.677	4.1
946.106	6.1
946.535	5.8
946.964	6
947.393	5.55
947.822	4.55
948.251	5.55
948.68	8.9
949.109	4.1
949.538	8.35
949.967	9.5
950.396	5.7
950.825	8.05
951.254	6.25
951.682	0.7
952.111	-2.5
952.54	3.05
952.969	5.35
953.397	3.35
953.826	3
954.254	9.2
954.683	9.25
955.112	9.2
955.54	5.3
955.969	0.9
956.397	8.6
956.826	4.5
957.254	3.15
957.682	5.6
958.111	5.3
958.539	7
958.967	3.05
959.396	9.75
959.824	4.25
960.252	8.9
960.68	0.95
961.109	5.7
961.537	10.55
961.965	0.05
962.393	2.1
962.821	2.35
963.249	3.4
963.677	10.05
964.105	61.1
964.533	108.65
964.961	50.45
965.389	26.2
965.817	14.45
966.245	7.55
966.672	-1.05
967.1	2.85
967.528	-0.85
967.956	5.25
968.383	6.3
968.811	3.2
969.239	4.6
969.666	3.6
970.094	1.25
970.522	-2.8
970.949	3.25
971.377	-1
971.804	0.7
972.232	2.1
972.659	3.45
973.087	0.8
973.514	2.3
973.941	-2.95
974.369	-2.2
974.796	-5.65
975.223	-2.5
975.651	5.45
976.078	6.55
976.505	12.2
976.932	29.8
977.359	31.45
977.786	21.75
978.214	14.1
978.641	2.7
979.068	3.05
979.495	3.6
979.922	9.65
980.349	3.15
980.776	4.05
981.202	6.25
981.629	9.4
982.056	0.85
982.483	-1.5
982.91	5.05
983.337	-0.9
983.763	1.1
984.19	0.15
984.617	4.65
985.043	3.65
985.47	-0.3
985.897	3.15
986.323	3.6
986.75	3.25
987.176	3
987.603	4.3
988.029	2.65
988.456	9
988.882	-0.5
989.308	0.3
989.735	-1.55
990.161	1.7
990.587	5.55
991.014	0.7
991.44	3.1
991.866	0.5
992.292	1
992.719	-0.5
993.145	6.75
993.571	3.1
993.997	6.2
994.423	6.5
994.849	-7.55
995.275	4.4
995.701	2.4
996.127	-3.4
996.553	2.7
996.979	-2.55
997.405	4.05
997.83	2.8
998.256	1.95
998.682	0.55
999.108	2.35
999.534	-5.6
999.959	3.5
1000.385	4.75
1000.811	-4.85
1001.236	-4.25
1001.662	1
1002.087	3.55
1002.513	3.85
1002.938	0.7
1003.364	2.55
1003.789	5.65
1004.215	3.2
1004.64	3
1005.066	6.25
1005.491	1.85
1005.916	4.95
1006.342	2.55
1006.767	6.05
1007.192	6.85
1007.617	3.65
1008.042	-1.25
1008.468	0.25
1008.893	7.25
1009.318	4.9
1009.743	11.85
1010.168	18.45
1010.593	13.05
1011.018	9.95
1011.443	5
1011.868	12.05
1012.293	4
1012.718	-2.85
1013.143	-0.1
1013.567	4.35
1013.992	4.1
1014.417	1.95
1014.842	-3.4
1015.267	-1.6
1015.691	4.9
1016.116	-0.7
1016.541	4.05
1016.965	2.6
1017.39	5.8
1017.814	-0.85
1018.239	1
1018.663	-7.15
1019.088	-2.85
1019.512	4.3
1019.937	-3.5
1020.361	3.7
1020.785	-2.55
1021.21	-2.35
1021.634	-0.55
1022.058	1.8
1022.483	-3.2
1022.907	-3.7
1023.331	-2.65
1023.755	-2.55
1024.179	1.4
1024.604	0.35
1025.028	2.75
1025.452	2.25
1025.876	5.5
1026.3	0.75
1026.724	-4.85
1027.148	5.75
1027.572	1.65
1027.996	3.75
1028.42	-1.6
1028.843	1.65
1029.267	-2.5
1029.691	5
1030.115	-2.25
1030.539	2
1030.962	-0.2
1031.386	-0.75
1031.81	2.8
1032.233	-2.15
1032.657	-6.25
1033.08	2.35
1033.504	-2.1
1033.927	-1.35
1034.351	-1.6
1034.774	-1.45
1035.198	-3.55
1035.621	1.75
1036.045	-1.8
1036.468	6.55
1036.891	1.35
1037.315	4.7
1037.738	-0.5
1038.161	-2
1038.584	-3.25
1039.008	0.55
1039.431	-1.75
1039.854	-7.35
1040.277	-0.8
1040.7	0.65
1041.123	0.45
1041.546	-4.05
1041.969	-0.65
1042.392	1.25
1042.815	-7.25
1043.238	-1.1
1043.661	-0.6
1044.084	-3.1
1044.507	1.2
1044.93	2.6
1045.352	-2.5
1045.775	-1.85
1046.198	4.9
1046.621	0.95
1047.043	0.15
1047.466	-1.55
1047.889	0.6
1048.311	3.25
1048.734	0.05
1049.156	1.55
1049.579	0.7
1050.001	0.1
1050.424	-3.95
1050.846	-2.85
1051.269	-6.15
1051.691	1.85
1052.113	0.95
1052.536	-2.6
1052.958	-4.35
1053.38	2.95
1053.802	-1.5
1054.225	1.55
1054.647	1.7
1055.069	-1.15
1055.491	2.65
1055.913	-1.9
1056.335	-9.8
1056.757	-1.7
1057.179	1.05
1057.601	-0.8
1058.023	-1.05
1058.445	-2.2
1058.867	2.8
1059.289	0.3
1059.711	-0.95
1060.133	4.6
1060.555	-2.2
1060.976	0.15
1061.398	-0.35
1061.82	2.85
1062.241	-3.15
1062.663	-2.2
1063.085	-2.55
1063.506	-5
1063.928	-2.1
1064.35	2.3
1064.771	0.1
1065.193	-0.35
1065.614	-6.1
1066.035	3.65
1066.457	0.4
1066.878	-3
1067.3	-1.55
1067.721	2
1068.142	2
1068.564	4.45
1068.985	-0.55
1069.406	-5.4
1069.827	-1.45
1070.248	-4.2
1070.67	-2.05
1071.091	-4.35
1071.512	-3.7
1071.933	-1.25
1072.354	-6.5
1072.775	-1.7
1073.196	1.65
1073.617	-6.55
1074.038	0.5
1074.459	-3.25
1074.88	1.15
1075.3	1.95
1075.721	4.2
1076.142	-2.35
1076.563	-2.75
1076.983	4.5
1077.404	-6.65
1077.825	1.55
1078.246	-7.95
1078.666	-0.5
1079.087	-1.6
1079.507	-4.25
1079.928	-2.45
1080.348	-1.2
1080.769	2.6
1081.189	-2.75
1081.61	-5.8
1082.03	1.35
1082.451	-0.6
1082.871	-5.4
1083.291	-1.2
1083.711	-0.25
1084.132	-2.5
1084.552	-3.65
1084.972	-2.85
1085.392	-4.45
1085.813	0.55
1086.233	-0.75
1086.653	1.5
1087.073	0
1087.493	-2.55
1087.913	0.1
1088.333	-0.8
1088.753	-3
1089.173	4.25
1089.593	1.25
1090.013	-3.8
1090.433	-3.15
1090.852	2.45
1091.272	-8.55
1091.692	2.55
1092.112	0.6
1092.531	-4.6
1092.951	2.5
1093.371	-3.8
1093.79	-2.9
1094.21	-2.65
1094.63	0.85
1095.049	-0.25
1095.469	-8.45
1095.888	1.35
1096.308	2.1
1096.727	-2.8
1097.146	-5.05
1097.566	-4.3
1097.985	-4.9
1098.405	-0.9
1098.824	-2.2
1099.243	-4.6
1099.662	1.2
1100.082	-4.4
1100.501	-2.35
1100.92	1.25
1101.339	2.35
1101.758	1.8
