Data from MSPlasma+Separation6_Subt14_10-12-53-885.txt Node
Date: Fri Jul 21 10:12:53 EDT 2017
User: Ender
Spectrometer: HR+D1039
Trigger mode: 0
Integration Time (sec): 6.430000E-3
Scans to average: 20
Electric dark correction enabled: true
Nonlinearity correction enabled: false
Boxcar width: 0
XAxis mode: Wavelengths
Number of Pixels in Spectrum: 2048
>>>>>Begin Spectral Data<<<<<
187.836	0.16
188.309	0.16
188.782	0.16
189.255	-0.74
189.728	4.31
190.201	-2.24
190.674	-1.24
191.147	-1.34
191.619	-0.34
192.092	-2.39
192.565	-3.09
193.038	4.26
193.511	6.16
193.984	-2.54
194.456	0.86
194.929	0.26
195.402	-2.19
195.874	0.06
196.347	3.71
196.82	-0.34
197.292	-2.64
197.765	-2.19
198.237	-3.49
198.71	-4.99
199.182	-3.59
199.655	3.11
200.127	0.26
200.6	0.51
201.072	2.56
201.544	-1.29
202.017	-1.59
202.489	3.11
202.961	-0.14
203.433	-1.69
203.906	1.01
204.378	-1.59
204.85	-4.09
205.322	0.01
205.794	3.81
206.266	-3.54
206.739	2.11
207.211	-3.84
207.683	-1.49
208.155	3.36
208.627	-1.74
209.099	2.36
209.57	2.36
210.042	4.36
210.514	1.86
210.986	-0.64
211.458	-2.64
211.93	2.31
212.402	2.76
212.873	-2.14
213.345	-0.84
213.817	3.76
214.288	2.46
214.76	0.51
215.232	-1.44
215.703	1.21
216.175	-2.94
216.646	0.46
217.118	3.81
217.589	-5.24
218.061	-0.69
218.532	-3.14
219.004	3.16
219.475	1.71
219.946	0.76
220.418	5.16
220.889	2.66
221.36	2.81
221.832	5.61
222.303	3.31
222.774	6.61
223.245	-0.64
223.717	-1.94
224.188	3.51
224.659	0.31
225.13	-1.59
225.601	0.01
226.072	4.91
226.543	-0.74
227.014	-0.34
227.485	1.86
227.956	4.71
228.427	10.66
228.898	7.31
229.369	6.81
229.839	1.71
230.31	6.86
230.781	1.81
231.252	8.46
231.722	4.46
232.193	5.11
232.664	6.06
233.135	2.26
233.605	6.56
234.076	13.66
234.546	4.96
235.017	3.76
235.487	5.21
235.958	8.91
236.428	10.11
236.899	7.81
237.369	7.41
237.84	9.71
238.31	13.06
238.78	9.36
239.251	9.01
239.721	10.01
240.191	4.96
240.662	13.41
241.132	8.71
241.602	13.61
242.072	11.26
242.542	10.81
243.013	11.46
243.483	15.26
243.953	8.26
244.423	12.41
244.893	11.51
245.363	13.06
245.833	16.06
246.303	15.46
246.773	16.31
247.243	14.71
247.712	14.76
248.182	15.71
248.652	19.81
249.122	16.51
249.592	18.21
250.061	14.86
250.531	17.46
251.001	16.01
251.471	22.51
251.94	20.51
252.41	16.81
252.879	22.16
253.349	22.46
253.818	18.96
254.288	23.91
254.757	24.71
255.227	23.66
255.696	19.51
256.166	22.71
256.635	24.61
257.105	22.46
257.574	26.31
258.043	23.11
258.513	23.81
258.982	26.11
259.451	23.41
259.92	19.81
260.389	24.26
260.859	24.96
261.328	29.01
261.797	22.56
262.266	26.76
262.735	28.56
263.204	23.51
263.673	33.11
264.142	22.16
264.611	28.71
265.08	30.11
265.549	22.31
266.018	28.86
266.487	35.31
266.955	25.66
267.424	33.76
267.893	32.06
268.362	37.61
268.83	31.61
269.299	34.66
269.768	33.36
270.236	31.21
270.705	38.91
271.174	38.61
271.642	32.01
272.111	34.76
272.579	35.71
273.048	34.66
273.516	40.11
273.985	38.86
274.453	37.01
274.922	41.16
275.39	34.51
275.858	40.41
276.327	33.96
276.795	42.01
277.263	37.51
277.731	44.01
278.2	41.81
278.668	43.41
279.136	46.06
279.604	46.26
280.072	42.36
280.54	41.31
281.008	44.41
281.477	43.36
281.945	41.21
282.413	43.56
282.881	44.71
283.348	48.41
283.816	46.71
284.284	49.41
284.752	52.01
285.22	54.86
285.688	47.76
286.156	50.31
286.623	50.01
287.091	49.16
287.559	52.76
288.026	55.11
288.494	59.06
288.962	55.96
289.429	55.06
289.897	50.31
290.364	50.76
290.832	54.51
291.3	58.16
291.767	56.51
292.234	61.71
292.702	56.86
293.169	60.51
293.637	63.21
294.104	61.46
294.571	59.71
295.039	64.31
295.506	56.06
295.973	65.26
296.44	57.21
296.908	64.01
297.375	64.11
297.842	69.36
298.309	65.31
298.776	65.46
299.243	71.11
299.71	67.86
300.177	69.76
300.644	71.46
301.111	67.61
301.578	68.51
302.045	67.41
302.512	74.36
302.979	78.16
303.446	75.11
303.913	72.71
304.379	83.51
304.846	79.51
305.313	85.06
305.78	84.16
306.246	84.01
306.713	84.11
307.18	82.91
307.646	86.66
308.113	84.21
308.579	93.21
309.046	89.66
309.512	92.96
309.979	89.76
310.445	87.56
310.912	88.86
311.378	98.01
311.845	98.66
312.311	92.31
312.777	95.56
313.244	101.36
313.71	99.56
314.176	100.01
314.642	101.56
315.109	98.56
315.575	103.16
316.041	100.81
316.507	102.01
316.973	109.26
317.439	103.86
317.905	104.91
318.371	103.91
318.837	103.36
319.303	105.11
319.769	108.36
320.235	112.96
320.701	113.31
321.167	112.31
321.633	102.56
322.099	104.21
322.564	114.01
323.03	114.31
323.496	112.56
323.962	113.91
324.427	122.06
324.893	115.41
325.359	126.61
325.824	125.11
326.29	122.71
326.755	119.01
327.221	122.71
327.686	133.76
328.152	130.01
328.617	136.91
329.083	132.11
329.548	133.21
330.014	132.81
330.479	142.06
330.944	133.71
331.41	139.06
331.875	136.01
332.34	134.01
332.805	142.21
333.271	134.31
333.736	141.56
334.201	141.31
334.666	149.76
335.131	145.96
335.596	150.81
336.061	144.61
336.526	148.36
336.991	145.51
337.456	143.81
337.921	137.86
338.386	139.66
338.851	146.16
339.316	140.91
339.781	140.56
340.246	150.61
340.711	148.06
341.175	149.51
341.64	156.11
342.105	157.11
342.569	167.61
343.034	158.76
343.499	164.51
343.963	164.71
344.428	169.66
344.893	170.06
345.357	175.36
345.822	173.61
346.286	176.76
346.751	177.51
347.215	181.51
347.679	185.36
348.144	194.06
348.608	196.06
349.073	195.71
349.537	205.51
350.001	205.16
350.465	206.36
350.93	203.21
351.394	204.96
351.858	211.61
352.322	211.61
352.786	213.26
353.25	213.31
353.715	213.31
354.179	225.16
354.643	230.51
355.107	234.21
355.571	224.46
356.035	227.11
356.498	226.41
356.962	226.46
357.426	223.16
357.89	216.01
358.354	214.36
358.818	214.71
359.281	217.31
359.745	221.71
360.209	218.86
360.673	221.31
361.136	220.06
361.6	228.86
362.064	235.31
362.527	233.51
362.991	233.96
363.454	231.96
363.918	237.96
364.381	244.41
364.845	237.01
365.308	235.11
365.772	237.91
366.235	243.31
366.698	241.96
367.162	237.96
367.625	242.41
368.088	246.91
368.552	246.66
369.015	242.26
369.478	243.11
369.941	244.01
370.404	253.76
370.867	247.56
371.331	252.76
371.794	256.01
372.257	255.46
372.72	252.66
373.183	256.71
373.646	257.56
374.109	260.91
374.572	255.16
375.035	257.56
375.497	265.41
375.96	269.76
376.423	277.21
376.886	276.66
377.349	290.56
377.811	281.81
378.274	281.86
378.737	281.56
379.199	281.06
379.662	288.26
380.125	294.06
380.587	291.51
381.05	298.76
381.512	299.81
381.975	307.61
382.437	317.71
382.9	312.61
383.362	314.56
383.825	317.26
384.287	320.51
384.75	314.76
385.212	319.16
385.674	323.26
386.136	324.41
386.599	326.51
387.061	319.66
387.523	326.06
387.985	327.66
388.447	334.16
388.91	329.91
389.372	337.91
389.834	332.51
390.296	330.96
390.758	334.06
391.22	332.96
391.682	333.76
392.144	329.61
392.606	332.66
393.068	350.61
393.529	370.96
393.991	378.66
394.453	357.71
394.915	339.51
395.377	332.21
395.838	341.26
396.3	339.01
396.762	346.76
397.224	343.76
397.685	336.71
398.147	350.71
398.608	353.16
399.07	356.31
399.531	363.11
399.993	371.16
400.454	374.06
400.916	367.26
401.377	378.16
401.839	383.66
402.3	380.26
402.762	401.66
403.223	428.06
403.684	428.51
404.145	403.31
404.607	389.76
405.068	384.51
405.529	388.41
405.99	394.71
406.451	395.26
406.913	389.06
407.374	385.71
407.835	392.56
408.296	403.01
408.757	397.26
409.218	413.11
409.679	422.96
410.14	431.66
410.601	438.46
411.062	439.26
411.522	449.71
411.983	444.56
412.444	457.51
412.905	476.31
413.366	494.56
413.826	522.61
414.287	603.46
414.748	734.81
415.208	744.56
415.669	606.76
416.13	550.66
416.59	545.11
417.051	559.96
417.511	594.96
417.972	646.66
418.432	703.41
418.893	789.51
419.353	754.56
419.814	555.11
420.274	487.96
420.734	481.86
421.195	493.26
421.655	491.01
422.115	502.81
422.576	504.01
423.036	503.61
423.496	517.06
423.956	538.86
424.416	582.81
424.876	665.71
425.336	654.31
425.797	627.51
426.257	619.96
426.717	566.51
427.177	507.06
427.637	507.86
428.097	519.11
428.556	534.01
429.016	574.46
429.476	552.81
429.936	527.66
430.396	508.26
430.856	523.11
431.315	522.06
431.775	575.41
432.235	630.06
432.694	641.36
433.154	586.81
433.614	570.71
434.073	559.91
434.533	505.51
434.993	507.76
435.452	517.51
435.912	513.21
436.371	526.91
436.83	526.16
437.29	522.56
437.749	517.91
438.209	519.56
438.668	524.76
439.127	544.66
439.587	540.51
440.046	532.16
440.505	545.11
440.964	551.91
441.424	562.21
441.883	575.46
442.342	557.66
442.801	533.31
443.26	546.26
443.719	540.06
444.178	533.01
444.637	548.06
445.096	552.31
445.555	561.46
446.014	568.51
446.473	553.26
446.932	554.76
447.391	560.41
447.849	566.36
448.308	571.21
448.767	575.86
449.226	585.31
449.685	595.11
450.143	617.11
450.602	616.81
451.061	584.51
451.519	583.46
451.978	572.86
452.436	572.61
452.895	577.41
453.353	573.06
453.812	572.76
454.27	569.36
454.729	576.56
455.187	578.91
455.646	582.76
456.104	579.86
456.562	589.81
457.021	603.66
457.479	570.86
457.937	593.46
458.395	604.31
458.854	601.86
459.312	590.11
459.77	594.11
460.228	606.16
460.686	613.16
461.144	612.31
461.602	610.91
462.06	609.06
462.518	616.16
462.976	616.46
463.434	628.71
463.892	631.56
464.35	641.21
464.808	650.11
465.266	666.46
465.724	668.86
466.181	670.86
466.639	664.06
467.097	690.16
467.555	715.56
468.012	711.01
468.47	707.81
468.928	735.36
469.385	756.81
469.843	755.36
470.3	751.26
470.758	781.41
471.215	780.31
471.673	797.16
472.13	813.31
472.588	825.31
473.045	817.46
473.503	829.26
473.96	863.71
474.417	870.91
474.875	897.56
475.332	922.76
475.789	919.91
476.246	938.91
476.704	967.56
477.161	963.86
477.618	970.86
478.075	994.56
478.532	1017.66
478.989	1039.46
479.446	1100.21
479.903	1083.51
480.36	1104.66
480.817	1108.06
481.274	1119.76
481.731	1148.56
482.188	1176.61
482.645	1193.41
483.102	1204.71
483.558	1245.41
484.015	1267.86
484.472	1263.11
484.929	1268.81
485.385	1257.51
485.842	1270.76
486.299	1284.36
486.755	1268.31
487.212	1247.51
487.668	1229.31
488.125	1217.71
488.582	1206.76
489.038	1220.41
489.494	1224.01
489.951	1233.21
490.407	1223.91
490.864	1234.81
491.32	1223.36
491.776	1236.66
492.233	1254.56
492.689	1247.86
493.145	1232.46
493.602	1229.81
494.058	1253.11
494.514	1262.36
494.97	1273.86
495.426	1289.81
495.882	1295.71
496.338	1296.06
496.794	1309.71
497.251	1314.76
497.707	1321.36
498.163	1339.16
498.618	1334.06
499.074	1338.96
499.53	1350.46
499.986	1362.61
500.442	1344.56
500.898	1345.01
501.354	1361.06
501.809	1355.11
502.265	1358.96
502.721	1359.06
503.177	1373.11
503.632	1373.81
504.088	1386.76
504.543	1400.36
504.999	1416.41
505.455	1414.61
505.91	1400.46
506.366	1413.31
506.821	1403.71
507.277	1399.76
507.732	1408.51
508.187	1398.06
508.643	1417.31
509.098	1407.26
509.553	1426.56
510.009	1446.76
510.464	1474.11
510.919	1489.11
511.375	1513.76
511.83	1519.46
512.285	1547.91
512.74	1574.36
513.195	1602.76
513.65	1626.41
514.105	1656.71
514.56	1658.11
515.015	1696.11
515.47	1696.66
515.925	1689.86
516.38	1682.51
516.835	1683.21
517.29	1684.81
517.745	1682.61
518.2	1653.91
518.655	1616.96
519.109	1592.91
519.564	1565.76
520.019	1559.71
520.474	1539.66
520.928	1539.31
521.383	1525.31
521.838	1507.71
522.292	1499.71
522.747	1493.56
523.201	1483.41
523.656	1465.31
524.11	1466.11
524.565	1448.71
525.019	1454.91
525.474	1449.81
525.928	1438.16
526.382	1448.31
526.837	1449.71
527.291	1445.46
527.745	1433.46
528.2	1432.16
528.654	1413.41
529.108	1424.11
529.562	1433.46
530.016	1427.36
530.47	1418.76
530.925	1422.26
531.379	1414.16
531.833	1441.51
532.287	1438.71
532.741	1427.51
533.195	1429.06
533.649	1433.91
534.103	1428.71
534.556	1413.16
535.01	1442.31
535.464	1420.81
535.918	1426.16
536.372	1432.36
536.826	1430.81
537.279	1428.26
537.733	1426.51
538.187	1432.51
538.64	1423.16
539.094	1429.86
539.548	1452.96
540.001	1454.36
540.455	1462.16
540.908	1478.56
541.362	1492.31
541.815	1501.16
542.269	1529.96
542.722	1529.91
543.175	1552.71
543.629	1553.46
544.082	1570.96
544.536	1580.71
544.989	1585.16
545.442	1599.96
545.895	1588.91
546.349	1591.76
546.802	1606.06
547.255	1604.16
547.708	1608.01
548.161	1642.46
548.614	1638.81
549.067	1641.31
549.52	1636.41
549.973	1615.26
550.426	1601.31
550.879	1591.36
551.332	1586.61
551.785	1601.76
552.238	1613.86
552.691	1615.76
553.144	1654.91
553.596	1680.11
554.049	1694.76
554.502	1746.61
554.955	1763.71
555.407	1793.46
555.86	1767.36
556.313	1748.46
556.765	1727.46
557.218	1701.31
557.67	1697.26
558.123	1681.56
558.576	1673.71
559.028	1670.91
559.48	1685.76
559.933	1689.81
560.385	1625.11
560.838	1559.76
561.29	1517.71
561.742	1511.16
562.195	1465.41
562.647	1454.76
563.099	1449.96
563.551	1443.41
564.004	1473.96
564.456	1456.46
564.908	1415.61
565.36	1380.36
565.812	1346.71
566.264	1343.91
566.716	1320.66
567.168	1305.96
567.62	1303.11
568.072	1286.36
568.524	1279.96
568.976	1274.56
569.428	1270.01
569.88	1258.31
570.332	1263.36
570.784	1273.66
571.235	1268.46
571.687	1283.81
572.139	1290.46
572.59	1287.61
573.042	1305.31
573.494	1303.31
573.945	1280.46
574.397	1254.71
574.849	1252.21
575.3	1255.11
575.752	1229.11
576.203	1225.41
576.655	1225.46
577.106	1209.06
577.557	1191.31
578.009	1195.86
578.46	1198.06
578.912	1180.76
579.363	1199.81
579.814	1189.16
580.265	1200.06
580.717	1197.26
581.168	1192.66
581.619	1199.26
582.07	1212.46
582.521	1217.76
582.972	1197.16
583.423	1199.41
583.875	1200.81
584.326	1215.11
584.777	1233.01
585.227	1253.86
585.678	1274.66
586.129	1294.11
586.58	1304.96
587.031	1325.91
587.482	1367.56
587.933	1383.86
588.384	1386.46
588.834	1375.16
589.285	1371.06
589.736	1369.16
590.186	1375.91
590.637	1348.96
591.088	1311.26
591.538	1281.11
591.989	1274.41
592.439	1255.11
592.89	1242.11
593.34	1234.26
593.791	1220.41
594.241	1204.21
594.692	1213.26
595.142	1209.46
595.593	1208.41
596.043	1217.06
596.493	1230.76
596.943	1222.71
597.394	1264.41
597.844	1276.21
598.294	1301.71
598.744	1350.11
599.195	1417.06
599.645	1514.46
600.095	1592.11
600.545	1671.61
600.995	1759.11
601.445	1829.21
601.895	1945.21
602.345	2011.76
602.795	1978.21
603.245	1886.11
603.695	1749.01
604.145	1659.71
604.594	1563.96
605.044	1467.21
605.494	1379.96
605.944	1286.41
606.393	1260.16
606.843	1233.01
607.293	1234.61
607.743	1230.11
608.192	1243.31
608.642	1239.41
609.091	1250.51
609.541	1247.66
609.99	1250.01
610.44	1214.66
610.889	1193.96
611.339	1186.26
611.788	1171.11
612.238	1169.36
612.687	1168.36
613.136	1188.06
613.586	1204.06
614.035	1196.61
614.484	1205.36
614.933	1200.61
615.383	1176.01
615.832	1145.36
616.281	1134.01
616.73	1112.51
617.179	1082.51
617.628	1057.16
618.077	1045.46
618.526	1029.76
618.975	1028.96
619.424	1001.36
619.873	999.36
620.322	987.41
620.771	996.16
621.22	969.51
621.669	957.61
622.118	947.91
622.567	939.61
623.015	912.66
623.464	922.06
623.913	904.66
624.361	911.96
624.81	903.56
625.259	906.01
625.707	894.96
626.156	903.91
626.604	916.91
627.053	918.76
627.501	919.61
627.95	931.16
628.398	942.56
628.847	927.21
629.295	933.81
629.744	914.26
630.192	901.31
630.64	882.96
631.089	869.86
631.537	841.51
631.985	830.26
632.433	824.91
632.881	814.21
633.33	816.01
633.778	819.16
634.226	830.01
634.674	837.21
635.122	849.11
635.57	851.21
636.018	861.61
636.466	862.26
636.914	860.21
637.362	873.36
637.81	894.96
638.258	916.81
638.705	927.31
639.153	961.81
639.601	966.76
640.049	980.61
640.497	1022.76
640.944	1042.61
641.392	980.46
641.84	912.71
642.287	852.81
642.735	821.81
643.182	802.91
643.63	792.46
644.078	791.86
644.525	792.16
644.973	801.36
645.42	797.36
645.867	804.11
646.315	795.76
646.762	808.81
647.21	802.61
647.657	811.96
648.104	798.71
648.551	765.86
648.999	759.81
649.446	764.11
649.893	752.16
650.34	760.11
650.787	784.71
651.234	811.76
651.682	878.86
652.129	955.61
652.576	1087.56
653.023	1252.01
653.47	1350.51
653.917	1414.91
654.363	1447.21
654.81	1526.11
655.257	1573.11
655.704	1237.06
656.151	965.86
656.598	847.06
657.044	785.91
657.491	770.41
657.938	749.61
658.385	729.51
658.831	730.01
659.278	726.06
659.724	719.91
660.171	715.16
660.618	689.81
661.064	677.16
661.511	681.71
661.957	680.51
662.404	692.36
662.85	697.66
663.296	706.51
663.743	707.91
664.189	705.41
664.635	706.31
665.082	703.76
665.528	707.21
665.974	680.96
666.42	685.01
666.867	686.16
667.313	644.41
667.759	643.81
668.205	643.41
668.651	643.06
669.097	647.96
669.543	649.61
669.989	667.76
670.435	662.86
670.881	673.21
671.327	700.56
671.773	752.56
672.219	824.71
672.665	887.96
673.11	927.46
673.556	957.36
674.002	989.91
674.448	1013.46
674.893	841.41
675.339	718.81
675.785	659.01
676.23	625.51
676.676	604.21
677.122	584.36
677.567	565.71
678.013	547.96
678.458	544.91
678.904	546.36
679.349	545.01
679.794	535.61
680.24	541.16
680.685	534.36
681.131	541.86
681.576	533.76
682.021	537.36
682.466	553.21
682.912	549.11
683.357	584.11
683.802	635.11
684.247	699.71
684.692	754.06
685.137	790.16
685.583	813.41
686.028	873.46
686.473	820.81
686.918	699.91
687.363	630.96
687.807	596.31
688.252	562.76
688.697	538.81
689.142	523.56
689.587	525.21
690.032	534.51
690.477	555.41
690.921	585.61
691.366	624.66
691.811	649.36
692.255	705.81
692.7	869.21
693.145	1244.41
693.589	1912.26
694.034	2336.11
694.478	2554.21
694.923	2394.56
695.367	3510.31
695.812	2072.66
696.256	832.26
696.701	591.21
697.145	543.86
697.59	521.41
698.034	505.46
698.478	512.06
698.922	516.16
699.367	521.96
699.811	549.76
700.255	607.81
700.699	668.01
701.143	735.71
701.588	774.06
702.032	813.61
702.476	837.41
702.92	870.66
703.364	1140.61
703.808	1760.51
704.252	2235.11
704.696	2441.31
705.14	2357.31
705.584	3321.36
706.027	1777.46
706.471	856.81
706.915	624.66
707.359	550.71
707.803	510.81
708.246	492.76
708.69	491.56
709.134	483.96
709.577	481.71
710.021	487.06
710.465	487.21
710.908	471.86
711.352	501.86
711.795	558.66
712.239	600.21
712.682	623.46
713.126	620.41
713.569	694.36
714.012	556.06
714.456	474.86
714.899	451.16
715.342	426.86
715.786	418.86
716.229	399.76
716.672	388.71
717.115	394.71
717.558	395.46
718.002	403.51
718.445	430.96
718.888	459.76
719.331	465.36
719.774	472.86
720.217	469.96
720.66	438.81
721.103	416.16
721.546	386.91
721.989	377.36
722.432	372.91
722.874	372.16
723.317	377.46
723.76	404.51
724.203	508.86
724.645	685.96
725.088	832.41
725.531	827.31
725.974	924.31
726.416	821.21
726.859	482.21
727.301	393.81
727.744	366.61
728.187	374.81
728.629	380.76
729.071	398.66
729.514	424.11
729.956	438.96
730.399	450.31
730.841	443.11
731.283	439.66
731.726	413.71
732.168	426.01
732.61	453.81
733.053	485.51
733.495	550.31
733.937	621.21
734.379	724.01
734.821	927.66
735.263	1457.41
735.705	2632.96
736.148	3974.16
736.59	4095.71
737.032	4606.31
737.474	3745.36
737.916	1390.56
738.357	696.96
738.799	527.46
739.241	489.91
739.683	492.46
740.125	497.01
740.567	505.16
741.008	534.71
741.45	559.76
741.892	587.31
742.334	597.71
742.775	593.76
743.217	572.56
743.658	477.31
744.1	481.86
744.542	544.21
744.983	573.46
745.425	604.36
745.866	596.81
746.307	494.71
746.749	532.11
747.19	775.61
747.632	1530.06
748.073	2910.61
748.514	4108.51
748.956	5613.71
749.397	6641.31
749.838	4554.91
750.279	4480.86
750.72	2239.36
751.162	914.16
751.603	506.61
752.044	405.61
752.485	359.51
752.926	332.81
753.367	323.91
753.808	317.41
754.249	304.01
754.69	302.26
755.131	299.81
755.572	301.11
756.013	295.86
756.453	303.61
756.894	309.41
757.335	306.91
757.776	306.56
758.216	320.06
758.657	335.71
759.098	375.06
759.538	449.66
759.979	657.86
760.42	1324.86
760.86	3414.41
761.301	7337.86
761.741	8999.61
762.182	10859.51
762.622	6845.41
763.063	2349.51
763.503	940.81
763.943	540.26
764.384	423.16
764.824	364.61
765.264	334.86
765.705	320.61
766.145	301.71
766.585	287.31
767.025	279.06
767.465	276.56
767.906	280.06
768.346	303.21
768.786	349.56
769.226	511.01
769.666	1060.06
770.106	2409.91
770.546	3570.36
770.986	4236.51
771.426	3199.11
771.866	1277.76
772.306	556.71
772.745	338.01
773.185	274.11
773.625	271.11
774.065	283.51
774.505	386.06
774.944	670.36
775.384	983.86
775.824	1154.46
776.263	963.01
776.703	500.16
777.142	290.16
777.582	218.11
778.021	204.86
778.461	196.41
778.9	196.36
779.34	193.66
779.779	180.21
780.219	183.46
780.658	171.61
781.097	172.36
781.537	175.36
781.976	174.41
782.415	170.21
782.855	172.56
783.294	167.26
783.733	160.86
784.172	170.51
784.611	169.61
785.05	179.31
785.489	184.16
785.928	188.56
786.367	195.61
786.806	203.26
787.245	220.46
787.684	226.51
788.123	230.06
788.562	211.21
789.001	207.01
789.44	198.11
789.879	195.86
790.317	198.51
790.756	215.71
791.195	244.41
791.634	333.21
792.072	604.91
792.511	1522.81
792.95	2907.01
793.388	3702.21
793.827	2394.56
794.265	1049.81
794.704	492.36
795.142	295.16
795.581	240.81
796.019	218.11
796.458	216.96
796.896	223.56
797.334	258.66
797.773	352.56
798.211	674.86
798.649	1448.51
799.087	2486.21
799.526	3539.71
799.964	3736.41
800.402	2604.16
800.84	1135.36
801.278	531.66
801.716	319.21
802.154	257.36
802.592	236.61
803.03	240.96
803.468	243.21
803.906	249.91
804.344	239.36
804.782	236.96
805.22	232.86
805.658	244.81
806.096	260.16
806.533	293.81
806.971	383.86
807.409	546.16
807.847	1095.26
808.284	2841.26
808.722	5197.56
809.16	7319.61
809.597	9794.61
810.035	12618.51
810.472	8263.26
810.91	3363.71
811.347	1487.56
811.785	699.21
812.222	431.11
812.66	331.21
813.097	277.36
813.535	242.31
813.972	224.21
814.409	200.51
814.846	194.16
815.284	182.91
815.721	184.11
816.158	196.76
816.595	262.66
817.032	339.41
817.47	305.56
817.907	220.61
818.344	192.06
818.781	189.61
819.218	225.81
819.655	350.01
820.092	457.66
820.529	417.41
820.966	324.76
821.403	225.56
821.839	190.06
822.276	209.76
822.713	258.31
823.15	243.21
823.587	262.41
824.023	466.01
824.46	1190.11
824.897	2175.96
825.333	1738.86
825.77	759.51
826.206	384.46
826.643	220.56
827.08	165.81
827.516	146.21
827.953	140.26
828.389	128.71
828.825	120.91
829.262	118.36
829.698	114.36
830.135	106.31
830.571	110.71
831.007	107.46
831.443	109.31
831.88	109.31
832.316	109.66
832.752	112.96
833.188	116.31
833.624	116.06
834.06	113.81
834.497	115.41
834.933	116.01
835.369	131.91
835.805	138.31
836.241	143.71
836.677	155.66
837.112	183.81
837.548	228.51
837.984	340.16
838.42	728.81
838.856	2089.06
839.292	4322.96
839.727	3238.46
840.163	2066.21
840.599	3139.86
841.034	5086.56
841.47	2538.31
841.906	1175.66
842.341	610.66
842.777	429.76
843.212	443.71
843.648	271.21
844.083	188.56
844.519	144.16
844.954	124.61
845.39	108.36
845.825	106.11
846.261	102.86
846.696	97.46
847.131	93.96
847.566	93.16
848.002	97.01
848.437	100.41
848.872	100.81
849.307	141.61
849.742	253.31
850.177	687.01
850.613	1529.81
851.048	1118.86
851.483	486.61
851.918	262.66
852.353	143.01
852.788	96.76
853.223	90.16
853.657	81.81
854.092	77.26
854.527	76.56
854.962	82.36
855.397	90.11
855.832	75.46
856.266	68.46
856.701	71.01
857.136	73.46
857.57	85.81
858.005	111.36
858.44	89.86
858.874	88.41
859.309	89.26
859.743	86.41
860.178	84.96
860.612	89.96
861.047	124.46
861.481	170.36
861.915	116.21
862.35	86.61
862.784	70.01
863.218	66.06
863.653	73.86
864.087	90.26
864.521	113.46
864.955	195.81
865.39	361.46
865.824	256.01
866.258	307.46
866.692	477.06
867.126	344.46
867.56	180.26
867.994	112.96
868.428	95.86
868.862	124.56
869.296	107.46
869.73	140.26
870.164	119.26
870.598	103.41
871.031	80.16
871.465	68.66
871.899	53.61
872.333	49.06
872.766	48.81
873.2	51.11
873.634	49.81
874.067	53.81
874.501	52.86
874.935	55.71
875.368	54.51
875.802	54.51
876.235	47.56
876.669	43.71
877.102	38.51
877.535	36.81
877.969	39.86
878.402	42.71
878.836	42.26
879.269	39.46
879.702	39.06
880.135	40.36
880.569	42.81
881.002	34.61
881.435	40.71
881.868	37.56
882.301	38.11
882.734	38.71
883.167	37.76
883.601	38.81
884.034	38.46
884.467	31.61
884.899	35.31
885.332	29.11
885.765	31.66
886.198	33.21
886.631	36.51
887.064	33.11
887.497	28.21
887.929	33.11
888.362	29.91
888.795	30.16
889.228	38.21
889.66	29.96
890.093	30.96
890.526	31.76
890.958	30.71
891.391	33.46
891.823	27.01
892.256	32.01
892.688	32.31
893.121	28.91
893.553	33.26
893.985	29.11
894.418	27.91
894.85	31.66
895.282	31.66
895.715	31.41
896.147	24.11
896.579	25.36
897.011	30.46
897.444	31.01
897.876	24.61
898.308	27.01
898.74	28.71
899.172	34.76
899.604	33.26
900.036	30.21
900.468	23.76
900.9	30.36
901.332	38.46
901.764	39.96
902.196	40.76
902.628	39.41
903.06	56.21
903.491	57.56
903.923	48.86
904.355	50.51
904.787	55.61
905.218	42.56
905.65	38.31
906.082	37.46
906.513	33.56
906.945	32.51
907.376	32.76
907.808	32.71
908.239	35.06
908.671	46.11
909.102	49.31
909.534	67.81
909.965	131.56
910.397	342.71
910.828	1041.71
911.259	634.76
911.691	326.41
912.122	189.66
912.553	97.06
912.984	47.66
913.415	45.01
913.847	41.21
914.278	40.66
914.709	34.36
915.14	30.06
915.571	34.51
916.002	30.06
916.433	28.06
916.864	29.76
917.295	28.91
917.726	39.11
918.157	50.76
918.587	46.96
919.018	43.61
919.449	39.36
919.88	45.51
920.311	71.71
920.741	215.46
921.172	383.36
921.603	186.41
922.033	112.36
922.464	70.06
922.895	46.56
923.325	32.01
923.756	25.66
924.186	35.11
924.617	52.96
925.047	69.31
925.478	63.81
925.908	44.91
926.338	33.41
926.769	35.51
927.199	27.91
927.629	23.41
928.06	29.46
928.49	28.76
928.92	21.36
929.35	21.91
929.78	16.46
930.21	17.81
930.641	10.31
931.071	16.76
931.501	12.81
931.931	15.86
932.361	16.51
932.791	15.96
933.221	19.86
933.651	31.36
934.08	51.01
934.51	25.71
934.94	25.71
935.37	22.31
935.8	15.46
936.229	11.51
936.659	12.96
937.089	23.36
937.519	35.86
937.948	58.36
938.378	31.11
938.807	11.86
939.237	12.76
939.666	13.81
940.096	10.86
940.525	4.66
940.955	11.51
941.384	6.86
941.814	9.51
942.243	6.36
942.672	7.36
943.102	4.81
943.531	4.71
943.96	4.91
944.39	5.76
944.819	10.71
945.248	7.36
945.677	8.26
946.106	6.46
946.535	10.11
946.964	7.31
947.393	4.56
947.822	3.96
948.251	5.61
948.68	11.26
949.109	7.21
949.538	3.41
949.967	8.46
950.396	7.66
950.825	10.41
951.254	6.01
951.682	-1.34
952.111	1.26
952.54	1.66
952.969	4.76
953.397	1.96
953.826	4.01
954.254	6.01
954.683	8.01
955.112	5.81
955.54	9.41
955.969	1.66
956.397	12.01
956.826	2.56
957.254	0.56
957.682	1.36
958.111	5.71
958.539	8.91
958.967	0.91
959.396	9.16
959.824	-1.44
960.252	6.36
960.68	5.31
961.109	5.46
961.537	11.26
961.965	4.86
962.393	5.26
962.821	5.76
963.249	12.46
963.677	12.61
964.105	61.76
964.533	111.96
964.961	53.76
965.389	22.81
965.817	14.16
966.245	9.41
966.672	6.76
967.1	10.61
967.528	2.16
967.956	3.16
968.383	5.11
968.811	2.26
969.239	6.41
969.666	6.56
970.094	2.76
970.522	-2.54
970.949	4.76
971.377	2.96
971.804	5.41
972.232	1.81
972.659	3.76
973.087	2.76
973.514	-0.79
973.941	1.76
974.369	1.76
974.796	2.61
975.223	0.36
975.651	2.11
976.078	2.41
976.505	6.26
976.932	25.41
977.359	36.06
977.786	22.06
978.214	14.31
978.641	3.06
979.068	1.36
979.495	1.46
979.922	4.36
980.349	6.66
980.776	3.41
981.202	5.06
981.629	12.01
982.056	7.06
982.483	1.11
982.91	7.11
983.337	2.16
983.763	2.06
984.19	3.81
984.617	1.41
985.043	4.26
985.47	4.31
985.897	5.51
986.323	8.76
986.75	1.61
987.176	3.31
987.603	2.01
988.029	4.11
988.456	7.76
988.882	2.11
989.308	-1.14
989.735	-1.14
990.161	2.91
990.587	0.61
991.014	3.01
991.44	2.66
991.866	-0.84
992.292	0.76
992.719	-0.79
993.145	5.96
993.571	1.86
993.997	5.76
994.423	4.06
994.849	-1.64
995.275	-0.19
995.701	6.06
996.127	4.56
996.553	0.01
996.979	-1.29
997.405	6.31
997.83	2.16
998.256	6.06
998.682	1.91
999.108	2.96
999.534	-1.59
999.959	1.56
1000.385	5.26
1000.811	-2.29
1001.236	-4.69
1001.662	-1.34
1002.087	5.61
1002.513	3.31
1002.938	-2.34
1003.364	0.81
1003.789	4.81
1004.215	-1.94
1004.64	0.21
1005.066	5.16
1005.491	7.76
1005.916	1.56
1006.342	3.41
1006.767	4.71
1007.192	4.26
1007.617	1.31
1008.042	1.31
1008.468	1.46
1008.893	2.11
1009.318	4.51
1009.743	9.86
1010.168	19.66
1010.593	15.91
1011.018	9.46
1011.443	5.46
1011.868	9.96
1012.293	3.31
1012.718	3.01
1013.143	-1.09
1013.567	6.71
1013.992	2.66
1014.417	4.81
1014.842	-2.34
1015.267	-2.99
1015.691	5.21
1016.116	4.21
1016.541	5.06
1016.965	3.56
1017.39	-0.04
1017.814	-3.44
1018.239	-1.69
1018.663	-4.84
1019.088	-2.09
1019.512	5.16
1019.937	1.46
1020.361	0.76
1020.785	-5.09
1021.21	-6.34
1021.634	0.51
1022.058	5.71
1022.483	-1.04
1022.907	-0.44
1023.331	-3.99
1023.755	-0.04
1024.179	2.06
1024.604	2.41
1025.028	-0.04
1025.452	6.76
1025.876	6.16
1026.3	0.66
1026.724	-2.69
1027.148	1.41
1027.572	-0.39
1027.996	-0.79
1028.42	3.11
1028.843	-0.04
1029.267	0.76
1029.691	0.16
1030.115	-2.09
1030.539	-2.19
1030.962	-4.09
1031.386	2.16
1031.81	0.16
1032.233	-1.84
1032.657	-3.59
1033.08	1.66
1033.504	-2.49
1033.927	0.31
1034.351	-6.09
1034.774	-0.84
1035.198	-3.44
1035.621	1.31
1036.045	-3.39
1036.468	6.56
1036.891	-0.89
1037.315	5.46
1037.738	2.46
1038.161	2.66
1038.584	1.41
1039.008	-0.19
1039.431	-1.79
1039.854	-8.14
1040.277	0.86
1040.7	0.61
1041.123	1.81
1041.546	-3.54
1041.969	-0.19
1042.392	0.41
1042.815	-5.84
1043.238	-2.69
1043.661	-1.24
1044.084	1.21
1044.507	1.76
1044.93	-2.24
1045.352	0.11
1045.775	2.61
1046.198	4.46
1046.621	4.81
1047.043	-1.74
1047.466	-1.59
1047.889	-2.59
1048.311	7.66
1048.734	-0.14
1049.156	-1.94
1049.579	-0.84
1050.001	-2.84
1050.424	-1.29
1050.846	-0.64
1051.269	-4.59
1051.691	0.11
1052.113	0.21
1052.536	1.01
1052.958	-3.94
1053.38	2.76
1053.802	3.06
1054.225	3.41
1054.647	3.46
1055.069	0.56
1055.491	1.61
1055.913	2.66
1056.335	-7.04
1056.757	-3.59
1057.179	0.11
1057.601	-3.04
1058.023	1.06
1058.445	-5.99
1058.867	0.96
1059.289	1.26
1059.711	-4.39
1060.133	3.31
1060.555	-4.04
1060.976	0.26
1061.398	-4.29
1061.82	-1.74
1062.241	-3.04
1062.663	1.51
1063.085	-3.64
1063.506	-6.04
1063.928	-0.54
1064.35	1.61
1064.771	3.36
1065.193	-2.09
1065.614	-3.84
1066.035	0.66
1066.457	4.91
1066.878	2.71
1067.3	-2.39
1067.721	4.36
1068.142	0.51
1068.564	4.11
1068.985	-1.24
1069.406	-2.64
1069.827	-0.99
1070.248	-4.94
1070.67	-1.19
1071.091	-4.44
1071.512	0.56
1071.933	-1.44
1072.354	-6.04
1072.775	-4.04
1073.196	-0.49
1073.617	-5.89
1074.038	-3.59
1074.459	-4.74
1074.88	-4.24
1075.3	3.11
1075.721	3.46
1076.142	-2.64
1076.563	-3.99
1076.983	1.21
1077.404	-5.29
1077.825	1.91
1078.246	-5.89
1078.666	-3.29
1079.087	-3.74
1079.507	-1.04
1079.928	2.61
1080.348	-0.04
1080.769	0.31
1081.189	-1.14
1081.61	-8.19
1082.03	5.76
1082.451	-2.29
1082.871	-3.44
1083.291	-2.54
1083.711	-3.59
1084.132	-4.34
1084.552	-6.99
1084.972	-3.69
1085.392	-6.24
1085.813	1.31
1086.233	-4.34
1086.653	0.66
1087.073	-6.19
1087.493	-3.59
1087.913	-6.04
1088.333	-1.99
1088.753	0.21
1089.173	2.51
1089.593	3.01
1090.013	0.76
1090.433	-1.39
1090.852	2.51
1091.272	-4.34
1091.692	-2.24
1092.112	-0.24
1092.531	-3.14
1092.951	-2.69
1093.371	-1.44
1093.79	-4.54
1094.21	-0.64
1094.63	1.16
1095.049	-2.24
1095.469	-7.64
1095.888	0.46
1096.308	-0.64
1096.727	-0.94
1097.146	-4.04
1097.566	-1.49
1097.985	-2.59
1098.405	0.16
1098.824	0.26
1099.243	2.16
1099.662	-0.99
1100.082	-0.19
1100.501	-5.59
1100.92	1.26
1101.339	-1.84
1101.758	3.41
