Data from MSPlasma+Separation6_Subt14_10-12-26-695.txt Node
Date: Fri Jul 21 10:12:26 EDT 2017
User: Ender
Spectrometer: HR+D1039
Trigger mode: 0
Integration Time (sec): 6.430000E-3
Scans to average: 20
Electric dark correction enabled: true
Nonlinearity correction enabled: false
Boxcar width: 0
XAxis mode: Wavelengths
Number of Pixels in Spectrum: 2048
>>>>>Begin Spectral Data<<<<<
187.836	0.92
188.309	0.92
188.782	0.92
189.255	1.67
189.728	-0.08
190.201	-1.83
190.674	-1.98
191.147	3.77
191.619	0.67
192.092	0.27
192.565	-1.68
193.038	0.37
193.511	2.97
193.984	2.22
194.456	-2.08
194.929	-1.58
195.402	-5.08
195.874	1.47
196.347	3.52
196.82	5.12
197.292	-1.03
197.765	-0.08
198.237	-3.78
198.71	-4.08
199.182	0.62
199.655	3.22
200.127	3.47
200.6	1.47
201.072	-0.33
201.544	-4.18
202.017	-0.53
202.489	0.72
202.961	-0.13
203.433	-1.73
203.906	-1.03
204.378	-1.53
204.85	0.17
205.322	-1.83
205.794	3.52
206.266	-1.43
206.739	1.42
207.211	-2.43
207.683	-1.33
208.155	4.07
208.627	0.42
209.099	2.47
209.57	1.62
210.042	2.32
210.514	-0.18
210.986	-1.23
211.458	-3.33
211.93	3.47
212.402	1.82
212.873	-5.33
213.345	-4.33
213.817	2.32
214.288	-3.03
214.76	4.42
215.232	2.52
215.703	-2.23
216.175	0.57
216.646	3.42
217.118	0.57
217.589	-3.08
218.061	-2.08
218.532	-2.78
219.004	2.82
219.475	-0.18
219.946	1.57
220.418	4.07
220.889	-0.28
221.36	0.62
221.832	7.27
222.303	5.12
222.774	5.17
223.245	1.12
223.717	-1.13
224.188	3.32
224.659	3.42
225.13	2.32
225.601	3.12
226.072	2.27
226.543	3.42
227.014	0.07
227.485	5.22
227.956	4.07
228.427	9.32
228.898	6.17
229.369	4.17
229.839	2.32
230.31	6.82
230.781	9.62
231.252	9.47
231.722	7.52
232.193	9.97
232.664	7.07
233.135	3.92
233.605	1.07
234.076	7.07
234.546	8.62
235.017	8.92
235.487	6.52
235.958	4.77
236.428	11.22
236.899	2.77
237.369	13.42
237.84	11.57
238.31	10.07
238.78	5.92
239.251	5.22
239.721	5.92
240.191	2.37
240.662	9.72
241.132	10.12
241.602	8.97
242.072	11.57
242.542	9.27
243.013	6.47
243.483	14.62
243.953	10.67
244.423	8.87
244.893	8.72
245.363	15.32
245.833	11.32
246.303	14.02
246.773	16.22
247.243	12.22
247.712	15.82
248.182	12.42
248.652	16.87
249.122	13.77
249.592	16.07
250.061	14.12
250.531	14.47
251.001	15.42
251.471	18.17
251.94	15.77
252.41	15.62
252.879	16.32
253.349	20.37
253.818	17.52
254.288	19.97
254.757	19.32
255.227	20.12
255.696	22.82
256.166	22.97
256.635	23.47
257.105	21.17
257.574	22.52
258.043	20.97
258.513	25.97
258.982	23.42
259.451	24.37
259.92	17.97
260.389	23.07
260.859	25.67
261.328	22.17
261.797	21.07
262.266	26.57
262.735	29.87
263.204	22.62
263.673	24.62
264.142	21.07
264.611	24.17
265.08	31.42
265.549	21.72
266.018	26.72
266.487	29.62
266.955	24.07
267.424	30.72
267.893	35.42
268.362	29.77
268.83	29.02
269.299	27.12
269.768	31.57
270.236	32.22
270.705	36.77
271.174	34.52
271.642	32.12
272.111	27.22
272.579	29.17
273.048	30.32
273.516	33.97
273.985	34.72
274.453	36.42
274.922	35.77
275.39	31.32
275.858	37.92
276.327	40.92
276.795	36.47
277.263	35.97
277.731	33.42
278.2	40.42
278.668	37.62
279.136	41.87
279.604	38.72
280.072	34.87
280.54	42.07
281.008	49.02
281.477	43.57
281.945	37.42
282.413	40.32
282.881	45.42
283.348	41.42
283.816	42.47
284.284	45.02
284.752	41.77
285.22	46.57
285.688	45.47
286.156	43.72
286.623	44.92
287.091	47.82
287.559	45.92
288.026	50.32
288.494	47.82
288.962	47.72
289.429	47.27
289.897	46.52
290.364	49.12
290.832	55.27
291.3	51.17
291.767	49.37
292.234	54.07
292.702	56.37
293.169	54.57
293.637	57.47
294.104	56.47
294.571	54.47
295.039	58.42
295.506	52.82
295.973	55.62
296.44	55.32
296.908	62.42
297.375	56.22
297.842	56.82
298.309	57.97
298.776	58.77
299.243	65.22
299.71	64.12
300.177	61.07
300.644	58.92
301.111	61.72
301.578	62.97
302.045	62.52
302.512	60.07
302.979	66.87
303.446	67.97
303.913	67.07
304.379	73.32
304.846	69.22
305.313	74.02
305.78	74.77
306.246	73.37
306.713	75.97
307.18	73.22
307.646	82.52
308.113	77.37
308.579	80.12
309.046	83.17
309.512	80.72
309.979	86.57
310.445	83.82
310.912	88.32
311.378	91.37
311.845	91.62
312.311	79.62
312.777	87.32
313.244	89.72
313.71	93.97
314.176	93.92
314.642	94.22
315.109	90.37
315.575	91.32
316.041	94.57
316.507	95.27
316.973	95.82
317.439	98.07
317.905	98.47
318.371	92.62
318.837	98.52
319.303	98.97
319.769	99.22
320.235	103.97
320.701	104.32
321.167	99.82
321.633	101.37
322.099	100.07
322.564	107.82
323.03	108.72
323.496	105.32
323.962	106.57
324.427	116.82
324.893	108.02
325.359	116.02
325.824	116.67
326.29	116.97
326.755	113.37
327.221	113.57
327.686	125.52
328.152	122.77
328.617	123.37
329.083	125.97
329.548	125.37
330.014	124.87
330.479	130.37
330.944	130.07
331.41	134.77
331.875	124.87
332.34	125.87
332.805	131.12
333.271	130.27
333.736	132.12
334.201	129.82
334.666	138.92
335.131	138.47
335.596	143.82
336.061	137.82
336.526	138.22
336.991	135.47
337.456	131.82
337.921	130.02
338.386	131.77
338.851	132.52
339.316	141.82
339.781	135.77
340.246	139.07
340.711	140.12
341.175	144.62
341.64	145.52
342.105	148.32
342.569	156.12
343.034	150.22
343.499	152.87
343.963	155.82
344.428	161.17
344.893	159.62
345.357	164.62
345.822	160.12
346.286	168.92
346.751	167.92
347.215	172.87
347.679	182.02
348.144	190.17
348.608	186.87
349.073	191.97
349.537	195.27
350.001	193.62
350.465	197.12
350.93	189.92
351.394	196.07
351.858	200.17
352.322	205.47
352.786	203.12
353.25	204.07
353.715	204.47
354.179	218.57
354.643	215.97
355.107	221.32
355.571	218.47
356.035	221.37
356.498	215.27
356.962	219.97
357.426	211.67
357.89	214.27
358.354	208.42
358.818	208.17
359.281	206.52
359.745	209.92
360.209	207.27
360.673	212.07
361.136	217.02
361.6	216.87
362.064	217.62
362.527	222.47
362.991	224.67
363.454	221.07
363.918	227.62
364.381	228.92
364.845	228.07
365.308	226.12
365.772	231.27
366.235	232.42
366.698	224.72
367.162	223.57
367.625	233.37
368.088	237.82
368.552	232.72
369.015	235.77
369.478	237.22
369.941	236.97
370.404	246.17
370.867	241.02
371.331	239.62
371.794	252.22
372.257	251.02
372.72	247.62
373.183	251.07
373.646	251.17
374.109	248.22
374.572	259.37
375.035	255.62
375.497	262.52
375.96	261.27
376.423	265.62
376.886	268.62
377.349	271.02
377.811	269.32
378.274	269.27
378.737	275.17
379.199	278.92
379.662	277.67
380.125	280.57
380.587	283.47
381.05	282.27
381.512	293.67
381.975	298.62
382.437	310.57
382.9	307.27
383.362	311.07
383.825	314.22
384.287	310.92
384.75	311.12
385.212	311.12
385.674	315.22
386.136	318.37
386.599	315.42
387.061	316.27
387.523	320.02
387.985	321.32
388.447	324.17
388.91	330.07
389.372	327.32
389.834	330.57
390.296	324.02
390.758	328.02
391.22	322.12
391.682	324.37
392.144	325.72
392.606	331.37
393.068	336.02
393.529	360.17
393.991	364.87
394.453	349.37
394.915	337.42
395.377	322.42
395.838	330.57
396.3	330.27
396.762	338.52
397.224	338.72
397.685	336.07
398.147	348.27
398.608	344.32
399.07	349.72
399.531	345.92
399.993	360.02
400.454	365.07
400.916	361.62
401.377	373.92
401.839	371.32
402.3	374.67
402.762	391.77
403.223	414.77
403.684	419.07
404.145	399.02
404.607	388.62
405.068	372.87
405.529	374.92
405.99	377.77
406.451	395.47
406.913	378.72
407.374	383.72
407.835	383.52
408.296	388.02
408.757	389.97
409.218	404.47
409.679	409.17
410.14	415.12
410.601	432.92
411.062	433.82
411.522	435.17
411.983	448.52
412.444	453.47
412.905	458.97
413.366	480.27
413.826	509.47
414.287	586.97
414.748	714.92
415.208	725.87
415.669	596.17
416.13	534.87
416.59	534.97
417.051	558.62
417.511	577.47
417.972	635.87
418.432	691.57
418.893	771.57
419.353	735.47
419.814	549.02
420.274	478.92
420.734	473.02
421.195	491.72
421.655	480.57
422.115	489.67
422.576	484.57
423.036	492.07
423.496	506.47
423.956	526.27
424.416	563.37
424.876	638.52
425.336	630.17
425.797	619.47
426.257	600.22
426.717	549.67
427.177	499.57
427.637	491.07
428.097	502.82
428.556	516.92
429.016	556.57
429.476	547.47
429.936	514.47
430.396	499.32
430.856	513.62
431.315	516.97
431.775	559.47
432.235	609.47
432.694	625.52
433.154	569.02
433.614	557.07
434.073	540.72
434.533	502.47
434.993	488.87
435.452	508.97
435.912	499.02
436.371	509.32
436.83	507.52
437.29	501.22
437.749	500.52
438.209	507.12
438.668	514.17
439.127	526.67
439.587	526.52
440.046	511.22
440.505	530.17
440.964	536.72
441.424	551.32
441.883	563.17
442.342	539.47
442.801	517.62
443.26	534.87
443.719	529.47
444.178	519.87
444.637	533.42
445.096	543.47
445.555	548.67
446.014	542.77
446.473	545.72
446.932	540.92
447.391	545.57
447.849	558.37
448.308	551.22
448.767	550.52
449.226	568.32
449.685	579.52
450.143	607.77
450.602	596.67
451.061	561.97
451.519	567.32
451.978	549.57
452.436	541.32
452.895	559.27
453.353	556.52
453.812	550.02
454.27	553.12
454.729	549.82
455.187	561.27
455.646	562.62
456.104	561.57
456.562	573.92
457.021	577.52
457.479	545.67
457.937	576.92
458.395	586.02
458.854	587.92
459.312	572.27
459.77	574.22
460.228	582.27
460.686	595.82
461.144	598.07
461.602	589.37
462.06	590.77
462.518	599.57
462.976	602.52
463.434	608.12
463.892	607.97
464.35	615.77
464.808	627.97
465.266	632.32
465.724	651.17
466.181	648.97
466.639	646.72
467.097	668.37
467.555	678.12
468.012	684.92
468.47	683.72
468.928	706.17
469.385	726.77
469.843	729.32
470.3	719.57
470.758	748.97
471.215	748.72
471.673	764.82
472.13	784.72
472.588	796.02
473.045	794.87
473.503	799.87
473.96	835.12
474.417	832.37
474.875	867.32
475.332	879.37
475.789	882.87
476.246	894.92
476.704	921.62
477.161	931.47
477.618	931.92
478.075	955.72
478.532	973.42
478.989	999.97
479.446	1044.27
479.903	1027.82
480.36	1061.22
480.817	1056.62
481.274	1058.57
481.731	1096.92
482.188	1114.62
482.645	1135.07
483.102	1154.47
483.558	1186.47
484.015	1200.97
484.472	1199.97
484.929	1218.37
485.385	1208.32
485.842	1217.32
486.299	1234.22
486.755	1222.12
487.212	1204.92
487.668	1167.12
488.125	1159.37
488.582	1154.32
489.038	1159.67
489.494	1169.77
489.951	1171.42
490.407	1169.57
490.864	1177.62
491.32	1179.27
491.776	1182.12
492.233	1196.77
492.689	1193.42
493.145	1173.52
493.602	1179.52
494.058	1196.52
494.514	1211.42
494.97	1196.92
495.426	1219.47
495.882	1227.12
496.338	1221.27
496.794	1236.37
497.251	1243.57
497.707	1245.07
498.163	1262.57
498.618	1266.97
499.074	1264.62
499.53	1281.12
499.986	1285.37
500.442	1279.32
500.898	1259.82
501.354	1279.42
501.809	1281.37
502.265	1281.17
502.721	1288.67
503.177	1299.37
503.632	1301.07
504.088	1313.52
504.543	1329.12
504.999	1341.17
505.455	1345.32
505.91	1323.17
506.366	1319.22
506.821	1317.42
507.277	1331.92
507.732	1326.17
508.187	1323.32
508.643	1334.82
509.098	1336.27
509.553	1357.92
510.009	1372.27
510.464	1397.17
510.919	1403.72
511.375	1414.92
511.83	1444.77
512.285	1459.87
512.74	1491.22
513.195	1512.72
513.65	1542.52
514.105	1559.27
514.56	1569.92
515.015	1606.47
515.47	1608.77
515.925	1585.27
516.38	1577.47
516.835	1582.57
517.29	1589.42
517.745	1590.27
518.2	1557.52
518.655	1514.37
519.109	1498.67
519.564	1476.17
520.019	1467.02
520.474	1451.12
520.928	1437.12
521.383	1431.77
521.838	1435.77
522.292	1421.52
522.747	1404.47
523.201	1401.37
523.656	1380.37
524.11	1383.82
524.565	1369.32
525.019	1371.42
525.474	1375.37
525.928	1366.12
526.382	1371.42
526.837	1363.47
527.291	1353.42
527.745	1351.02
528.2	1354.72
528.654	1338.02
529.108	1344.62
529.562	1336.12
530.016	1328.52
530.47	1342.62
530.925	1329.02
531.379	1333.67
531.833	1351.67
532.287	1347.07
532.741	1342.87
533.195	1331.02
533.649	1345.32
534.103	1338.87
534.556	1326.62
535.01	1332.87
535.464	1332.37
535.918	1333.47
536.372	1345.12
536.826	1346.12
537.279	1327.42
537.733	1330.92
538.187	1340.07
538.64	1338.42
539.094	1350.02
539.548	1371.37
540.001	1362.22
540.455	1373.62
540.908	1382.12
541.362	1398.57
541.815	1400.42
542.269	1427.92
542.722	1428.87
543.175	1449.92
543.629	1459.47
544.082	1468.17
544.536	1488.62
544.989	1488.87
545.442	1502.02
545.895	1503.52
546.349	1499.27
546.802	1499.22
547.255	1500.27
547.708	1519.17
548.161	1531.47
548.614	1531.17
549.067	1544.77
549.52	1530.02
549.973	1512.27
550.426	1504.32
550.879	1490.07
551.332	1487.82
551.785	1495.47
552.238	1515.27
552.691	1510.77
553.144	1537.37
553.596	1567.47
554.049	1586.92
554.502	1628.82
554.955	1659.02
555.407	1677.47
555.86	1648.77
556.313	1632.82
556.765	1617.17
557.218	1592.47
557.67	1590.97
558.123	1559.92
558.576	1561.52
559.028	1551.72
559.48	1577.82
559.933	1573.42
560.385	1514.87
560.838	1456.92
561.29	1418.17
561.742	1412.72
562.195	1373.57
562.647	1361.62
563.099	1360.47
563.551	1349.37
564.004	1372.12
564.456	1348.12
564.908	1318.82
565.36	1285.97
565.812	1263.87
566.264	1247.02
566.716	1234.12
567.168	1219.02
567.62	1216.87
568.072	1205.77
568.524	1183.92
568.976	1190.62
569.428	1182.97
569.88	1176.72
570.332	1187.62
570.784	1192.17
571.235	1180.92
571.687	1195.87
572.139	1193.12
572.59	1206.12
573.042	1216.97
573.494	1217.07
573.945	1191.82
574.397	1168.12
574.849	1165.02
575.3	1168.67
575.752	1151.32
576.203	1137.77
576.655	1141.77
577.106	1118.72
577.557	1113.42
578.009	1104.92
578.46	1111.62
578.912	1095.92
579.363	1110.47
579.814	1105.47
580.265	1105.27
580.717	1112.47
581.168	1102.22
581.619	1107.92
582.07	1117.22
582.521	1119.67
582.972	1119.37
583.423	1108.97
583.875	1121.67
584.326	1133.12
584.777	1147.42
585.227	1178.37
585.678	1183.47
586.129	1195.77
586.58	1213.12
587.031	1239.32
587.482	1274.32
587.933	1284.52
588.384	1283.57
588.834	1278.22
589.285	1262.17
589.736	1278.97
590.186	1273.42
590.637	1253.82
591.088	1216.82
591.538	1196.22
591.989	1180.47
592.439	1168.42
592.89	1151.72
593.34	1146.82
593.791	1137.12
594.241	1130.87
594.692	1122.32
595.142	1124.62
595.593	1117.87
596.043	1135.07
596.493	1142.97
596.943	1134.72
597.394	1166.62
597.844	1178.37
598.294	1215.27
598.744	1256.17
599.195	1325.07
599.645	1403.67
600.095	1489.37
600.545	1552.97
600.995	1643.22
601.445	1706.87
601.895	1804.82
602.345	1880.77
602.795	1833.82
603.245	1742.92
603.695	1634.47
604.145	1533.92
604.594	1454.27
605.044	1373.42
605.494	1277.62
605.944	1194.92
606.393	1171.57
606.843	1153.67
607.293	1161.22
607.743	1145.12
608.192	1153.97
608.642	1160.07
609.091	1156.17
609.541	1159.97
609.99	1154.47
610.44	1119.27
610.889	1109.22
611.339	1093.22
611.788	1076.77
612.238	1083.22
612.687	1094.47
613.136	1098.47
613.586	1108.32
614.035	1100.12
614.484	1117.97
614.933	1116.42
615.383	1092.92
615.832	1064.97
616.281	1045.17
616.73	1027.22
617.179	1011.47
617.628	980.97
618.077	975.12
618.526	955.47
618.975	946.72
619.424	928.67
619.873	940.77
620.322	923.52
620.771	926.87
621.22	903.07
621.669	884.67
622.118	873.72
622.567	867.02
623.015	841.42
623.464	843.87
623.913	830.02
624.361	844.97
624.81	829.87
625.259	827.52
625.707	831.52
626.156	843.97
626.604	848.92
627.053	852.32
627.501	851.17
627.95	868.82
628.398	869.72
628.847	859.22
629.295	855.72
629.744	848.17
630.192	843.42
630.64	814.62
631.089	800.57
631.537	773.97
631.985	773.87
632.433	760.52
632.881	756.92
633.33	766.52
633.778	761.32
634.226	770.52
634.674	776.52
635.122	770.07
635.57	795.27
636.018	809.02
636.466	794.82
636.914	799.02
637.362	816.42
637.81	825.27
638.258	852.07
638.705	859.12
639.153	892.27
639.601	901.72
640.049	918.07
640.497	943.47
640.944	968.62
641.392	917.47
641.84	846.97
642.287	786.37
642.735	759.07
643.182	742.47
643.63	731.52
644.078	729.67
644.525	730.87
644.973	740.47
645.42	743.12
645.867	739.97
646.315	738.47
646.762	752.32
647.21	747.27
647.657	752.67
648.104	738.42
648.551	706.87
648.999	709.42
649.446	704.02
649.893	702.37
650.34	707.22
650.787	728.32
651.234	754.67
651.682	813.67
652.129	890.92
652.576	1021.02
653.023	1181.02
653.47	1269.97
653.917	1337.07
654.363	1376.37
654.81	1435.87
655.257	1477.17
655.704	1164.07
656.151	904.67
656.598	784.97
657.044	723.97
657.491	712.02
657.938	694.27
658.385	683.82
658.831	679.82
659.278	673.82
659.724	663.22
660.171	659.07
660.618	640.77
661.064	632.77
661.511	632.02
661.957	635.47
662.404	637.57
662.85	646.62
663.296	652.72
663.743	656.82
664.189	658.32
664.635	659.47
665.082	651.77
665.528	655.12
665.974	637.77
666.42	626.42
666.867	628.57
667.313	586.82
667.759	592.12
668.205	595.72
668.651	595.77
669.097	601.57
669.543	603.27
669.989	615.22
670.435	605.07
670.881	624.92
671.327	656.92
671.773	708.02
672.219	760.77
672.665	823.62
673.11	857.67
673.556	881.32
674.002	916.02
674.448	938.17
674.893	781.22
675.339	670.22
675.785	614.17
676.23	581.62
676.676	558.32
677.122	545.77
677.567	527.37
678.013	506.17
678.458	510.57
678.904	502.57
679.349	502.12
679.794	499.27
680.24	497.37
680.685	493.77
681.131	496.77
681.576	495.12
682.021	499.02
682.466	511.02
682.912	513.92
683.357	532.97
683.802	589.17
684.247	656.27
684.692	693.92
685.137	734.67
685.583	748.87
686.028	802.17
686.473	759.92
686.918	635.37
687.363	578.12
687.807	555.97
688.252	516.72
688.697	503.92
689.142	485.77
689.587	488.52
690.032	495.02
690.477	522.42
690.921	545.72
691.366	577.97
691.811	606.22
692.255	661.97
692.7	799.57
693.145	1160.72
693.589	1790.87
694.034	2186.37
694.478	2361.87
694.923	2203.07
695.367	3204.52
695.812	1902.32
696.256	769.07
696.701	541.37
697.145	497.12
697.59	481.32
698.034	468.67
698.478	469.02
698.922	472.47
699.367	489.12
699.811	514.02
700.255	565.87
700.699	622.02
701.143	679.67
701.588	718.02
702.032	750.02
702.476	779.87
702.92	812.87
703.364	1054.52
703.808	1636.37
704.252	2092.82
704.696	2272.22
705.14	2169.72
705.584	3044.77
706.027	1642.57
706.471	789.32
706.915	576.57
707.359	509.72
707.803	469.27
708.246	454.82
708.69	453.32
709.134	447.62
709.577	446.02
710.021	452.22
710.465	446.57
710.908	442.02
711.352	465.22
711.795	516.37
712.239	558.72
712.682	582.22
713.126	568.17
713.569	642.12
714.012	510.12
714.456	439.02
714.899	419.97
715.342	395.32
715.786	380.97
716.229	370.62
716.672	365.67
717.115	362.22
717.558	366.47
718.002	380.87
718.445	396.72
718.888	421.77
719.331	433.32
719.774	445.67
720.217	434.37
720.66	398.57
721.103	386.07
721.546	354.12
721.989	348.82
722.432	339.17
722.874	349.02
723.317	350.57
723.76	378.57
724.203	468.62
724.645	639.47
725.088	767.27
725.531	766.77
725.974	859.72
726.416	755.02
726.859	445.17
727.301	353.02
727.744	338.12
728.187	342.32
728.629	352.32
729.071	375.67
729.514	387.52
729.956	410.47
730.399	418.52
730.841	417.72
731.283	402.12
731.726	396.27
732.168	392.07
732.61	418.22
733.053	449.97
733.495	506.52
733.937	571.47
734.379	674.22
734.821	850.77
735.263	1364.92
735.705	2449.27
736.148	3678.52
736.59	3790.42
737.032	4221.12
737.474	3448.02
737.916	1282.42
738.357	651.87
738.799	489.17
739.241	449.32
739.683	450.12
740.125	452.07
740.567	471.42
741.008	499.02
741.45	524.92
741.892	542.62
742.334	558.22
742.775	552.82
743.217	521.92
743.658	432.32
744.1	442.42
744.542	501.47
744.983	525.02
745.425	556.82
745.866	544.97
746.307	460.67
746.749	491.42
747.19	720.77
747.632	1421.37
748.073	2688.02
748.514	3804.82
748.956	5172.37
749.397	6130.72
749.838	4182.97
750.279	4088.72
750.72	2054.92
751.162	840.87
751.603	471.82
752.044	370.62
752.485	335.62
752.926	306.72
753.367	297.32
753.808	293.47
754.249	276.42
754.69	278.12
755.131	274.42
755.572	272.17
756.013	273.72
756.453	271.52
756.894	279.42
757.335	282.47
757.776	281.87
758.216	288.12
758.657	309.22
759.098	344.67
759.538	422.17
759.979	617.52
760.42	1228.82
760.86	3159.17
761.301	6836.27
761.741	8363.47
762.182	9919.12
762.622	6305.42
763.063	2177.22
763.503	862.52
763.943	496.17
764.384	395.47
764.824	333.32
765.264	311.62
765.705	293.17
766.145	269.77
766.585	267.62
767.025	253.87
767.465	253.97
767.906	265.07
768.346	280.02
768.786	324.02
769.226	480.07
769.666	983.52
770.106	2244.37
770.546	3309.62
770.986	3872.17
771.426	2933.67
771.866	1173.82
772.306	515.42
772.745	311.27
773.185	254.82
773.625	247.52
774.065	261.47
774.505	360.22
774.944	624.07
775.384	917.37
775.824	1066.62
776.263	895.17
776.703	468.72
777.142	272.07
777.582	206.17
778.021	191.32
778.461	185.82
778.9	187.07
779.34	173.22
779.779	168.92
780.219	164.27
780.658	162.52
781.097	157.02
781.537	159.37
781.976	156.97
782.415	158.97
782.855	152.82
783.294	148.32
783.733	150.92
784.172	159.27
784.611	152.12
785.05	160.87
785.489	165.32
785.928	175.37
786.367	178.02
786.806	185.22
787.245	203.62
787.684	210.37
788.123	209.62
788.562	202.77
789.001	192.12
789.44	187.47
789.879	182.22
790.317	186.87
790.756	200.97
791.195	217.62
791.634	309.42
792.072	560.97
792.511	1409.82
792.95	2688.07
793.388	3375.82
793.827	2205.72
794.265	970.92
794.704	451.62
795.142	273.92
795.581	221.02
796.019	197.92
796.458	199.02
796.896	204.97
797.334	235.52
797.773	321.32
798.211	623.22
798.649	1342.52
799.087	2279.37
799.526	3238.62
799.964	3414.92
800.402	2380.97
800.84	1047.17
801.278	495.57
801.716	293.37
802.154	237.97
802.592	219.37
803.03	222.42
803.468	228.52
803.906	234.52
804.344	223.52
804.782	212.47
805.22	217.62
805.658	226.07
806.096	248.07
806.533	274.32
806.971	349.02
807.409	508.37
807.847	1011.02
808.284	2631.37
808.722	4777.52
809.16	6752.97
809.597	9060.17
810.035	11612.47
810.472	7625.72
810.91	3110.27
811.347	1372.07
811.785	640.67
812.222	401.62
812.66	311.17
813.097	258.02
813.535	222.07
813.972	203.72
814.409	187.82
814.846	175.02
815.284	166.87
815.721	172.92
816.158	180.97
816.595	243.52
817.032	312.62
817.47	279.27
817.907	205.02
818.344	181.07
818.781	175.32
819.218	207.97
819.655	318.07
820.092	421.17
820.529	387.62
820.966	302.67
821.403	206.07
821.839	176.12
822.276	191.67
822.713	237.92
823.15	223.82
823.587	236.82
824.023	429.87
824.46	1091.42
824.897	2002.62
825.333	1593.87
825.77	706.37
826.206	355.22
826.643	206.07
827.08	157.17
827.516	135.17
827.953	121.17
828.389	118.62
828.825	109.57
829.262	109.02
829.698	106.72
830.135	94.27
830.571	97.52
831.007	97.82
831.443	101.42
831.88	98.57
832.316	106.22
832.752	105.12
833.188	107.02
833.624	105.42
834.06	107.72
834.497	103.02
834.933	112.07
835.369	122.07
835.805	131.67
836.241	131.42
836.677	148.42
837.112	169.47
837.548	208.47
837.984	310.42
838.42	674.97
838.856	1923.72
839.292	3955.77
839.727	2978.97
840.163	1907.87
840.599	2881.12
841.034	4638.02
841.47	2343.17
841.906	1094.17
842.341	562.07
842.777	398.67
843.212	409.82
843.648	256.37
844.083	174.27
844.519	131.57
844.954	112.87
845.39	97.62
845.825	98.67
846.261	95.52
846.696	91.32
847.131	81.07
847.566	89.87
848.002	85.02
848.437	95.07
848.872	96.82
849.307	125.12
849.742	228.57
850.177	630.42
850.613	1400.82
851.048	1023.12
851.483	449.37
851.918	243.82
852.353	130.32
852.788	91.42
853.223	84.67
853.657	76.02
854.092	73.57
854.527	69.72
854.962	74.02
855.397	86.87
855.832	71.67
856.266	64.47
856.701	63.97
857.136	67.87
857.57	77.72
858.005	97.97
858.44	84.22
858.874	78.12
859.309	82.17
859.743	80.82
860.178	75.92
860.612	81.42
861.047	116.12
861.481	161.72
861.915	104.47
862.35	81.12
862.784	63.67
863.218	64.17
863.653	70.22
864.087	84.87
864.521	101.82
864.955	179.07
865.39	330.02
865.824	234.17
866.258	281.97
866.692	432.57
867.126	318.27
867.56	168.37
867.994	104.17
868.428	89.07
868.862	107.22
869.296	101.57
869.73	130.12
870.164	107.52
870.598	98.57
871.031	73.17
871.465	63.62
871.899	53.02
872.333	42.12
872.766	48.52
873.2	52.12
873.634	42.47
874.067	48.52
874.501	48.12
874.935	44.97
875.368	51.37
875.802	41.92
876.235	41.37
876.669	40.27
877.102	35.17
877.535	39.77
877.969	35.42
878.402	37.92
878.836	38.22
879.269	38.22
879.702	38.17
880.135	38.87
880.569	34.82
881.002	31.82
881.435	38.27
881.868	33.17
882.301	33.92
882.734	31.32
883.167	33.07
883.601	32.42
884.034	34.12
884.467	30.82
884.899	33.07
885.332	28.82
885.765	29.82
886.198	27.82
886.631	27.57
887.064	33.07
887.497	26.17
887.929	35.27
888.362	30.52
888.795	29.07
889.228	28.62
889.66	29.27
890.093	29.72
890.526	26.32
890.958	29.37
891.391	29.97
891.823	24.87
892.256	26.02
892.688	30.62
893.121	24.92
893.553	28.97
893.985	28.47
894.418	22.52
894.85	27.62
895.282	26.87
895.715	24.77
896.147	24.22
896.579	21.92
897.011	29.57
897.444	28.87
897.876	18.27
898.308	23.32
898.74	24.47
899.172	28.02
899.604	26.07
900.036	28.12
900.468	24.97
900.9	30.22
901.332	37.17
901.764	38.77
902.196	33.22
902.628	36.17
903.06	54.27
903.491	55.82
903.923	46.67
904.355	45.47
904.787	43.17
905.218	36.87
905.65	34.42
906.082	35.67
906.513	34.07
906.945	32.72
907.376	29.97
907.808	32.17
908.239	38.32
908.671	44.27
909.102	47.57
909.534	61.12
909.965	122.52
910.397	311.47
910.828	954.52
911.259	594.57
911.691	306.12
912.122	176.77
912.553	88.57
912.984	44.07
913.415	41.77
913.847	34.32
914.278	30.52
914.709	30.27
915.14	29.62
915.571	29.97
916.002	25.32
916.433	23.22
916.864	24.87
917.295	29.47
917.726	34.67
918.157	40.42
918.587	39.77
919.018	40.32
919.449	39.37
919.88	42.92
920.311	73.37
920.741	196.62
921.172	356.87
921.603	172.72
922.033	105.02
922.464	67.62
922.895	41.42
923.325	27.27
923.756	22.17
924.186	36.62
924.617	48.92
925.047	67.87
925.478	60.32
925.908	41.27
926.338	33.62
926.769	26.27
927.199	29.77
927.629	22.82
928.06	30.82
928.49	23.02
928.92	25.12
929.35	21.27
929.78	18.77
930.21	15.47
930.641	9.57
931.071	17.87
931.501	13.77
931.931	14.37
932.361	15.12
932.791	17.32
933.221	19.77
933.651	26.37
934.08	44.67
934.51	27.42
934.94	21.32
935.37	19.07
935.8	13.87
936.229	9.97
936.659	11.27
937.089	21.92
937.519	37.47
937.948	51.92
938.378	30.62
938.807	19.82
939.237	8.97
939.666	9.77
940.096	5.02
940.525	1.07
940.955	5.32
941.384	5.77
941.814	9.52
942.243	11.37
942.672	5.62
943.102	1.57
943.531	8.72
943.96	3.02
944.39	5.22
944.819	8.17
945.248	7.67
945.677	9.12
946.106	9.47
946.535	6.17
946.964	9.22
947.393	0.47
947.822	3.17
948.251	9.07
948.68	9.12
949.109	1.97
949.538	3.67
949.967	7.87
950.396	4.12
950.825	8.72
951.254	6.57
951.682	2.97
952.111	2.37
952.54	6.17
952.969	4.72
953.397	3.32
953.826	6.57
954.254	10.67
954.683	2.62
955.112	7.82
955.54	5.32
955.969	9.12
956.397	7.52
956.826	4.77
957.254	6.47
957.682	5.32
958.111	8.72
958.539	7.72
958.967	3.22
959.396	10.02
959.824	1.62
960.252	4.87
960.68	6.77
961.109	6.32
961.537	11.42
961.965	-0.88
962.393	4.77
962.821	5.77
963.249	6.12
963.677	10.42
964.105	55.82
964.533	99.07
964.961	47.02
965.389	25.67
965.817	14.22
966.245	5.12
966.672	4.87
967.1	7.97
967.528	-0.48
967.956	-0.03
968.383	2.87
968.811	2.97
969.239	4.47
969.666	2.57
970.094	2.87
970.522	0.42
970.949	3.47
971.377	-0.98
971.804	-1.93
972.232	2.97
972.659	3.47
973.087	5.37
973.514	1.07
973.941	2.97
974.369	-0.88
974.796	3.17
975.223	-0.83
975.651	1.07
976.078	5.07
976.505	11.22
976.932	22.37
977.359	33.17
977.786	21.77
978.214	15.97
978.641	1.52
979.068	3.97
979.495	2.47
979.922	4.07
980.349	5.97
980.776	2.27
981.202	1.92
981.629	7.27
982.056	4.02
982.483	-3.73
982.91	6.02
983.337	-0.18
983.763	7.77
984.19	4.77
984.617	0.77
985.043	3.97
985.47	0.82
985.897	4.17
986.323	0.97
986.75	2.17
987.176	3.17
987.603	1.67
988.029	0.62
988.456	5.07
988.882	-3.08
989.308	-2.88
989.735	-1.98
990.161	1.72
990.587	-2.48
991.014	2.27
991.44	6.37
991.866	1.37
992.292	0.97
992.719	3.77
993.145	3.67
993.571	3.52
993.997	6.97
994.423	5.12
994.849	-2.98
995.275	0.77
995.701	-0.73
996.127	-1.43
996.553	6.02
996.979	-3.48
997.405	2.92
997.83	2.72
998.256	3.27
998.682	3.52
999.108	3.22
999.534	1.02
999.959	-0.38
1000.385	7.87
1000.811	-1.38
1001.236	-4.53
1001.662	-2.83
1002.087	6.92
1002.513	-0.28
1002.938	0.62
1003.364	-0.98
1003.789	3.27
1004.215	0.97
1004.64	1.67
1005.066	3.82
1005.491	3.37
1005.916	3.37
1006.342	3.02
1006.767	4.02
1007.192	7.37
1007.617	4.52
1008.042	1.52
1008.468	1.07
1008.893	5.92
1009.318	8.97
1009.743	7.57
1010.168	18.82
1010.593	19.22
1011.018	9.97
1011.443	4.62
1011.868	7.07
1012.293	3.27
1012.718	-5.38
1013.143	1.87
1013.567	3.77
1013.992	3.02
1014.417	5.67
1014.842	-1.53
1015.267	4.67
1015.691	4.52
1016.116	1.77
1016.541	4.87
1016.965	3.52
1017.39	5.62
1017.814	-1.28
1018.239	0.82
1018.663	-9.43
1019.088	-3.18
1019.512	8.97
1019.937	-1.73
1020.361	4.52
1020.785	0.07
1021.21	-2.13
1021.634	2.27
1022.058	5.47
1022.483	-0.43
1022.907	-1.98
1023.331	1.77
1023.755	-2.18
1024.179	1.52
1024.604	1.47
1025.028	3.97
1025.452	0.07
1025.876	4.97
1026.3	-1.13
1026.724	-2.63
1027.148	1.97
1027.572	0.77
1027.996	5.77
1028.42	-1.03
1028.843	-1.83
1029.267	1.62
1029.691	5.02
1030.115	1.82
1030.539	1.32
1030.962	-4.58
1031.386	1.57
1031.81	0.27
1032.233	-3.88
1032.657	-7.63
1033.08	0.92
1033.504	-1.38
1033.927	2.02
1034.351	-2.08
1034.774	-2.38
1035.198	-4.88
1035.621	0.27
1036.045	-0.63
1036.468	6.62
1036.891	0.62
1037.315	4.82
1037.738	3.77
1038.161	0.72
1038.584	1.12
1039.008	-2.63
1039.431	-0.28
1039.854	-4.38
1040.277	2.62
1040.7	-0.33
1041.123	-0.83
1041.546	1.07
1041.969	1.87
1042.392	3.32
1042.815	-5.18
1043.238	-0.78
1043.661	-0.63
1044.084	-1.08
1044.507	-3.73
1044.93	-0.83
1045.352	3.82
1045.775	1.57
1046.198	7.42
1046.621	1.97
1047.043	-2.93
1047.466	3.12
1047.889	-3.53
1048.311	2.67
1048.734	-3.88
1049.156	-0.53
1049.579	0.57
1050.001	-3.73
1050.424	1.97
1050.846	-3.13
1051.269	-0.48
1051.691	-2.23
1052.113	1.47
1052.536	-4.88
1052.958	-1.68
1053.38	3.37
1053.802	5.32
1054.225	2.82
1054.647	3.22
1055.069	2.12
1055.491	-1.53
1055.913	-0.43
1056.335	-6.98
1056.757	-5.23
1057.179	0.02
1057.601	-6.63
1058.023	4.22
1058.445	-0.43
1058.867	4.02
1059.289	0.57
1059.711	-1.33
1060.133	-0.33
1060.555	-0.68
1060.976	3.02
1061.398	1.27
1061.82	1.37
1062.241	-0.28
1062.663	-0.63
1063.085	-5.88
1063.506	-2.13
1063.928	-0.38
1064.35	-0.88
1064.771	-4.93
1065.193	-3.48
1065.614	-2.33
1066.035	5.67
1066.457	2.42
1066.878	-0.88
1067.3	2.62
1067.721	0.27
1068.142	1.82
1068.564	3.02
1068.985	-0.38
1069.406	-5.43
1069.827	-0.38
1070.248	-0.68
1070.67	-4.98
1071.091	-5.63
1071.512	-2.63
1071.933	-2.33
1072.354	-6.38
1072.775	-0.03
1073.196	1.57
1073.617	-6.03
1074.038	1.92
1074.459	-5.03
1074.88	-4.43
1075.3	-3.53
1075.721	3.17
1076.142	0.47
1076.563	-7.53
1076.983	0.62
1077.404	-8.43
1077.825	-0.08
1078.246	-0.03
1078.666	0.42
1079.087	-4.48
1079.507	-3.48
1079.928	-1.48
1080.348	-3.68
1080.769	-2.03
1081.189	-1.88
1081.61	-7.38
1082.03	3.27
1082.451	-0.68
1082.871	-5.38
1083.291	-3.63
1083.711	-2.13
1084.132	-1.98
1084.552	-0.28
1084.972	-6.83
1085.392	-2.18
1085.813	0.82
1086.233	-3.23
1086.653	0.67
1087.073	-5.38
1087.493	-3.33
1087.913	-3.73
1088.333	-0.98
1088.753	-2.88
1089.173	3.67
1089.593	1.22
1090.013	-3.43
1090.433	-5.08
1090.852	1.27
1091.272	-5.03
1091.692	-1.68
1092.112	-6.18
1092.531	-6.88
1092.951	-2.63
1093.371	-4.78
1093.79	-6.48
1094.21	-4.53
1094.63	-0.83
1095.049	-1.58
1095.469	-7.43
1095.888	3.62
1096.308	1.52
1096.727	-0.08
1097.146	-3.03
1097.566	-2.03
1097.985	-0.88
1098.405	-4.28
1098.824	0.77
1099.243	2.17
1099.662	2.12
1100.082	-1.58
1100.501	0.07
1100.92	3.17
1101.339	2.47
1101.758	6.52
