Data from MSPlasma+Separation6_Subt14_10-12-46-684.txt Node
Date: Fri Jul 21 10:12:46 EDT 2017
User: Ender
Spectrometer: HR+D1039
Trigger mode: 0
Integration Time (sec): 6.430000E-3
Scans to average: 20
Electric dark correction enabled: true
Nonlinearity correction enabled: false
Boxcar width: 0
XAxis mode: Wavelengths
Number of Pixels in Spectrum: 2048
>>>>>Begin Spectral Data<<<<<
187.836	0.75
188.309	0.75
188.782	0.75
189.255	1.3
189.728	2.1
190.201	-1.3
190.674	0.35
191.147	-1.3
191.619	-0.5
192.092	-0.6
192.565	0.05
193.038	0.75
193.511	2
193.984	1.65
194.456	-1.55
194.929	-2.35
195.402	-2.1
195.874	0.8
196.347	0.85
196.82	0.8
197.292	0.35
197.765	-2.05
198.237	1.4
198.71	-5.35
199.182	-0.25
199.655	0.85
200.127	1.2
200.6	2.3
201.072	4.5
201.544	-3.05
202.017	-1.7
202.489	0.7
202.961	0.8
203.433	-4.4
203.906	-2.9
204.378	-0.15
204.85	3.15
205.322	-3.15
205.794	3.9
206.266	-0.2
206.739	1.1
207.211	-1.4
207.683	-0.25
208.155	-1.75
208.627	-3.4
209.099	-1.15
209.57	2.7
210.042	0.45
210.514	-3.5
210.986	2
211.458	-4.8
211.93	-0.4
212.402	-2.9
212.873	-4.05
213.345	-4.35
213.817	-0.4
214.288	-3.65
214.76	-0.65
215.232	0.55
215.703	1.6
216.175	1.9
216.646	0.75
217.118	2.55
217.589	-3.4
218.061	-3.1
218.532	-4.95
219.004	6.8
219.475	-1.35
219.946	1.75
220.418	3.25
220.889	5.35
221.36	6.2
221.832	6.1
222.303	0.3
222.774	1.45
223.245	-0.6
223.717	-0.2
224.188	3.95
224.659	0.45
225.13	-3.45
225.601	1.6
226.072	1.4
226.543	7
227.014	3.65
227.485	10
227.956	1.8
228.427	12.85
228.898	3.6
229.369	4.15
229.839	6.25
230.31	8.95
230.781	8.25
231.252	4.4
231.722	6.55
232.193	1.65
232.664	4.85
233.135	7.95
233.605	4.6
234.076	13.5
234.546	9.4
235.017	9.7
235.487	11.1
235.958	7.7
236.428	15.4
236.899	5.35
237.369	15.6
237.84	12.4
238.31	13.05
238.78	7
239.251	11.3
239.721	6.75
240.191	6.8
240.662	9.85
241.132	11.35
241.602	12.25
242.072	11.8
242.542	8.45
243.013	13.4
243.483	16.95
243.953	11.15
244.423	14.65
244.893	13.55
245.363	14.75
245.833	15.9
246.303	14.45
246.773	17.4
247.243	14
247.712	16.2
248.182	10.5
248.652	18.65
249.122	16.4
249.592	17.15
250.061	14
250.531	14.95
251.001	16.15
251.471	17.65
251.94	18.4
252.41	17.8
252.879	23.15
253.349	20.95
253.818	15.3
254.288	22.9
254.757	20.25
255.227	23.65
255.696	21.05
256.166	29.55
256.635	25.4
257.105	24.2
257.574	26.2
258.043	22.7
258.513	24.15
258.982	22.35
259.451	27.5
259.92	21.55
260.389	26.45
260.859	29.25
261.328	33.7
261.797	21.3
262.266	32.35
262.735	30.75
263.204	24.35
263.673	31.9
264.142	25.9
264.611	33.1
265.08	29.85
265.549	28
266.018	34.4
266.487	32.55
266.955	28.7
267.424	32.65
267.893	35.75
268.362	32.55
268.83	33
269.299	31.85
269.768	34.35
270.236	30.85
270.705	38.8
271.174	38.4
271.642	38.55
272.111	35.65
272.579	37.15
273.048	32.55
273.516	38.4
273.985	35.6
274.453	37.9
274.922	36.3
275.39	36.85
275.858	37.65
276.327	40.8
276.795	38.65
277.263	40.5
277.731	40.85
278.2	43.2
278.668	40.5
279.136	47.25
279.604	42.35
280.072	42.5
280.54	47.2
281.008	47.95
281.477	44.85
281.945	47.35
282.413	44.45
282.881	46.1
283.348	43.65
283.816	44.75
284.284	45.6
284.752	51.35
285.22	54.2
285.688	46.75
286.156	53.9
286.623	46.55
287.091	50.1
287.559	54.9
288.026	56.95
288.494	57.6
288.962	56.6
289.429	52.2
289.897	53.4
290.364	57.35
290.832	56.7
291.3	59.75
291.767	59.5
292.234	59.35
292.702	61.85
293.169	57.5
293.637	58
294.104	62.35
294.571	59.95
295.039	67.7
295.506	55.65
295.973	65
296.44	59.65
296.908	69.5
297.375	64.2
297.842	66.35
298.309	63.45
298.776	68.4
299.243	72
299.71	67.35
300.177	71.2
300.644	65.8
301.111	69.4
301.578	73.35
302.045	70
302.512	67.15
302.979	74.3
303.446	74.75
303.913	76.85
304.379	76.55
304.846	81.75
305.313	87.25
305.78	88.15
306.246	83.15
306.713	83.35
307.18	89.3
307.646	86.15
308.113	83.45
308.579	87.7
309.046	89.45
309.512	84.25
309.979	91.95
310.445	88
310.912	93.65
311.378	97.45
311.845	95.6
312.311	89.3
312.777	98.05
313.244	103.2
313.71	100
314.176	105.65
314.642	101.1
315.109	98.6
315.575	96.8
316.041	101.4
316.507	98.25
316.973	111.85
317.439	108.4
317.905	109.75
318.371	104.55
318.837	108.4
319.303	110.8
319.769	107
320.235	113.9
320.701	114.5
321.167	111.6
321.633	111.95
322.099	106.45
322.564	113.95
323.03	115.7
323.496	114.5
323.962	118.2
324.427	118.7
324.893	119.95
325.359	124.4
325.824	126.35
326.29	127.6
326.755	123.5
327.221	126.25
327.686	135.4
328.152	131.2
328.617	133.7
329.083	133.25
329.548	137.35
330.014	129.85
330.479	138.9
330.944	138.45
331.41	147.6
331.875	134.7
332.34	135.1
332.805	139.5
333.271	136.5
333.736	140.3
334.201	145.5
334.666	150.65
335.131	147.1
335.596	153.7
336.061	149.4
336.526	147.7
336.991	145.1
337.456	142.85
337.921	145.85
338.386	148.1
338.851	143.9
339.316	146.4
339.781	145.05
340.246	154.35
340.711	147.1
341.175	153.75
341.64	155.7
342.105	156.8
342.569	169.2
343.034	165.5
343.499	162
343.963	168.1
344.428	171.7
344.893	171.4
345.357	176.3
345.822	180.45
346.286	178
346.751	183
347.215	188.3
347.679	192.65
348.144	201.6
348.608	199.55
349.073	200.85
349.537	209.25
350.001	206.4
350.465	208.2
350.93	209.1
351.394	211.4
351.858	213.6
352.322	215.6
352.786	213.1
353.25	218
353.715	221.75
354.179	227.7
354.643	238.75
355.107	233
355.571	231
356.035	232.6
356.498	231.7
356.962	225.5
357.426	221
357.89	224.15
358.354	222.7
358.818	221.2
359.281	226.45
359.745	232.95
360.209	226
360.673	226.45
361.136	222.6
361.6	225.6
362.064	226.7
362.527	238.1
362.991	240.35
363.454	233.75
363.918	245.75
364.381	242.95
364.845	239.95
365.308	239.65
365.772	243.95
366.235	244.1
366.698	246.75
367.162	239.7
367.625	244.25
368.088	252.35
368.552	248.7
369.015	248.8
369.478	253.7
369.941	250.35
370.404	258.6
370.867	246.8
371.331	260.35
371.794	259.65
372.257	258.5
372.72	260.85
373.183	265.8
373.646	265.6
374.109	267.1
374.572	269.25
375.035	272.1
375.497	272.8
375.96	278.85
376.423	283.2
376.886	287.25
377.349	292.2
377.811	291.05
378.274	299.1
378.737	293.55
379.199	292.45
379.662	288.95
380.125	298.7
380.587	304.3
381.05	304.45
381.512	313.35
381.975	316.9
382.437	326.75
382.9	320.55
383.362	318.9
383.825	323.6
384.287	323.6
384.75	328.1
385.212	329.8
385.674	334.25
386.136	339.55
386.599	335
387.061	330.75
387.523	333.85
387.985	342.5
388.447	340.15
388.91	341.2
389.372	342.8
389.834	341.35
390.296	339.6
390.758	342.05
391.22	340.9
391.682	340.45
392.144	344
392.606	344.2
393.068	358
393.529	379.3
393.991	385.4
394.453	368.95
394.915	357.6
395.377	341.95
395.838	346.5
396.3	353.25
396.762	357.1
397.224	358.4
397.685	356.85
398.147	363.4
398.608	364.6
399.07	365.95
399.531	365.5
399.993	379.1
400.454	379.3
400.916	378.85
401.377	384.5
401.839	392.4
402.3	394.05
402.762	404.85
403.223	440.2
403.684	436.5
404.145	415.05
404.607	402.05
405.068	391.55
405.529	395.25
405.99	397.45
406.451	407.25
406.913	399.2
407.374	399.65
407.835	397.85
408.296	412
408.757	413.9
409.218	424.4
409.679	430.65
410.14	439.25
410.601	445.35
411.062	450.5
411.522	464.05
411.983	463.8
412.444	470.7
412.905	479.05
413.366	511.6
413.826	536.1
414.287	618.6
414.748	751.6
415.208	763.45
415.669	627.9
416.13	561.9
416.59	557.7
417.051	579.65
417.511	611.9
417.972	666.35
418.432	718.6
418.893	816
419.353	776.25
419.814	574.5
420.274	505.8
420.734	490.6
421.195	513.45
421.655	504.35
422.115	512.8
422.576	513.3
423.036	514.85
423.496	526.45
423.956	552.55
424.416	591.9
424.876	671.7
425.336	669.2
425.797	649.75
426.257	631.75
426.717	581.65
427.177	520.7
427.637	513.9
428.097	529.45
428.556	549.8
429.016	580.45
429.476	576.35
429.936	540.75
430.396	528.35
430.856	538
431.315	540
431.775	591.6
432.235	646.85
432.694	658.9
433.154	599.95
433.614	587.65
434.073	582.85
434.533	528.45
434.993	521.25
435.452	534.3
435.912	532.05
436.371	532.9
436.83	531.2
437.29	532.3
437.749	524.5
438.209	525.6
438.668	545.1
439.127	551.8
439.587	548.3
440.046	537.95
440.505	557.35
440.964	560.9
441.424	582.25
441.883	588.15
442.342	569.45
442.801	546.85
443.26	553.3
443.719	547.05
444.178	549
444.637	563.15
445.096	568.9
445.555	572.05
446.014	570.45
446.473	575.85
446.932	569.6
447.391	581
447.849	589
448.308	578.3
448.767	585.7
449.226	592.5
449.685	601.4
450.143	634.5
450.602	635.25
451.061	592.55
451.519	591.8
451.978	584.25
452.436	581.35
452.895	588.85
453.353	588.2
453.812	573.45
454.27	585.1
454.729	581.6
455.187	593
455.646	596.3
456.104	591.9
456.562	600.85
457.021	598.9
457.479	586.2
457.937	602.95
458.395	620.55
458.854	612.15
459.312	602.5
459.77	611.65
460.228	619.65
460.686	620.8
461.144	630.2
461.602	618.35
462.06	620.85
462.518	636.05
462.976	634.5
463.434	635.4
463.892	647.65
464.35	655.95
464.808	659.4
465.266	679.35
465.724	682.15
466.181	682.45
466.639	674.95
467.097	705.35
467.555	727.85
468.012	717.8
468.47	719.8
468.928	744.95
469.385	772.5
469.843	778.8
470.3	765.8
470.758	788.3
471.215	793.95
471.673	810.95
472.13	835.85
472.588	844.9
473.045	836.3
473.503	843.55
473.96	880.25
474.417	885.4
474.875	917.15
475.332	935.45
475.789	938.45
476.246	955.05
476.704	976.7
477.161	987.05
477.618	977.85
478.075	1008.95
478.532	1037.25
478.989	1069.25
479.446	1119
479.903	1106.6
480.36	1125.45
480.817	1115.85
481.274	1126.7
481.731	1164.9
482.188	1187.95
482.645	1208.3
483.102	1220.55
483.558	1262.9
484.015	1282.65
484.472	1280.15
484.929	1292.9
485.385	1285.25
485.842	1292.3
486.299	1297.5
486.755	1292.85
487.212	1279.5
487.668	1247
488.125	1235.35
488.582	1221.75
489.038	1236.55
489.494	1250.85
489.951	1245.5
490.407	1240.25
490.864	1252.1
491.32	1248.85
491.776	1258.8
492.233	1272.2
492.689	1270.3
493.145	1258.9
493.602	1245.8
494.058	1264.1
494.514	1276.45
494.97	1285.05
495.426	1312.2
495.882	1310.9
496.338	1318.35
496.794	1320.5
497.251	1333.15
497.707	1346.15
498.163	1355.1
498.618	1349.1
499.074	1351.95
499.53	1367.5
499.986	1381.2
500.442	1367.3
500.898	1360.1
501.354	1373.9
501.809	1375.45
502.265	1380
502.721	1382.8
503.177	1384.25
503.632	1385.1
504.088	1401.1
504.543	1414.1
504.999	1433
505.455	1421.25
505.91	1413.8
506.366	1424.25
506.821	1415.7
507.277	1418.6
507.732	1425.35
508.187	1416.8
508.643	1431.15
509.098	1428.5
509.553	1454.8
510.009	1465.65
510.464	1490.8
510.919	1499.95
511.375	1519.7
511.83	1531.35
512.285	1558.55
512.74	1601.25
513.195	1622.95
513.65	1649.15
514.105	1671.4
514.56	1679.6
515.015	1704.55
515.47	1719.9
515.925	1696.25
516.38	1700.35
516.835	1708.45
517.29	1697.35
517.745	1703
518.2	1672.85
518.655	1622
519.109	1607
519.564	1581.8
520.019	1567.7
520.474	1562.85
520.928	1550.95
521.383	1538.8
521.838	1527.15
522.292	1523.4
522.747	1494.4
523.201	1498.3
523.656	1486.3
524.11	1482.65
524.565	1468.2
525.019	1472.35
525.474	1472.05
525.928	1463.3
526.382	1459.25
526.837	1472.3
527.291	1468.35
527.745	1454
528.2	1461.85
528.654	1425.55
529.108	1439.45
529.562	1439.6
530.016	1430.1
530.47	1443.45
530.925	1431.55
531.379	1435.85
531.833	1443.75
532.287	1447.6
532.741	1437.5
533.195	1432.8
533.649	1440.4
534.103	1447.85
534.556	1431.25
535.01	1445.95
535.464	1433.4
535.918	1433.1
536.372	1453.75
536.826	1443.2
537.279	1433.85
537.733	1438.65
538.187	1448.9
538.64	1435.15
539.094	1443.8
539.548	1470.35
540.001	1458.8
540.455	1481.25
540.908	1482.25
541.362	1496.5
541.815	1514.15
542.269	1548.45
542.722	1533.95
543.175	1557.65
543.629	1564.45
544.082	1574.2
544.536	1591.35
544.989	1597.3
545.442	1610.55
545.895	1616.6
546.349	1603.05
546.802	1616.75
547.255	1622.85
547.708	1639.05
548.161	1655.25
548.614	1653.4
549.067	1666.9
549.52	1647.9
549.973	1621.3
550.426	1612.5
550.879	1603.15
551.332	1603.75
551.785	1625
552.238	1624
552.691	1623.5
553.144	1657.6
553.596	1683.65
554.049	1707.7
554.502	1743.2
554.955	1776.7
555.407	1807.95
555.86	1776.25
556.313	1752.05
556.765	1741.25
557.218	1717.4
557.67	1714.85
558.123	1681.45
558.576	1677.45
559.028	1673.45
559.48	1722.8
559.933	1694.1
560.385	1644.5
560.838	1580.1
561.29	1519.15
561.742	1511.25
562.195	1482.05
562.647	1475.75
563.099	1473.55
563.551	1458.45
564.004	1471.25
564.456	1461
564.908	1426.45
565.36	1397.05
565.812	1358
566.264	1351
566.716	1335.5
567.168	1312.45
567.62	1317.4
568.072	1303.25
568.524	1288.6
568.976	1289.45
569.428	1262.5
569.88	1268.7
570.332	1279.2
570.784	1279.05
571.235	1271.55
571.687	1287.3
572.139	1290.4
572.59	1299.2
573.042	1306.75
573.494	1308.55
573.945	1289.2
574.397	1255.25
574.849	1251.5
575.3	1255.7
575.752	1242.4
576.203	1228.65
576.655	1236.4
577.106	1204.25
577.557	1205.35
578.009	1195.75
578.46	1207.95
578.912	1185.3
579.363	1208.25
579.814	1199.9
580.265	1188.5
580.717	1202.1
581.168	1203.3
581.619	1201.85
582.07	1210.25
582.521	1216.4
582.972	1209.5
583.423	1196.2
583.875	1211.5
584.326	1222.8
584.777	1231.2
585.227	1267.45
585.678	1275.95
586.129	1291
586.58	1308.05
587.031	1327.05
587.482	1377.45
587.933	1386
588.384	1394.85
588.834	1382.4
589.285	1364.8
589.736	1358.5
590.186	1370.05
590.637	1356.65
591.088	1311.1
591.538	1305
591.989	1275.25
592.439	1256.8
592.89	1250.4
593.34	1240.95
593.791	1237.85
594.241	1222.1
594.692	1214.85
595.142	1219.75
595.593	1214.1
596.043	1219.95
596.493	1233.8
596.943	1225.9
597.394	1258.05
597.844	1279.9
598.294	1300.75
598.744	1353.05
599.195	1419.85
599.645	1516.4
600.095	1597.6
600.545	1689.05
600.995	1764.85
601.445	1836.3
601.895	1937.15
602.345	2018.2
602.795	1988.75
603.245	1889.75
603.695	1767.05
604.145	1656.45
604.594	1572.7
605.044	1475.95
605.494	1382.25
605.944	1296.95
606.393	1271.4
606.843	1240.25
607.293	1247.15
607.743	1235.35
608.192	1251.6
608.642	1252.45
609.091	1247.2
609.541	1253.35
609.99	1254.25
610.44	1219.65
610.889	1203.5
611.339	1179.4
611.788	1170.6
612.238	1170.8
612.687	1176.8
613.136	1178.75
613.586	1203.35
614.035	1191.6
614.484	1201.35
614.933	1203.9
615.383	1189.6
615.832	1150.3
616.281	1133.15
616.73	1116.6
617.179	1084.85
617.628	1065.35
618.077	1044.55
618.526	1033.75
618.975	1028.45
619.424	1003.15
619.873	1006.75
620.322	1007.85
620.771	992
621.22	977.35
621.669	957.55
622.118	940
622.567	933.35
623.015	916.3
623.464	906.2
623.913	904.05
624.361	906.45
624.81	904.9
625.259	906.75
625.707	892.7
626.156	908.8
626.604	922.75
627.053	930.35
627.501	924.8
627.95	934.35
628.398	944.35
628.847	932.4
629.295	936.1
629.744	922.9
630.192	904.55
630.64	880.25
631.089	869.7
631.537	850.1
631.985	831.65
632.433	831.15
632.881	825.65
633.33	821.4
633.778	822.15
634.226	832.2
634.674	837.45
635.122	840.65
635.57	851.9
636.018	876.1
636.466	865.9
636.914	862.7
637.362	871.65
637.81	893.5
638.258	918
638.705	923.75
639.153	954.3
639.601	969.95
640.049	982.35
640.497	1020
640.944	1045.25
641.392	988.6
641.84	905.35
642.287	856.1
642.735	828.25
643.182	804.95
643.63	792.6
644.078	785.1
644.525	791.5
644.973	799.45
645.42	802.2
645.867	810.55
646.315	804.95
646.762	809.75
647.21	807.9
647.657	814.7
648.104	799.05
648.551	764.5
648.999	759.35
649.446	757.55
649.893	755.7
650.34	770.25
650.787	786.35
651.234	813.65
651.682	878.7
652.129	952.2
652.576	1103.4
653.023	1258.05
653.47	1356.05
653.917	1432.85
654.363	1471
654.81	1538.7
655.257	1588.25
655.704	1250.1
656.151	973.15
656.598	850.4
657.044	781.4
657.491	774.1
657.938	749.5
658.385	734.65
658.831	726.3
659.278	729.95
659.724	721.2
660.171	715.75
660.618	696.55
661.064	678.8
661.511	688.6
661.957	685.9
662.404	695.95
662.85	702.55
663.296	708.4
663.743	707.3
664.189	708.15
664.635	717.6
665.082	711.7
665.528	710.5
665.974	683.95
666.42	686.45
666.867	677.4
667.313	643.2
667.759	641.2
668.205	642
668.651	652.15
669.097	652.25
669.543	655.8
669.989	661.45
670.435	665.1
670.881	671.75
671.327	705.85
671.773	760.15
672.219	830.05
672.665	893.35
673.11	929.55
673.556	955.55
674.002	993.55
674.448	1014.85
674.893	845.25
675.339	722.9
675.785	664
676.23	633.25
676.676	605.45
677.122	587.45
677.567	574.55
678.013	551.75
678.458	544.95
678.904	552.15
679.349	541.8
679.794	545.95
680.24	541.65
680.685	531.45
681.131	531.3
681.576	536.2
682.021	542.2
682.466	549
682.912	547.75
683.357	584.2
683.802	631.95
684.247	704.3
684.692	760.65
685.137	793.4
685.583	820.95
686.028	877.15
686.473	833.35
686.918	699
687.363	627.55
687.807	601.85
688.252	560.85
688.697	541.05
689.142	523.2
689.587	532.55
690.032	537.7
690.477	552.65
690.921	593.1
691.366	624.05
691.811	645.2
692.255	712.8
692.7	864.5
693.145	1243.4
693.589	1913.65
694.034	2331.45
694.478	2551.3
694.923	2408.75
695.367	3524.55
695.812	2072.85
696.256	826.5
696.701	585
697.145	539.6
697.59	520.5
698.034	509.9
698.478	502.95
698.922	516.35
699.367	529.85
699.811	550.4
700.255	604.3
700.699	669
701.143	738.15
701.588	773.25
702.032	822.15
702.476	838.35
702.92	880.7
703.364	1140.3
703.808	1756.8
704.252	2243.6
704.696	2440.85
705.14	2363.3
705.584	3337
706.027	1782.4
706.471	865
706.915	626.75
707.359	554.45
707.803	515.65
708.246	494
708.69	494.95
709.134	479.45
709.577	484
710.021	486.95
710.465	490.4
710.908	481
711.352	500.1
711.795	551.65
712.239	612.45
712.682	620.05
713.126	618.65
713.569	700.35
714.012	555.6
714.456	477.6
714.899	455.35
715.342	433.9
715.786	406.6
716.229	404.25
716.672	390.75
717.115	395.7
717.558	398.15
718.002	412.45
718.445	425.85
718.888	458.1
719.331	463.8
719.774	481.2
720.217	471.65
720.66	441.7
721.103	413.1
721.546	383.15
721.989	381.35
722.432	370.3
722.874	371.2
723.317	375.75
723.76	409.95
724.203	504
724.645	687.95
725.088	834.65
725.531	828.85
725.974	939.9
726.416	824.7
726.859	480.8
727.301	393.35
727.744	371.8
728.187	364.55
728.629	379.45
729.071	402.4
729.514	427.6
729.956	446.7
730.399	450.4
730.841	449.05
731.283	436.65
731.726	425.3
732.168	429.6
732.61	458.55
733.053	496.3
733.495	551.4
733.937	616.55
734.379	725.5
734.821	928.05
735.263	1467
735.705	2626.45
736.148	3979.15
736.59	4120.6
737.032	4608.3
737.474	3760.2
737.916	1389.1
738.357	705.95
738.799	536.1
739.241	488.7
739.683	497.2
740.125	498.55
740.567	507.75
741.008	544.45
741.45	563.6
741.892	579.55
742.334	603.3
742.775	602.6
743.217	573.85
743.658	476
744.1	482.65
744.542	545.35
744.983	571.6
745.425	612.55
745.866	597.2
746.307	499.15
746.749	530.85
747.19	780.3
747.632	1518.75
748.073	2892
748.514	4121.15
748.956	5622.45
749.397	6650.95
749.838	4572.55
750.279	4493.15
750.72	2238.9
751.162	915.6
751.603	508.2
752.044	412.9
752.485	359.1
752.926	335.55
753.367	320.3
753.808	308
754.249	308.55
754.69	295.75
755.131	285.8
755.572	295.8
756.013	296.2
756.453	294.05
756.894	301.35
757.335	304.5
757.776	304.3
758.216	327.85
758.657	338.9
759.098	374.65
759.538	447.4
759.979	660.4
760.42	1323.85
760.86	3412
761.301	7305.75
761.741	9034.8
762.182	10924.65
762.622	6855.3
763.063	2349.5
763.503	936.55
763.943	532.4
764.384	427.8
764.824	367.95
765.264	335.3
765.705	311.75
766.145	300.95
766.585	286.35
767.025	275.75
767.465	278.2
767.906	281.45
768.346	304.15
768.786	350.4
769.226	519.8
769.666	1050.1
770.106	2411.85
770.546	3589
770.986	4252.4
771.426	3217.55
771.866	1273.65
772.306	557
772.745	338.8
773.185	277.75
773.625	269.4
774.065	284.85
774.505	387.05
774.944	672.6
775.384	984.5
775.824	1163.15
776.263	976.5
776.703	505
777.142	294.8
777.582	220.9
778.021	208.3
778.461	192.2
778.9	197.5
779.34	192.75
779.779	186.45
780.219	187.65
780.658	178.35
781.097	178.85
781.537	174.9
781.976	174.75
782.415	172.1
782.855	175.65
783.294	167.2
783.733	162.4
784.172	174.85
784.611	169.8
785.05	176.85
785.489	181.45
785.928	182.65
786.367	191.45
786.806	202.05
787.245	218.25
787.684	226.85
788.123	224.2
788.562	216.2
789.001	202.75
789.44	198.25
789.879	200.1
790.317	197.85
790.756	212.5
791.195	239.15
791.634	335.05
792.072	606.2
792.511	1520.6
792.95	2912.3
793.388	3714.95
793.827	2396.8
794.265	1052.65
794.704	488.75
795.142	296.9
795.581	239.9
796.019	218.3
796.458	212.75
796.896	222.2
797.334	256.35
797.773	349.25
798.211	673.4
798.649	1439.2
799.087	2500.55
799.526	3535.7
799.964	3739.65
800.402	2599.15
800.84	1133.55
801.278	530.85
801.716	319.5
802.154	251.4
802.592	233.7
803.03	242.15
803.468	251.75
803.906	251.4
804.344	241
804.782	236.5
805.22	239.6
805.658	244.8
806.096	259.7
806.533	290.75
806.971	376.25
807.409	551.35
807.847	1099.35
808.284	2856.45
808.722	5215.25
809.16	7334.75
809.597	9793.9
810.035	12684.75
810.472	8315.25
810.91	3376.9
811.347	1492.5
811.785	682.25
812.222	429.85
812.66	329.65
813.097	281.7
813.535	242.9
813.972	216.1
814.409	201.3
814.846	185.55
815.284	179.55
815.721	183.95
816.158	196.95
816.595	264.8
817.032	344.95
817.47	319.35
817.907	223.95
818.344	194.7
818.781	194.15
819.218	229.55
819.655	345.5
820.092	456.35
820.529	421
820.966	327
821.403	228
821.839	194.1
822.276	207.9
822.713	260.3
823.15	246.3
823.587	257.85
824.023	463.95
824.46	1191.55
824.897	2176.75
825.333	1731.25
825.77	762.8
826.206	391.3
826.643	218.55
827.08	162.95
827.516	143.95
827.953	136.45
828.389	125.6
828.825	121.55
829.262	114.5
829.698	109.6
830.135	105.1
830.571	106.85
831.007	107.75
831.443	109.65
831.88	111.1
832.316	111.55
832.752	109.9
833.188	110.65
833.624	113.05
834.06	119.6
834.497	119.8
834.933	113.4
835.369	130.85
835.805	137.5
836.241	136.9
836.677	157.75
837.112	184.45
837.548	230.4
837.984	341.4
838.42	738.2
838.856	2095.05
839.292	4358.95
839.727	3250.4
840.163	2071.65
840.599	3136.1
841.034	5102.65
841.47	2546.1
841.906	1176.25
842.341	609.7
842.777	431.45
843.212	441.9
843.648	276.65
844.083	190.2
844.519	141.8
844.954	124.5
845.39	110
845.825	101.65
846.261	102.3
846.696	97.1
847.131	92.1
847.566	94.3
848.002	96.5
848.437	108.6
848.872	108.95
849.307	137.75
849.742	247.7
850.177	686
850.613	1539.5
851.048	1122.3
851.483	489.45
851.918	260.2
852.353	142.75
852.788	98.9
853.223	95.5
853.657	83.25
854.092	76.6
854.527	77.55
854.962	82.75
855.397	93.8
855.832	76.1
856.266	67.05
856.701	68.3
857.136	70.1
857.57	90.65
858.005	104.45
858.44	92.85
858.874	86.1
859.309	88.85
859.743	88.8
860.178	77.3
860.612	90.95
861.047	125.65
861.481	173.45
861.915	113.35
862.35	85
862.784	67.4
863.218	67.55
863.653	71.25
864.087	86.6
864.521	108.75
864.955	196.4
865.39	357.5
865.824	252.95
866.258	307.1
866.692	477.65
867.126	351.3
867.56	179.55
867.994	115.65
868.428	92.3
868.862	124.65
869.296	115.55
869.73	136.6
870.164	116.35
870.598	109.5
871.031	79.45
871.465	64.65
871.899	54.75
872.333	42.35
872.766	49.1
873.2	45.25
873.634	49.35
874.067	52.2
874.501	56.3
874.935	52.4
875.368	50.7
875.802	47.35
876.235	41.35
876.669	45.55
877.102	38.55
877.535	36.9
877.969	39.7
878.402	43.2
878.836	38.1
879.269	39.25
879.702	38.4
880.135	41.9
880.569	41
881.002	32.7
881.435	40.25
881.868	42.35
882.301	32.4
882.734	36
883.167	38.65
883.601	36.15
884.034	36.8
884.467	30.55
884.899	41.2
885.332	28.4
885.765	35.25
886.198	31.1
886.631	30.35
887.064	31.05
887.497	33.3
887.929	32.3
888.362	32.75
888.795	32.05
889.228	34.3
889.66	32.9
890.093	31.85
890.526	29.2
890.958	33.4
891.391	33.7
891.823	29.45
892.256	32.15
892.688	29.95
893.121	30.6
893.553	34.65
893.985	29.25
894.418	27.8
894.85	27.8
895.282	31.85
895.715	26.6
896.147	24.9
896.579	24.4
897.011	28.35
897.444	30.45
897.876	24.4
898.308	22.05
898.74	27.1
899.172	28.05
899.604	26.2
900.036	26.6
900.468	22.05
900.9	30.25
901.332	40
901.764	38.3
902.196	34.35
902.628	36.7
903.06	51.1
903.491	59.3
903.923	50.4
904.355	49.05
904.787	48.25
905.218	41.6
905.65	38.55
906.082	37.05
906.513	36.15
906.945	38.25
907.376	36.85
907.808	39.6
908.239	39.45
908.671	42.8
909.102	44.1
909.534	66.7
909.965	138.55
910.397	348.65
910.828	1052.25
911.259	636.95
911.691	328.35
912.122	184.1
912.553	96.4
912.984	51.7
913.415	43.35
913.847	36.45
914.278	36.6
914.709	28.6
915.14	30.85
915.571	32.9
916.002	32.45
916.433	30
916.864	31.9
917.295	29.55
917.726	38.2
918.157	45.8
918.587	45.6
919.018	45.45
919.449	38.15
919.88	52.15
920.311	76
920.741	214.45
921.172	395.45
921.603	185.95
922.033	114.6
922.464	76
922.895	45
923.325	25.5
923.756	25.25
924.186	35.05
924.617	50.9
925.047	73
925.478	63.1
925.908	46
926.338	39.45
926.769	27.85
927.199	27.35
927.629	24.1
928.06	27.75
928.49	25.55
928.92	26.1
929.35	20.15
929.78	21.95
930.21	19.7
930.641	13.55
931.071	15.2
931.501	15.75
931.931	12.55
932.361	16.05
932.791	20.9
933.221	18.35
933.651	27.9
934.08	46.95
934.51	29.75
934.94	24.8
935.37	23.3
935.8	15.2
936.229	14.85
936.659	12.6
937.089	23.3
937.519	38.85
937.948	51.95
938.378	28.25
938.807	17.5
939.237	12.5
939.666	11.25
940.096	9.6
940.525	7.25
940.955	14.5
941.384	2.85
941.814	8.15
942.243	8.55
942.672	4
943.102	2.65
943.531	4.6
943.96	7.85
944.39	4.5
944.819	12.1
945.248	10.35
945.677	6.8
946.106	7.85
946.535	8.4
946.964	6.5
947.393	4.7
947.822	4.65
948.251	10.35
948.68	9.95
949.109	8.1
949.538	7.05
949.967	5.3
950.396	1.55
950.825	4.45
951.254	4.85
951.682	2.65
952.111	6.45
952.54	5.6
952.969	2.4
953.397	1
953.826	1.75
954.254	9.45
954.683	1.5
955.112	7.4
955.54	6.3
955.969	2.9
956.397	5.8
956.826	0.65
957.254	3.15
957.682	4.25
958.111	8.85
958.539	9.15
958.967	4.3
959.396	9.75
959.824	6.25
960.252	7.8
960.68	4.9
961.109	9.9
961.537	10.45
961.965	1.4
962.393	1.45
962.821	8.05
963.249	8.35
963.677	7.55
964.105	63.7
964.533	111.95
964.961	51.45
965.389	26.6
965.817	13.55
966.245	9.55
966.672	4.25
967.1	3.1
967.528	2.55
967.956	3.75
968.383	5.9
968.811	0.75
969.239	7.45
969.666	2.2
970.094	4.1
970.522	5.8
970.949	2.2
971.377	-5.5
971.804	1.05
972.232	1.1
972.659	4.95
973.087	5.95
973.514	5.2
973.941	2.8
974.369	-1.6
974.796	2.35
975.223	1.75
975.651	5.6
976.078	4.45
976.505	10.5
976.932	26
977.359	34.6
977.786	20.1
978.214	10.25
978.641	0.45
979.068	4.7
979.495	2.45
979.922	5.15
980.349	6.85
980.776	2.65
981.202	-1.35
981.629	7.55
982.056	1.3
982.483	-5.35
982.91	4
983.337	-0.75
983.763	2.05
984.19	5.4
984.617	-2.8
985.043	5.15
985.47	8.5
985.897	7.25
986.323	5.2
986.75	1.5
987.176	2.65
987.603	4.2
988.029	4.85
988.456	8.65
988.882	1.3
989.308	-3.05
989.735	-3.05
990.161	1.2
990.587	-3.85
991.014	5.3
991.44	2.55
991.866	4.1
992.292	3.35
992.719	1.15
993.145	8.8
993.571	5.85
993.997	6
994.423	3.45
994.849	-4.15
995.275	0.4
995.701	3.1
996.127	-3.15
996.553	-2.15
996.979	-2.55
997.405	7.9
997.83	3.4
998.256	2.15
998.682	2.8
999.108	3.1
999.534	-3.6
999.959	-0.45
1000.385	4.75
1000.811	0.65
1001.236	-2.3
1001.662	0.95
1002.087	2.55
1002.513	3.9
1002.938	-0.05
1003.364	3.3
1003.789	1.55
1004.215	1.9
1004.64	1.5
1005.066	0.55
1005.491	3.4
1005.916	2.55
1006.342	4.25
1006.767	5
1007.192	4.8
1007.617	5.8
1008.042	2.75
1008.468	2.15
1008.893	5.05
1009.318	7.4
1009.743	11.1
1010.168	20.3
1010.593	17.9
1011.018	9.75
1011.443	4.5
1011.868	4.85
1012.293	1.9
1012.718	4.15
1013.143	3.9
1013.567	4
1013.992	2.45
1014.417	3.9
1014.842	-3.85
1015.267	0.55
1015.691	4.5
1016.116	3.15
1016.541	4.1
1016.965	-0.1
1017.39	5.1
1017.814	-1.75
1018.239	-1.15
1018.663	-4.85
1019.088	-0.65
1019.512	3.1
1019.937	-1.6
1020.361	3.2
1020.785	1.8
1021.21	-4
1021.634	0.6
1022.058	1.95
1022.483	-1.55
1022.907	1.2
1023.331	-2.85
1023.755	-2.9
1024.179	3.1
1024.604	-0.6
1025.028	1.95
1025.452	3.5
1025.876	2.9
1026.3	1.05
1026.724	-3.75
1027.148	-0.95
1027.572	1.3
1027.996	2.6
1028.42	1.05
1028.843	-3.9
1029.267	1.3
1029.691	1
1030.115	-0.25
1030.539	0.95
1030.962	-4.55
1031.386	4.05
1031.81	-3.2
1032.233	-2.1
1032.657	-5.9
1033.08	-2.3
1033.504	-2.1
1033.927	-2.5
1034.351	-3.25
1034.774	-1.5
1035.198	-5.6
1035.621	-0.9
1036.045	-3.1
1036.468	4.5
1036.891	1.7
1037.315	3.55
1037.738	-1.2
1038.161	0.8
1038.584	-0.1
1039.008	0.7
1039.431	-1.9
1039.854	-6.65
1040.277	1.7
1040.7	-4.95
1041.123	-0.2
1041.546	-0.3
1041.969	1.45
1042.392	3.65
1042.815	-4.55
1043.238	-2.45
1043.661	-4.4
1044.084	-4.95
1044.507	-1.65
1044.93	0.25
1045.352	0.8
1045.775	-2.25
1046.198	5.45
1046.621	2.2
1047.043	-2.5
1047.466	3.45
1047.889	-0.25
1048.311	-0.95
1048.734	0.4
1049.156	0.25
1049.579	0.15
1050.001	-1.95
1050.424	0.25
1050.846	-3.05
1051.269	-3.05
1051.691	-1.7
1052.113	-1.9
1052.536	-0.9
1052.958	-4.85
1053.38	0.75
1053.802	-0.9
1054.225	1.7
1054.647	2.35
1055.069	1.15
1055.491	2.9
1055.913	-0.5
1056.335	-6.45
1056.757	-3.55
1057.179	1.45
1057.601	-1
1058.023	2
1058.445	-2.8
1058.867	0.5
1059.289	-4.6
1059.711	-2.4
1060.133	-4
1060.555	-2.6
1060.976	-0.25
1061.398	-3.25
1061.82	3.35
1062.241	-3.35
1062.663	-1.25
1063.085	-4.95
1063.506	-3.35
1063.928	-3.5
1064.35	3.75
1064.771	-1.75
1065.193	-2.9
1065.614	-3.15
1066.035	5.2
1066.457	4.65
1066.878	2
1067.3	-0.45
1067.721	5.25
1068.142	2.95
1068.564	1.35
1068.985	-2.45
1069.406	-7.55
1069.827	-0.2
1070.248	-1.35
1070.67	-5.85
1071.091	-7.1
1071.512	-4.75
1071.933	-3.25
1072.354	-6.6
1072.775	-1.35
1073.196	3.7
1073.617	-3.6
1074.038	-0.6
1074.459	-3.4
1074.88	-3.4
1075.3	-1.5
1075.721	0.25
1076.142	-3
1076.563	-2.1
1076.983	-3.15
1077.404	-4.45
1077.825	-1.75
1078.246	-4.2
1078.666	-2.8
1079.087	-4.05
1079.507	-3.85
1079.928	0.2
1080.348	-4.3
1080.769	0.45
1081.189	-0.95
1081.61	-3.5
1082.03	3.05
1082.451	-1.6
1082.871	-1
1083.291	-2.85
1083.711	-3.4
1084.132	-4.5
1084.552	-7.6
1084.972	-6.3
1085.392	-6.15
1085.813	2.8
1086.233	-2.25
1086.653	-2
1087.073	-2.4
1087.493	0.3
1087.913	-1.35
1088.333	-1.55
1088.753	2.55
1089.173	6.75
1089.593	2.4
1090.013	-4.1
1090.433	-6.65
1090.852	-0.05
1091.272	-5.05
1091.692	-1.65
1092.112	-4.55
1092.531	-5.55
1092.951	-0.8
1093.371	-0.9
1093.79	-6.25
1094.21	-2.5
1094.63	-5.35
1095.049	-2.55
1095.469	-6.05
1095.888	1.95
1096.308	-0.95
1096.727	-1.85
1097.146	-3.6
1097.566	-2.3
1097.985	-0.5
1098.405	-1.15
1098.824	0.9
1099.243	0.9
1099.662	-5.05
1100.082	-3.4
1100.501	-1.25
1100.92	2.25
1101.339	2.5
1101.758	2.25
