Data from MSPlasma+Separation6_Subt14_10-12-58-000.txt Node
Date: Fri Jul 21 10:12:58 EDT 2017
User: Ender
Spectrometer: HR+D1039
Trigger mode: 0
Integration Time (sec): 6.430000E-3
Scans to average: 20
Electric dark correction enabled: true
Nonlinearity correction enabled: false
Boxcar width: 0
XAxis mode: Wavelengths
Number of Pixels in Spectrum: 2048
>>>>>Begin Spectral Data<<<<<
187.836	-0
188.309	-0
188.782	-0
189.255	0.95
189.728	2.3
190.201	1.45
190.674	1.25
191.147	-0.05
191.619	-2.85
192.092	-4.05
192.565	-2.75
193.038	1
193.511	2.2
193.984	-0.3
194.456	0.55
194.929	2.2
195.402	-1.45
195.874	-0.4
196.347	3.5
196.82	2.9
197.292	-2.6
197.765	1.45
198.237	-3
198.71	-4.6
199.182	1.2
199.655	2.95
200.127	1.15
200.6	-1.9
201.072	0.45
201.544	-5.1
202.017	4.4
202.489	2.95
202.961	-0.3
203.433	-5.1
203.906	0.6
204.378	-0.7
204.85	5.15
205.322	-0.45
205.794	3.4
206.266	2.35
206.739	-0.35
207.211	4.5
207.683	-0.95
208.155	1.9
208.627	2.1
209.099	1.95
209.57	2
210.042	2.55
210.514	2.25
210.986	-1.25
211.458	1.3
211.93	-1.5
212.402	0.1
212.873	-3.3
213.345	-3.25
213.817	3.25
214.288	-3.75
214.76	2.85
215.232	-3.75
215.703	-0.6
216.175	3.25
216.646	3.4
217.118	2.9
217.589	-0.2
218.061	4.1
218.532	-0.8
219.004	3.15
219.475	-1.3
219.946	3.95
220.418	6.05
220.889	7.95
221.36	4.75
221.832	6.4
222.303	5.3
222.774	1.65
223.245	-0.15
223.717	-0.9
224.188	5.1
224.659	1.7
225.13	-0.5
225.601	1.7
226.072	7
226.543	6.2
227.014	0.35
227.485	5.35
227.956	6.1
228.427	10.7
228.898	7.15
229.369	5.25
229.839	5.6
230.31	8.2
230.781	9.05
231.252	7.65
231.722	7.95
232.193	9.05
232.664	6.7
233.135	3.2
233.605	10.45
234.076	9.6
234.546	4.25
235.017	11.15
235.487	10.1
235.958	7.45
236.428	11.35
236.899	11.1
237.369	12.5
237.84	14.6
238.31	12.2
238.78	5.7
239.251	11.75
239.721	6.55
240.191	10.4
240.662	12.95
241.132	11.8
241.602	11.3
242.072	13.3
242.542	11.1
243.013	11.2
243.483	19.05
243.953	10.3
244.423	16.75
244.893	14.3
245.363	15.85
245.833	14.55
246.303	18.6
246.773	19.2
247.243	11.5
247.712	16.45
248.182	16.5
248.652	22.55
249.122	18.05
249.592	16.15
250.061	15.6
250.531	20.95
251.001	16.2
251.471	20.95
251.94	19.85
252.41	15
252.879	20.35
253.349	25.6
253.818	20.8
254.288	30.25
254.757	22.3
255.227	24.9
255.696	24.95
256.166	28.55
256.635	25.75
257.105	24.4
257.574	28.75
258.043	25.55
258.513	32.5
258.982	24.85
259.451	29.6
259.92	24.4
260.389	28.75
260.859	25.55
261.328	30.9
261.797	29.75
262.266	29.35
262.735	34.85
263.204	24
263.673	33.65
264.142	26.15
264.611	30.15
265.08	33.7
265.549	33.85
266.018	30.5
266.487	34.95
266.955	29.45
267.424	37
267.893	38
268.362	32.15
268.83	36
269.299	38
269.768	38.8
270.236	32.25
270.705	37.6
271.174	38.45
271.642	34.3
272.111	36.8
272.579	38.75
273.048	37.15
273.516	41.3
273.985	41.75
274.453	39.25
274.922	38.9
275.39	35.1
275.858	43.15
276.327	40.05
276.795	40.3
277.263	48.2
277.731	42.55
278.2	47.4
278.668	42.5
279.136	49.8
279.604	50
280.072	45.9
280.54	46.55
281.008	55.45
281.477	48.05
281.945	48.95
282.413	52.85
282.881	47.95
283.348	53.2
283.816	52.5
284.284	57.85
284.752	54.9
285.22	56.75
285.688	55.9
286.156	53.5
286.623	56
287.091	57.05
287.559	59.75
288.026	62.95
288.494	60.25
288.962	61.75
289.429	59.25
289.897	59.65
290.364	58.45
290.832	61.4
291.3	60.65
291.767	57.9
292.234	69.55
292.702	66
293.169	62.7
293.637	64.85
294.104	63.55
294.571	63.05
295.039	66.6
295.506	61.75
295.973	68.75
296.44	62.6
296.908	67.9
297.375	66.55
297.842	69.45
298.309	69.15
298.776	67.4
299.243	71.2
299.71	74.3
300.177	75.6
300.644	72.55
301.111	75.65
301.578	80.05
302.045	70.65
302.512	74.6
302.979	78.3
303.446	79.85
303.913	84.9
304.379	86.25
304.846	87.15
305.313	86.25
305.78	89.95
306.246	87.25
306.713	90.85
307.18	84.45
307.646	89
308.113	86.7
308.579	91.8
309.046	94.7
309.512	96.7
309.979	99.35
310.445	91.8
310.912	95.4
311.378	105
311.845	106.05
312.311	101.9
312.777	100.1
313.244	104.2
313.71	101.15
314.176	110.45
314.642	108.1
315.109	106.8
315.575	105.35
316.041	105.35
316.507	105.7
316.973	113.35
317.439	116.95
317.905	115.95
318.371	115.2
318.837	111.35
319.303	115.75
319.769	113.1
320.235	118.3
320.701	121.1
321.167	119
321.633	116.8
322.099	111.6
322.564	123.3
323.03	123.9
323.496	121.4
323.962	126.3
324.427	125.55
324.893	122.45
325.359	127.8
325.824	133.5
326.29	139.7
326.755	138.3
327.221	121.35
327.686	143.5
328.152	138.75
328.617	141.65
329.083	141.3
329.548	140.5
330.014	138.5
330.479	142.95
330.944	148.3
331.41	146.3
331.875	145.05
332.34	142.05
332.805	147.95
333.271	151.25
333.736	149.15
334.201	148.35
334.666	159.45
335.131	157.2
335.596	159.3
336.061	157.05
336.526	156.95
336.991	151.75
337.456	156.15
337.921	152.65
338.386	150.9
338.851	146.4
339.316	154.05
339.781	148.9
340.246	153.7
340.711	157.35
341.175	162.75
341.64	162.4
342.105	164.9
342.569	174.65
343.034	167.3
343.499	167.3
343.963	178.75
344.428	176.25
344.893	176.75
345.357	184.95
345.822	182.9
346.286	185.35
346.751	187.2
347.215	189.95
347.679	203.15
348.144	210.4
348.608	216.05
349.073	214.25
349.537	216.05
350.001	215.15
350.465	217.5
350.93	211.1
351.394	221.35
351.858	224.15
352.322	226.05
352.786	223.5
353.25	220.55
353.715	228.7
354.179	240.3
354.643	246.2
355.107	245.55
355.571	241.1
356.035	244
356.498	235.5
356.962	237.85
357.426	235.75
357.89	235.35
358.354	227.95
358.818	226.6
359.281	232.5
359.745	235.85
360.209	234.8
360.673	237.55
361.136	229.3
361.6	238.25
362.064	240.75
362.527	246.4
362.991	242.1
363.454	247.55
363.918	251.85
364.381	253.25
364.845	246.6
365.308	248.35
365.772	252.5
366.235	250.2
366.698	252.85
367.162	248.85
367.625	259.95
368.088	262.55
368.552	259.2
369.015	258.15
369.478	260.65
369.941	261.15
370.404	265.7
370.867	261.15
371.331	265.8
371.794	272.45
372.257	272.35
372.72	272.35
373.183	275.6
373.646	275.9
374.109	276.6
374.572	277
375.035	283.05
375.497	284.05
375.96	293.95
376.423	289.6
376.886	298.05
377.349	301.05
377.811	299.7
378.274	305.75
378.737	298.95
379.199	303.3
379.662	298.5
380.125	309.4
380.587	318.15
381.05	319.2
381.512	319.7
381.975	329
382.437	342.7
382.9	330.05
383.362	332.9
383.825	334.55
384.287	341.7
384.75	338.2
385.212	341.25
385.674	347.15
386.136	352.25
386.599	346.4
387.061	343.35
387.523	344.15
387.985	347.65
388.447	359.05
388.91	357.4
389.372	352.1
389.834	356.6
390.296	346.85
390.758	357.55
391.22	349.95
391.682	356.4
392.144	349.6
392.606	351.45
393.068	369.5
393.529	392.15
393.991	400.7
394.453	381.15
394.915	363.2
395.377	354
395.838	365.55
396.3	359.95
396.762	363.45
397.224	364.4
397.685	361.3
398.147	365.8
398.608	371.4
399.07	383.25
399.531	379.35
399.993	390.35
400.454	394.55
400.916	391.4
401.377	404.2
401.839	408.05
402.3	407.95
402.762	430.05
403.223	460.9
403.684	454.7
404.145	427.75
404.607	412.45
405.068	405.45
405.529	408.85
405.99	416.05
406.451	422.85
406.913	405.75
407.374	415.55
407.835	411.75
408.296	427.35
408.757	426.35
409.218	444.75
409.679	446.55
410.14	457.6
410.601	466.05
411.062	468.7
411.522	481.35
411.983	477.4
412.444	484.4
412.905	505.15
413.366	525.95
413.826	549.3
414.287	636.85
414.748	777.45
415.208	800.5
415.669	648.75
416.13	584.1
416.59	581.15
417.051	601.55
417.511	632.3
417.972	684.6
418.432	749.4
418.893	842.95
419.353	807.9
419.814	596.3
420.274	518.35
420.734	517.4
421.195	525.15
421.655	523.5
422.115	529.3
422.576	526.95
423.036	531.25
423.496	545.45
423.956	568.5
424.416	615.15
424.876	696.95
425.336	694.35
425.797	681.3
426.257	656.35
426.717	602.3
427.177	538.75
427.637	533.6
428.097	544.55
428.556	563.5
429.016	600.55
429.476	583.4
429.936	566.25
430.396	549.75
430.856	553.05
431.315	564.2
431.775	601.25
432.235	669.9
432.694	679.6
433.154	622.2
433.614	607.45
434.073	591.25
434.533	547.2
434.993	537
435.452	548
435.912	541.85
436.371	551.45
436.83	551.9
437.29	548.65
437.749	537.5
438.209	549.8
438.668	562.45
439.127	576.5
439.587	566.1
440.046	561.8
440.505	580.85
440.964	586.15
441.424	599.9
441.883	618.35
442.342	589.7
442.801	570.5
443.26	577.4
443.719	565.35
444.178	567
444.637	579.35
445.096	589.95
445.555	593.65
446.014	593.05
446.473	590.15
446.932	583.9
447.391	600.8
447.849	604.6
448.308	603.45
448.767	604.05
449.226	614.9
449.685	626.75
450.143	652.9
450.602	655.1
451.061	614.95
451.519	613.6
451.978	603.65
452.436	603.9
452.895	611.9
453.353	602.9
453.812	600.3
454.27	595
454.729	608.2
455.187	619.95
455.646	618.3
456.104	613.55
456.562	617.75
457.021	633.4
457.479	606.45
457.937	630.9
458.395	639.3
458.854	637.35
459.312	626.45
459.77	625.9
460.228	635.85
460.686	642
461.144	643.6
461.602	636.3
462.06	646.35
462.518	656
462.976	650.8
463.434	662.25
463.892	665.15
464.35	680.55
464.808	684.85
465.266	693.55
465.724	706.6
466.181	706.3
466.639	701.85
467.097	720.6
467.555	750.45
468.012	740.35
468.47	742.55
468.928	770.2
469.385	793.85
469.843	792.75
470.3	782.9
470.758	817.9
471.215	819.45
471.673	836.25
472.13	856.05
472.588	867.2
473.045	861.25
473.503	873.95
473.96	908.5
474.417	906.3
474.875	942.75
475.332	963.75
475.789	969.55
476.246	976.65
476.704	1009.2
477.161	1015
477.618	1021.75
478.075	1033.05
478.532	1065.1
478.989	1105.15
479.446	1151.35
479.903	1140.8
480.36	1161.1
480.817	1149.25
481.274	1171.1
481.731	1202.4
482.188	1221.45
482.645	1244.7
483.102	1257.7
483.558	1289.8
484.015	1309.6
484.472	1316.9
484.929	1329.15
485.385	1322.85
485.842	1332.1
486.299	1348.05
486.755	1330.2
487.212	1323.2
487.668	1286.05
488.125	1276.6
488.582	1271.8
489.038	1276.4
489.494	1284.7
489.951	1283.9
490.407	1292.6
490.864	1285.35
491.32	1290.35
491.776	1305.3
492.233	1321.6
492.689	1311.25
493.145	1297.65
493.602	1285.5
494.058	1308.5
494.514	1320.95
494.97	1330.15
495.426	1349.9
495.882	1351.4
496.338	1356.95
496.794	1372.2
497.251	1380.8
497.707	1402.9
498.163	1390.45
498.618	1390.3
499.074	1386.5
499.53	1414.75
499.986	1421.45
500.442	1410.4
500.898	1400.35
501.354	1424.1
501.809	1412.6
502.265	1412.15
502.721	1426
503.177	1430.65
503.632	1445.85
504.088	1442.6
504.543	1469.35
504.999	1480.6
505.455	1476.85
505.91	1470.2
506.366	1464.55
506.821	1468.95
507.277	1465.05
507.732	1463.65
508.187	1456.35
508.643	1480.25
509.098	1480.4
509.553	1496.75
510.009	1503.9
510.464	1541.1
510.919	1551
511.375	1564.8
511.83	1590.6
512.285	1608.75
512.74	1652.6
513.195	1669.8
513.65	1700.6
514.105	1743.95
514.56	1729.05
515.015	1765.55
515.47	1767.05
515.925	1750.2
516.38	1754.6
516.835	1749.35
517.29	1757.55
517.745	1757.75
518.2	1730.75
518.655	1680.35
519.109	1663.3
519.564	1634.85
520.019	1631.8
520.474	1611.5
520.928	1605.1
521.383	1589.85
521.838	1585.05
522.292	1567.25
522.747	1552.05
523.201	1545.5
523.656	1533.55
524.11	1522.5
524.565	1512.55
525.019	1524.75
525.474	1515.65
525.928	1513.95
526.382	1510.4
526.837	1505.7
527.291	1513.7
527.745	1505.65
528.2	1492.2
528.654	1476.55
529.108	1489.35
529.562	1497.15
530.016	1489.95
530.47	1487.8
530.925	1481.95
531.379	1488.5
531.833	1488.95
532.287	1488.05
532.741	1483.5
533.195	1484.1
533.649	1487.4
534.103	1500.3
534.556	1477.95
535.01	1494.25
535.464	1487.25
535.918	1485.25
536.372	1495.1
536.826	1488.55
537.279	1481.5
537.733	1479.75
538.187	1488.45
538.64	1484.25
539.094	1485.95
539.548	1517.4
540.001	1511.1
540.455	1529.55
540.908	1535.65
541.362	1549.8
541.815	1557.6
542.269	1588
542.722	1583.6
543.175	1608.05
543.629	1625.15
544.082	1638.85
544.536	1651.9
544.989	1644.95
545.442	1665.55
545.895	1659.75
546.349	1666.5
546.802	1671.65
547.255	1679.7
547.708	1683.15
548.161	1702.95
548.614	1704.65
549.067	1714.3
549.52	1704.75
549.973	1680
550.426	1662.7
550.879	1656.75
551.332	1660.1
551.785	1672.4
552.238	1683.55
552.691	1675.55
553.144	1709
553.596	1736.4
554.049	1749.05
554.502	1807.35
554.955	1849.45
555.407	1875.85
555.86	1842.2
556.313	1810.55
556.765	1788.9
557.218	1776.8
557.67	1766.7
558.123	1744.15
558.576	1728
559.028	1740.6
559.48	1767.7
559.933	1753.3
560.385	1690.75
560.838	1630.25
561.29	1577.9
561.742	1570.4
562.195	1532.85
562.647	1521.35
563.099	1511
563.551	1505.65
564.004	1518.6
564.456	1512.5
564.908	1466.9
565.36	1439.4
565.812	1397.3
566.264	1402.1
566.716	1371.7
567.168	1354.9
567.62	1356.15
568.072	1339.25
568.524	1326.55
568.976	1325.1
569.428	1304.6
569.88	1305.35
570.332	1329.85
570.784	1327.6
571.235	1322.75
571.687	1333.7
572.139	1339.7
572.59	1340.4
573.042	1362.4
573.494	1350.65
573.945	1333.3
574.397	1304.65
574.849	1294.1
575.3	1303.15
575.752	1267.65
576.203	1268.8
576.655	1274.55
577.106	1247.5
577.557	1246.45
578.009	1242.1
578.46	1241.3
578.912	1218.9
579.363	1242.75
579.814	1236.85
580.265	1238.6
580.717	1239.2
581.168	1237.35
581.619	1251.9
582.07	1251.75
582.521	1246
582.972	1238.1
583.423	1238
583.875	1248.85
584.326	1263.6
584.777	1282.5
585.227	1305.6
585.678	1329.55
586.129	1332.8
586.58	1356.85
587.031	1376.2
587.482	1412.1
587.933	1429.1
588.384	1437.05
588.834	1422.75
589.285	1415.05
589.736	1406.25
590.186	1418.5
590.637	1402.25
591.088	1363.7
591.538	1339.95
591.989	1319.55
592.439	1302
592.89	1280.2
593.34	1277.75
593.791	1274.7
594.241	1256.3
594.692	1259.95
595.142	1254.9
595.593	1246.2
596.043	1261.5
596.493	1269.7
596.943	1274.45
597.394	1299.8
597.844	1319.6
598.294	1351
598.744	1406.05
599.195	1477.25
599.645	1563.2
600.095	1649.35
600.545	1732.05
600.995	1822.4
601.445	1901.9
601.895	2010.65
602.345	2080.25
602.795	2049.05
603.245	1953.55
603.695	1829.95
604.145	1723.6
604.594	1636.4
605.044	1534.05
605.494	1432.05
605.944	1348.9
606.393	1312.1
606.843	1284.55
607.293	1286.1
607.743	1280.95
608.192	1288.5
608.642	1291.2
609.091	1292.8
609.541	1294.95
609.99	1287.85
610.44	1258.9
610.889	1243.3
611.339	1221.55
611.788	1210.35
612.238	1214.05
612.687	1216.95
613.136	1225.95
613.586	1245.35
614.035	1234.4
614.484	1243.75
614.933	1249.45
615.383	1231.4
615.832	1190.95
616.281	1173.55
616.73	1146.4
617.179	1135.1
617.628	1092.85
618.077	1090.25
618.526	1063.8
618.975	1072.55
619.424	1036.2
619.873	1048.4
620.322	1034.75
620.771	1033.85
621.22	1012.65
621.669	986.75
622.118	973.5
622.567	967.45
623.015	951.65
623.464	953.3
623.913	937.25
624.361	937.95
624.81	931.35
625.259	934.55
625.707	929.35
626.156	941.65
626.604	952
627.053	948.65
627.501	943.05
627.95	959.9
628.398	975.85
628.847	970.15
629.295	960.05
629.744	951.45
630.192	932.05
630.64	920.35
631.089	895.2
631.537	876.35
631.985	854
632.433	856.8
632.881	850.25
633.33	857.2
633.778	852.2
634.226	855.5
634.674	865.9
635.122	870.75
635.57	887
636.018	896.6
636.466	892.65
636.914	885.4
637.362	905.55
637.81	927.6
638.258	943.6
638.705	952.85
639.153	988.4
639.601	1003.7
640.049	1018.4
640.497	1053.45
640.944	1086.95
641.392	1018.75
641.84	934.55
642.287	889.25
642.735	854.6
643.182	839.35
643.63	824.55
644.078	816.55
644.525	811.05
644.973	827.7
645.42	824.35
645.867	829.65
646.315	831.15
646.762	837.3
647.21	836.75
647.657	837.85
648.104	825.2
648.551	799.25
648.999	790.4
649.446	793.5
649.893	781.7
650.34	797.55
650.787	806.55
651.234	838.25
651.682	900.55
652.129	984.35
652.576	1116.85
653.023	1295.75
653.47	1392
653.917	1456.8
654.363	1496.15
654.81	1578.05
655.257	1620.95
655.704	1284.15
656.151	999.35
656.598	876.5
657.044	814.2
657.491	801.75
657.938	768.75
658.385	756.95
658.831	755.3
659.278	747.2
659.724	743.55
660.171	744.2
660.618	710.25
661.064	695.8
661.511	707.7
661.957	712.2
662.404	719.15
662.85	722.7
663.296	737.95
663.743	732.85
664.189	741.25
664.635	741.25
665.082	733.55
665.528	736.15
665.974	709.65
666.42	703.3
666.867	698.9
667.313	670.65
667.759	667.95
668.205	659
668.651	663.1
669.097	667.4
669.543	680
669.989	688.15
670.435	684.5
670.881	687.65
671.327	726.95
671.773	776.65
672.219	852.65
672.665	918.2
673.11	954.8
673.556	985.1
674.002	1031.3
674.448	1044.65
674.893	873.45
675.339	751.75
675.785	688.25
676.23	658.95
676.676	625.75
677.122	606.1
677.567	591.35
678.013	570.65
678.458	568.65
678.904	560.8
679.349	558.8
679.794	560.45
680.24	559.5
680.685	553.25
681.131	558.25
681.576	558.45
682.021	555.1
682.466	568.55
682.912	571.65
683.357	604.85
683.802	659.15
684.247	725.2
684.692	780.5
685.137	822.2
685.583	849
686.028	912.25
686.473	847.5
686.918	715.6
687.363	659.85
687.807	622.85
688.252	591.7
688.697	564.85
689.142	539.3
689.587	546.8
690.032	556
690.477	576.4
690.921	609.35
691.366	642.25
691.811	673.65
692.255	734.05
692.7	895.45
693.145	1281
693.589	1973.35
694.034	2414.05
694.478	2645.25
694.923	2470.65
695.367	3658.2
695.812	2153.3
696.256	858.7
696.701	605.35
697.145	553.35
697.59	536.35
698.034	526.9
698.478	524.35
698.922	524.8
699.367	536.25
699.811	565.05
700.255	627.15
700.699	692.15
701.143	751.95
701.588	805.85
702.032	844
702.476	867.35
702.92	904.95
703.364	1169.6
703.808	1802.15
704.252	2309.25
704.696	2530
705.14	2447.1
705.584	3490.2
706.027	1845.7
706.471	888.8
706.915	644.65
707.359	573.15
707.803	532.2
708.246	505.05
708.69	509.05
709.134	494.25
709.577	496.95
710.021	506
710.465	510.3
710.908	500.05
711.352	520.7
711.795	578.5
712.239	622.9
712.682	637.7
713.126	631
713.569	724.9
714.012	578.75
714.456	491.05
714.899	468.7
715.342	447.95
715.786	430.1
716.229	419.55
716.672	407.85
717.115	404.05
717.558	416.25
718.002	425.05
718.445	452.95
718.888	476.4
719.331	483.15
719.774	499.65
720.217	481.65
720.66	453.1
721.103	429.45
721.546	403.75
721.989	389.6
722.432	383.55
722.874	378
723.317	383.15
723.76	425.65
724.203	525.05
724.645	719.55
725.088	860.75
725.531	861.65
725.974	974
726.416	862.3
726.859	498.9
727.301	398.8
727.744	385.85
728.187	382.05
728.629	398.95
729.071	416.5
729.514	442.65
729.956	452.7
730.399	469.55
730.841	462.85
731.283	455.6
731.726	439.4
732.168	441.85
732.61	470.65
733.053	509.6
733.495	566.45
733.937	640.4
734.379	750.7
734.821	953.65
735.263	1508.2
735.705	2716.3
736.148	4106.8
736.59	4262.6
737.032	4805.2
737.474	3909.35
737.916	1436
738.357	727.8
738.799	551.9
739.241	505.2
739.683	514.5
740.125	516.2
740.567	532
741.008	555.85
741.45	588.35
741.892	622.85
742.334	614.1
742.775	622.8
743.217	590.4
743.658	487.3
744.1	494.45
744.542	561.9
744.983	585.3
745.425	628.9
745.866	624.7
746.307	519.6
746.749	555
747.19	800.7
747.632	1583.65
748.073	2989.8
748.514	4245.3
748.956	5857.35
749.397	6900.2
749.838	4726.15
750.279	4668.3
750.72	2314.15
751.162	940.7
751.603	527.4
752.044	424.4
752.485	379.15
752.926	350.2
753.367	332.35
753.808	317.95
754.249	318.3
754.69	310.15
755.131	305.6
755.572	306.1
756.013	310.9
756.453	304.9
756.894	308.25
757.335	312.6
757.776	315.65
758.216	329.2
758.657	351.45
759.098	389.15
759.538	466.5
759.979	677.35
760.42	1369.95
760.86	3525.3
761.301	7584
761.741	9362.15
762.182	11335
762.622	7131.45
763.063	2426.85
763.503	972.65
763.943	555.5
764.384	444.85
764.824	377.25
765.264	348.05
765.705	329.9
766.145	301.3
766.585	303
767.025	291.3
767.465	289
767.906	288.55
768.346	314.6
768.786	361.55
769.226	537.55
769.666	1091.25
770.106	2494.35
770.546	3703.35
770.986	4436.5
771.426	3336.95
771.866	1320.05
772.306	583.15
772.745	350.65
773.185	291.55
773.625	282.75
774.065	289.65
774.505	396.9
774.944	688.75
775.384	1013.55
775.824	1184.65
776.263	1000
776.703	522.8
777.142	302.55
777.582	230.1
778.021	212.95
778.461	206.2
778.9	206
779.34	199.45
779.779	191.4
780.219	194.95
780.658	186.65
781.097	187.3
781.537	178.5
781.976	179.3
782.415	179.2
782.855	173.05
783.294	175.05
783.733	171.7
784.172	178.05
784.611	175.4
785.05	177.65
785.489	190
785.928	192.55
786.367	198.95
786.806	210.25
787.245	227.5
787.684	234.35
788.123	233.1
788.562	224.1
789.001	214
789.44	208.1
789.879	209.35
790.317	208.6
790.756	217.95
791.195	252.3
791.634	344.1
792.072	625
792.511	1573.1
792.95	3006.6
793.388	3865.65
793.827	2487.7
794.265	1089.25
794.704	505.95
795.142	310.15
795.581	247.6
796.019	224.8
796.458	227.3
796.896	231.6
797.334	270.8
797.773	359.95
798.211	698.2
798.649	1496.95
799.087	2580.85
799.526	3671.2
799.964	3888.95
800.402	2705.9
800.84	1165.4
801.278	554.4
801.716	332.5
802.154	269.8
802.592	249.1
803.03	249.25
803.468	249.45
803.906	263
804.344	252.65
804.782	243.35
805.22	246
805.658	254.1
806.096	272.4
806.533	308.65
806.971	397.5
807.409	562.65
807.847	1133.55
808.284	2953.5
808.722	5407.25
809.16	7592.3
809.597	10141.55
810.035	13140.55
810.472	8652.15
810.91	3488.25
811.347	1544.8
811.785	721.45
812.222	443.4
812.66	345.35
813.097	291.85
813.535	251.85
813.972	231.5
814.409	205.7
814.846	197.55
815.284	191.6
815.721	196.05
816.158	206.5
816.595	277.8
817.032	351.1
817.47	323.4
817.907	226.9
818.344	199.35
818.781	197.35
819.218	237.6
819.655	360.05
820.092	474.85
820.529	431.75
820.966	339.9
821.403	228.7
821.839	201.9
822.276	217.85
822.713	265.95
823.15	251.1
823.587	266.4
824.023	482.05
824.46	1225.25
824.897	2272.7
825.333	1802.15
825.77	794.1
826.206	398.5
826.643	230.95
827.08	172.15
827.516	147.8
827.953	139.75
828.389	132.15
828.825	123.05
829.262	118.85
829.698	116.95
830.135	107.95
830.571	107.75
831.007	111.7
831.443	107.45
831.88	115.15
832.316	114.25
832.752	114.4
833.188	119.9
833.624	121.05
834.06	120.25
834.497	121.35
834.933	119.65
835.369	133.05
835.805	144.8
836.241	146.7
836.677	166.1
837.112	190.65
837.548	238.05
837.984	356.45
838.42	751.5
838.856	2175.65
839.292	4513
839.727	3386.15
840.163	2153.65
840.599	3259.8
841.034	5309.4
841.47	2643.7
841.906	1218.65
842.341	634.85
842.777	456.5
843.212	455.85
843.648	288.7
844.083	196.85
844.519	150.1
844.954	129
845.39	111.1
845.825	106.35
846.261	106.3
846.696	101.05
847.131	95.9
847.566	98.5
848.002	106.9
848.437	111.5
848.872	113.1
849.307	142.5
849.742	255.85
850.177	704.6
850.613	1596.8
851.048	1164.7
851.483	501.85
851.918	272.85
852.353	149.3
852.788	100.3
853.223	99.1
853.657	86
854.092	83.65
854.527	85.25
854.962	86.45
855.397	96.15
855.832	83.65
856.266	74.05
856.701	75.5
857.136	77.4
857.57	92.8
858.005	107.35
858.44	95.35
858.874	88.65
859.309	91.25
859.743	94.95
860.178	89.8
860.612	94.55
861.047	130.3
861.481	181.85
861.915	121.8
862.35	92
862.784	74.2
863.218	69.15
863.653	74.25
864.087	95.35
864.521	115.9
864.955	200.9
865.39	376.45
865.824	263.95
866.258	320.1
866.692	496.45
867.126	358.75
867.56	195.1
867.994	117.8
868.428	102.2
868.862	127.95
869.296	114.6
869.73	145.7
870.164	120.9
870.598	108.55
871.031	81.1
871.465	67.6
871.899	59.7
872.333	51.7
872.766	52.15
873.2	51.6
873.634	51.35
874.067	56.2
874.501	52.45
874.935	62.4
875.368	54.6
875.802	53.05
876.235	51.85
876.669	47.15
877.102	40.85
877.535	43.05
877.969	43.6
878.402	43.95
878.836	45.05
879.269	44.75
879.702	42.55
880.135	42.45
880.569	44.2
881.002	37.55
881.435	40.4
881.868	43.7
882.301	35.95
882.734	38.75
883.167	42.5
883.601	38.35
884.034	40.2
884.467	33.65
884.899	33.15
885.332	35.6
885.765	39.75
886.198	30.4
886.631	37.65
887.064	36.85
887.497	30.05
887.929	34.55
888.362	32.35
888.795	34.55
889.228	34.85
889.66	30.15
890.093	26.45
890.526	31
890.958	34.05
891.391	32.65
891.823	30.2
892.256	36.95
892.688	36.3
893.121	30.5
893.553	41.9
893.985	30.95
894.418	25.75
894.85	36.45
895.282	31.4
895.715	28.3
896.147	29.25
896.579	27.35
897.011	29.45
897.444	32.2
897.876	20.5
898.308	29.4
898.74	30.35
899.172	29.9
899.604	31.15
900.036	29.55
900.468	24.15
900.9	32.6
901.332	42.5
901.764	45.95
902.196	38.1
902.628	42.2
903.06	62.1
903.491	62.05
903.923	48.3
904.355	52.7
904.787	53.7
905.218	47.7
905.65	43.6
906.082	40.9
906.513	35.45
906.945	37.2
907.376	38.75
907.808	35.8
908.239	41.45
908.671	49.55
909.102	48.55
909.534	67.2
909.965	141.6
910.397	354
910.828	1080
911.259	659.65
911.691	344.8
912.122	192.65
912.553	94.1
912.984	55.2
913.415	45.15
913.847	39.9
914.278	38.25
914.709	33.95
915.14	31.05
915.571	30.95
916.002	33.9
916.433	28.45
916.864	33.85
917.295	34.5
917.726	39.2
918.157	46.45
918.587	45.25
919.018	42.3
919.449	43
919.88	52.05
920.311	80.5
920.741	225.7
921.172	407.25
921.603	193.05
922.033	121.55
922.464	78.25
922.895	50.45
923.325	32.1
923.756	27.6
924.186	38.35
924.617	54.45
925.047	75.45
925.478	68.5
925.908	50.1
926.338	37.05
926.769	34
927.199	27.75
927.629	29.35
928.06	32.35
928.49	33.9
928.92	24.95
929.35	21.75
929.78	19.9
930.21	20.95
930.641	16.85
931.071	19.6
931.501	19.3
931.931	16.4
932.361	16.2
932.791	17.95
933.221	21.95
933.651	32.05
934.08	52.45
934.51	34.8
934.94	22.3
935.37	23
935.8	14.25
936.229	14.4
936.659	14.95
937.089	22.35
937.519	43.25
937.948	58.55
938.378	34.95
938.807	18.95
939.237	11.95
939.666	12.1
940.096	9.75
940.525	3.3
940.955	12.05
941.384	11.75
941.814	8.95
942.243	4.8
942.672	2.95
943.102	7.4
943.531	5.2
943.96	4.6
944.39	8.7
944.819	11.05
945.248	10.15
945.677	4.1
946.106	7.55
946.535	10.4
946.964	7.55
947.393	3.9
947.822	5.6
948.251	9.15
948.68	3.15
949.109	4.85
949.538	5.9
949.967	6.7
950.396	4.6
950.825	7.75
951.254	5.55
951.682	0.25
952.111	4
952.54	6.3
952.969	6.85
953.397	3.9
953.826	6.15
954.254	5.6
954.683	7.65
955.112	8.3
955.54	7.55
955.969	5.3
956.397	3.6
956.826	0.15
957.254	5.25
957.682	4.4
958.111	5.8
958.539	10.2
958.967	5.65
959.396	6.2
959.824	6.45
960.252	4.5
960.68	2.25
961.109	11.6
961.537	13.2
961.965	0.5
962.393	7.8
962.821	9
963.249	4.9
963.677	10.55
964.105	68.9
964.533	120.3
964.961	59.5
965.389	25.2
965.817	14.2
966.245	8.9
966.672	1.4
967.1	6.75
967.528	3.95
967.956	4.45
968.383	6.1
968.811	2.5
969.239	7.7
969.666	3.65
970.094	2.35
970.522	2.75
970.949	3.45
971.377	2.75
971.804	3
972.232	1.45
972.659	2.7
973.087	3.1
973.514	-2.45
973.941	-1.9
974.369	1.05
974.796	4.15
975.223	0.8
975.651	7.3
976.078	4.6
976.505	10.95
976.932	29.65
977.359	35.45
977.786	20.25
978.214	18.45
978.641	2.4
979.068	5.9
979.495	6.55
979.922	5.6
980.349	2.3
980.776	1.75
981.202	1.65
981.629	10.5
982.056	4.1
982.483	-1.1
982.91	8.7
983.337	-0.75
983.763	6.55
984.19	9.4
984.617	4.7
985.043	3.6
985.47	6.95
985.897	6.85
986.323	9.6
986.75	4.75
987.176	4.7
987.603	5.05
988.029	2.25
988.456	9.35
988.882	3.15
989.308	-1.65
989.735	0.5
990.161	4.7
990.587	4.55
991.014	1.9
991.44	5.15
991.866	-0.15
992.292	2.55
992.719	5.85
993.145	3.35
993.571	2.85
993.997	7.15
994.423	5.5
994.849	-0
995.275	2.4
995.701	7.15
996.127	-2.75
996.553	3.4
996.979	3.05
997.405	6.85
997.83	5.5
998.256	6.7
998.682	3.1
999.108	4.9
999.534	-0.2
999.959	0.1
1000.385	7.1
1000.811	-1.1
1001.236	-4.85
1001.662	0.6
1002.087	6.55
1002.513	4.65
1002.938	0.8
1003.364	2.85
1003.789	5.45
1004.215	0.8
1004.64	-1.25
1005.066	4.6
1005.491	8.8
1005.916	9.35
1006.342	0.45
1006.767	3.65
1007.192	9.8
1007.617	6.45
1008.042	4.05
1008.468	2.35
1008.893	4.55
1009.318	8.1
1009.743	13.3
1010.168	20.4
1010.593	20.2
1011.018	12.5
1011.443	6.85
1011.868	8.4
1012.293	4.2
1012.718	1.4
1013.143	-2
1013.567	2.3
1013.992	2.75
1014.417	2
1014.842	-0.15
1015.267	1.3
1015.691	5.85
1016.116	2.1
1016.541	3.2
1016.965	2.65
1017.39	5.9
1017.814	-3.4
1018.239	-0.25
1018.663	-3.05
1019.088	-0.1
1019.512	7.9
1019.937	0.3
1020.361	2.8
1020.785	1.5
1021.21	-1.85
1021.634	0.95
1022.058	3.45
1022.483	-3.65
1022.907	-1.1
1023.331	3.15
1023.755	0.65
1024.179	-1.1
1024.604	2.1
1025.028	7.9
1025.452	-0.05
1025.876	7.15
1026.3	-1.7
1026.724	-3.35
1027.148	2.05
1027.572	3.2
1027.996	3.15
1028.42	1.05
1028.843	2
1029.267	2.35
1029.691	8.35
1030.115	-4.1
1030.539	-0.3
1030.962	-1.05
1031.386	1.35
1031.81	1.75
1032.233	0.1
1032.657	-1.2
1033.08	0.5
1033.504	-1.2
1033.927	-1.75
1034.351	-3.6
1034.774	-5.6
1035.198	-1.2
1035.621	4.35
1036.045	2.55
1036.468	6.1
1036.891	-1.35
1037.315	3.1
1037.738	3.5
1038.161	4.2
1038.584	3.8
1039.008	-4.15
1039.431	-1.3
1039.854	-4.35
1040.277	3.4
1040.7	-1.05
1041.123	2.7
1041.546	1.65
1041.969	6.7
1042.392	2.95
1042.815	-3.75
1043.238	-0.75
1043.661	-0.9
1044.084	-1.15
1044.507	-2.2
1044.93	2.6
1045.352	1.45
1045.775	4.2
1046.198	5.9
1046.621	7.05
1047.043	0.25
1047.466	1.35
1047.889	2.3
1048.311	2.6
1048.734	0.9
1049.156	-1.5
1049.579	-2.1
1050.001	0.9
1050.424	0.1
1050.846	-0.7
1051.269	0.15
1051.691	0.45
1052.113	1.25
1052.536	-2.75
1052.958	-2.35
1053.38	4
1053.802	3.25
1054.225	0.2
1054.647	7
1055.069	1.6
1055.491	-1.75
1055.913	0.7
1056.335	-5.95
1056.757	-1.65
1057.179	0.35
1057.601	0.45
1058.023	1.45
1058.445	-7
1058.867	1.55
1059.289	-1.2
1059.711	-0.15
1060.133	4.35
1060.555	-3.45
1060.976	3.8
1061.398	-1.65
1061.82	1.25
1062.241	0.2
1062.663	-0.4
1063.085	-2.85
1063.506	-1.9
1063.928	-2.45
1064.35	1.05
1064.771	-3.7
1065.193	-2.95
1065.614	0.25
1066.035	6.45
1066.457	2.2
1066.878	0.35
1067.3	0.3
1067.721	1.3
1068.142	3.4
1068.564	0.25
1068.985	0.95
1069.406	-11.85
1069.827	0.2
1070.248	-1.6
1070.67	-1.9
1071.091	-2.85
1071.512	-3.6
1071.933	-1.85
1072.354	-7.45
1072.775	-0.95
1073.196	-0.8
1073.617	-4.45
1074.038	-2.2
1074.459	-0.6
1074.88	-2.35
1075.3	3.75
1075.721	2.7
1076.142	-6.15
1076.563	-3.55
1076.983	-0.2
1077.404	-3.4
1077.825	1.1
1078.246	-0.4
1078.666	-0.55
1079.087	0.3
1079.507	3.35
1079.928	-1.4
1080.348	-1.05
1080.769	-0.3
1081.189	1.8
1081.61	-8.85
1082.03	2
1082.451	1.9
1082.871	-4.45
1083.291	-1.2
1083.711	-3.6
1084.132	-3.45
1084.552	-6.5
1084.972	-5.35
1085.392	-3.6
1085.813	-0.45
1086.233	3.3
1086.653	2.35
1087.073	1.85
1087.493	0.85
1087.913	-0.65
1088.333	-2.55
1088.753	4.25
1089.173	1.95
1089.593	0.25
1090.013	-1.9
1090.433	-4.45
1090.852	3.65
1091.272	-5.05
1091.692	2.15
1092.112	-2.75
1092.531	-4.4
1092.951	-2.6
1093.371	-5.35
1093.79	-3.25
1094.21	-5.6
1094.63	0.9
1095.049	4.15
1095.469	-5.65
1095.888	-2
1096.308	-2.35
1096.727	-2.7
1097.146	-4.45
1097.566	-2
1097.985	-3.9
1098.405	3.35
1098.824	0.3
1099.243	-0.8
1099.662	-5.4
1100.082	-4.15
1100.501	-1.45
1100.92	1.9
1101.339	-0
1101.758	2.3
