Data from MSPlasma+Separation6_Subt14_10-13-00-058.txt Node
Date: Fri Jul 21 10:13:00 EDT 2017
User: Ender
Spectrometer: HR+D1039
Trigger mode: 0
Integration Time (sec): 6.430000E-3
Scans to average: 20
Electric dark correction enabled: true
Nonlinearity correction enabled: false
Boxcar width: 0
XAxis mode: Wavelengths
Number of Pixels in Spectrum: 2048
>>>>>Begin Spectral Data<<<<<
187.836	-1.94
188.309	-1.94
188.782	-1.94
189.255	-0.64
189.728	1.56
190.201	-3.79
190.674	1.26
191.147	3.51
191.619	-1.29
192.092	0.76
192.565	-5.29
193.038	2.86
193.511	3.21
193.984	0.21
194.456	0.31
194.929	0.41
195.402	-3.19
195.874	2.06
196.347	2.26
196.82	1.71
197.292	-0.19
197.765	-1.84
198.237	0.21
198.71	-5.94
199.182	-0.39
199.655	1.86
200.127	-0.14
200.6	3.61
201.072	2.66
201.544	-0.84
202.017	0.51
202.489	-0.19
202.961	-0.09
203.433	-4.69
203.906	-0.69
204.378	1.01
204.85	-2.44
205.322	1.86
205.794	5.06
206.266	-1.29
206.739	2.11
207.211	-2.24
207.683	0.71
208.155	2.91
208.627	0.16
209.099	3.76
209.57	3.11
210.042	-0.24
210.514	-4.49
210.986	-3.04
211.458	-1.89
211.93	-1.89
212.402	-3.24
212.873	-3.29
213.345	-1.29
213.817	3.11
214.288	-1.09
214.76	-0.34
215.232	-0.69
215.703	-0.29
216.175	2.86
216.646	-0.34
217.118	3.06
217.589	-4.74
218.061	2.06
218.532	-3.14
219.004	5.16
219.475	2.81
219.946	0.96
220.418	4.46
220.889	0.41
221.36	0.96
221.832	4.31
222.303	-0.79
222.774	1.41
223.245	2.91
223.717	2.71
224.188	5.56
224.659	-1.34
225.13	1.61
225.601	3.26
226.072	7.06
226.543	5.16
227.014	3.86
227.485	5.51
227.956	5.31
228.427	9.41
228.898	4.21
229.369	4.01
229.839	3.86
230.31	9.11
230.781	4.51
231.252	7.11
231.722	8.61
232.193	5.56
232.664	4.01
233.135	2.46
233.605	5.01
234.076	11.21
234.546	9.61
235.017	9.31
235.487	8.16
235.958	10.26
236.428	10.31
236.899	7.16
237.369	15.66
237.84	12.31
238.31	9.56
238.78	0.61
239.251	8.46
239.721	5.61
240.191	9.66
240.662	8.11
241.132	6.61
241.602	9.56
242.072	10.51
242.542	6.81
243.013	13.86
243.483	13.66
243.953	5.81
244.423	14.91
244.893	11.91
245.363	11.71
245.833	12.91
246.303	14.26
246.773	16.66
247.243	12.36
247.712	15.16
248.182	16.46
248.652	14.16
249.122	19.51
249.592	16.01
250.061	14.26
250.531	17.41
251.001	17.11
251.471	19.16
251.94	16.91
252.41	19.86
252.879	17.91
253.349	24.21
253.818	19.46
254.288	21.46
254.757	24.36
255.227	23.36
255.696	21.96
256.166	25.91
256.635	28.16
257.105	25.86
257.574	22.51
258.043	21.36
258.513	24.91
258.982	20.91
259.451	25.11
259.92	23.81
260.389	25.11
260.859	27.76
261.328	27.96
261.797	25.86
262.266	30.16
262.735	30.51
263.204	25.21
263.673	27.71
264.142	27.36
264.611	31.11
265.08	28.51
265.549	31.46
266.018	30.61
266.487	33.26
266.955	27.11
267.424	39.51
267.893	35.21
268.362	32.96
268.83	34.86
269.299	26.76
269.768	32.01
270.236	32.96
270.705	36.01
271.174	35.86
271.642	32.56
272.111	36.81
272.579	33.36
273.048	36.71
273.516	37.51
273.985	34.21
274.453	38.81
274.922	35.91
275.39	36.96
275.858	38.16
276.327	41.46
276.795	37.31
277.263	44.26
277.731	34.56
278.2	47.46
278.668	43.51
279.136	42.16
279.604	43.11
280.072	39.91
280.54	42.81
281.008	47.51
281.477	45.76
281.945	43.51
282.413	46.26
282.881	45.81
283.348	49.46
283.816	48.91
284.284	52.71
284.752	48.51
285.22	49.26
285.688	52.31
286.156	55.01
286.623	50.16
287.091	50.06
287.559	56.11
288.026	56.31
288.494	57.46
288.962	55.96
289.429	56.61
289.897	52.56
290.364	53.31
290.832	59.86
291.3	55.81
291.767	59.46
292.234	58.21
292.702	57.66
293.169	61.86
293.637	59.21
294.104	65.61
294.571	59.66
295.039	64.66
295.506	55.71
295.973	61.11
296.44	63.06
296.908	65.96
297.375	62.91
297.842	65.41
298.309	62.56
298.776	65.36
299.243	68.01
299.71	69.71
300.177	70.46
300.644	64.11
301.111	65.51
301.578	71.86
302.045	70.01
302.512	68.81
302.979	74.21
303.446	75.16
303.913	78.71
304.379	84.06
304.846	78.81
305.313	85.66
305.78	87.66
306.246	80.01
306.713	79.96
307.18	83.66
307.646	87.81
308.113	83.36
308.579	90.01
309.046	87.86
309.512	90.11
309.979	95.51
310.445	85.81
310.912	91.06
311.378	92.96
311.845	93.21
312.311	85.96
312.777	93.06
313.244	99.46
313.71	101.66
314.176	102.36
314.642	101.06
315.109	99.91
315.575	98.91
316.041	101.66
316.507	103.41
316.973	110.41
317.439	104.56
317.905	105.26
318.371	103.16
318.837	110.21
319.303	108.26
319.769	108.91
320.235	115.66
320.701	114.16
321.167	111.76
321.633	109.06
322.099	105.71
322.564	113.41
323.03	112.86
323.496	115.46
323.962	116.21
324.427	117.41
324.893	115.66
325.359	126.16
325.824	124.11
326.29	127.11
326.755	124.36
327.221	124.76
327.686	133.46
328.152	132.01
328.617	135.51
329.083	131.16
329.548	129.06
330.014	133.46
330.479	138.51
330.944	139.31
331.41	141.21
331.875	132.31
332.34	131.36
332.805	143.71
333.271	143.91
333.736	139.16
334.201	138.36
334.666	156.96
335.131	150.61
335.596	148.96
336.061	147.91
336.526	145.46
336.991	142.56
337.456	144.61
337.921	143.46
338.386	141.06
338.851	144.46
339.316	143.31
339.781	143.41
340.246	150.91
340.711	149.81
341.175	151.01
341.64	155.46
342.105	159.16
342.569	164.01
343.034	154.31
343.499	161.76
343.963	173.86
344.428	172.31
344.893	166.21
345.357	177.66
345.822	174.76
346.286	178.06
346.751	172.91
347.215	179.56
347.679	190.71
348.144	196.81
348.608	203.66
349.073	202.26
349.537	205.31
350.001	206.61
350.465	206.51
350.93	207.56
351.394	207.31
351.858	205.41
352.322	213.41
352.786	214.21
353.25	208.11
353.715	213.01
354.179	227.11
354.643	238.26
355.107	228.71
355.571	227.66
356.035	227.71
356.498	225.91
356.962	223.96
357.426	215.91
357.89	218.96
358.354	219.56
358.818	215.71
359.281	224.51
359.745	220.66
360.209	219.81
360.673	221.21
361.136	224.26
361.6	224.31
362.064	228.26
362.527	238.61
362.991	233.81
363.454	238.11
363.918	237.31
364.381	241.46
364.845	239.26
365.308	237.51
365.772	240.26
366.235	243.81
366.698	234.66
367.162	236.41
367.625	239.76
368.088	245.81
368.552	246.11
369.015	245.76
369.478	248.51
369.941	251.06
370.404	251.51
370.867	248.41
371.331	249.01
371.794	256.51
372.257	259.46
372.72	256.01
373.183	257.46
373.646	262.01
374.109	265.11
374.572	264.31
375.035	267.21
375.497	270.41
375.96	274.06
376.423	272.86
376.886	278.56
377.349	284.26
377.811	283.46
378.274	285.96
378.737	283.51
379.199	282.61
379.662	287.01
380.125	294.71
380.587	296.36
381.05	302.81
381.512	301.96
381.975	313.36
382.437	319.06
382.9	317.36
383.362	319.61
383.825	315.96
384.287	324.01
384.75	320.26
385.212	328.31
385.674	330.56
386.136	335.36
386.599	326.91
387.061	319.11
387.523	331.36
387.985	332.86
388.447	333.71
388.91	337.51
389.372	342.46
389.834	338.81
390.296	336.66
390.758	333.61
391.22	335.31
391.682	336.01
392.144	339.91
392.606	345.21
393.068	352.61
393.529	371.81
393.991	384.36
394.453	353.26
394.915	345.31
395.377	340.51
395.838	348.41
396.3	344.11
396.762	342.11
397.224	349.81
397.685	341.31
398.147	348.06
398.608	361.11
399.07	358.96
399.531	364.01
399.993	372.46
400.454	372.51
400.916	373.26
401.377	378.26
401.839	388.51
402.3	387.36
402.762	403.36
403.223	438.01
403.684	430.81
404.145	406.51
404.607	396.41
405.068	391.11
405.529	391.96
405.99	394.16
406.451	400.11
406.913	389.46
407.374	396.26
407.835	394.31
408.296	407.41
408.757	406.46
409.218	416.36
409.679	432.61
410.14	427.16
410.601	445.31
411.062	448.86
411.522	453.31
411.983	449.86
412.444	459.31
412.905	479.31
413.366	496.81
413.826	523.66
414.287	604.61
414.748	746.01
415.208	756.61
415.669	618.86
416.13	555.16
416.59	545.01
417.051	575.36
417.511	601.21
417.972	652.56
418.432	702.46
418.893	788.86
419.353	755.16
419.814	566.21
420.274	499.11
420.734	484.31
421.195	498.61
421.655	498.36
422.115	506.96
422.576	505.56
423.036	503.41
423.496	532.16
423.956	544.76
424.416	589.56
424.876	661.76
425.336	654.56
425.797	631.06
426.257	622.11
426.717	567.11
427.177	522.06
427.637	510.51
428.097	525.06
428.556	531.86
429.016	574.56
429.476	561.36
429.936	529.16
430.396	519.66
430.856	518.51
431.315	536.41
431.775	579.71
432.235	630.91
432.694	643.21
433.154	590.96
433.614	575.31
434.073	563.66
434.533	516.31
434.993	508.81
435.452	519.76
435.912	517.31
436.371	524.76
436.83	525.41
437.29	525.76
437.749	518.86
438.209	524.61
438.668	531.36
439.127	547.66
439.587	542.81
440.046	538.71
440.505	552.66
440.964	554.66
441.424	575.21
441.883	585.96
442.342	560.46
442.801	534.51
443.26	554.16
443.719	541.96
444.178	538.81
444.637	548.76
445.096	559.66
445.555	564.71
446.014	566.96
446.473	556.26
446.932	566.51
447.391	571.91
447.849	577.26
448.308	575.11
448.767	581.11
449.226	587.71
449.685	603.91
450.143	630.31
450.602	622.51
451.061	588.81
451.519	591.01
451.978	576.91
452.436	579.11
452.895	583.66
453.353	580.46
453.812	570.16
454.27	566.56
454.729	572.16
455.187	582.51
455.646	585.91
456.104	587.56
456.562	588.86
457.021	601.71
457.479	575.51
457.937	596.96
458.395	611.41
458.854	603.41
459.312	593.86
459.77	609.21
460.228	603.76
460.686	612.26
461.144	613.76
461.602	608.41
462.06	614.06
462.518	624.81
462.976	625.61
463.434	635.11
463.892	644.16
464.35	651.76
464.808	659.36
465.266	670.91
465.724	670.56
466.181	678.71
466.639	677.86
467.097	692.56
467.555	717.01
468.012	714.86
468.47	712.51
468.928	745.31
469.385	749.41
469.843	757.46
470.3	757.71
470.758	779.86
471.215	788.06
471.673	798.31
472.13	812.71
472.588	831.61
473.045	835.41
473.503	837.51
473.96	874.56
474.417	878.11
474.875	900.21
475.332	916.46
475.789	931.36
476.246	941.76
476.704	969.21
477.161	974.56
477.618	975.71
478.075	991.76
478.532	1025.96
478.989	1051.46
479.446	1097.41
479.903	1092.16
480.36	1109.66
480.817	1118.36
481.274	1119.66
481.731	1158.01
482.188	1170.56
482.645	1200.16
483.102	1218.01
483.558	1248.66
484.015	1278.66
484.472	1277.16
484.929	1284.11
485.385	1277.26
485.842	1285.71
486.299	1291.71
486.755	1291.21
487.212	1267.61
487.668	1234.21
488.125	1222.66
488.582	1205.71
489.038	1229.11
489.494	1235.56
489.951	1240.16
490.407	1236.61
490.864	1247.01
491.32	1237.01
491.776	1246.01
492.233	1260.61
492.689	1255.21
493.145	1238.91
493.602	1240.36
494.058	1259.21
494.514	1279.81
494.97	1269.41
495.426	1295.71
495.882	1305.31
496.338	1305.06
496.794	1320.11
497.251	1315.46
497.707	1330.36
498.163	1336.46
498.618	1341.96
499.074	1347.71
499.53	1359.81
499.986	1367.51
500.442	1366.71
500.898	1337.56
501.354	1347.26
501.809	1365.61
502.265	1369.31
502.721	1384.81
503.177	1377.11
503.632	1372.31
504.088	1389.66
504.543	1411.71
504.999	1417.16
505.455	1418.16
505.91	1407.66
506.366	1414.76
506.821	1406.01
507.277	1404.11
507.732	1406.21
508.187	1401.16
508.643	1421.51
509.098	1425.71
509.553	1440.56
510.009	1457.21
510.464	1487.81
510.919	1495.06
511.375	1520.16
511.83	1522.61
512.285	1559.11
512.74	1591.51
513.195	1612.31
513.65	1637.66
514.105	1667.01
514.56	1669.76
515.015	1701.51
515.47	1703.96
515.925	1692.31
516.38	1683.86
516.835	1688.81
517.29	1693.51
517.745	1690.81
518.2	1667.06
518.655	1631.96
519.109	1598.66
519.564	1571.81
520.019	1566.26
520.474	1556.56
520.928	1540.36
521.383	1526.91
521.838	1525.46
522.292	1509.46
522.747	1492.96
523.201	1497.16
523.656	1472.86
524.11	1468.66
524.565	1464.51
525.019	1465.86
525.474	1450.31
525.928	1454.11
526.382	1451.71
526.837	1454.36
527.291	1454.11
527.745	1442.46
528.2	1439.51
528.654	1422.86
529.108	1436.71
529.562	1428.66
530.016	1437.76
530.47	1422.81
530.925	1426.26
531.379	1427.76
531.833	1437.51
532.287	1444.21
532.741	1434.26
533.195	1434.41
533.649	1443.06
534.103	1441.86
534.556	1433.56
535.01	1444.41
535.464	1426.66
535.918	1429.51
536.372	1437.41
536.826	1431.46
537.279	1433.71
537.733	1425.16
538.187	1429.66
538.64	1440.36
539.094	1441.91
539.548	1465.06
540.001	1463.11
540.455	1470.06
540.908	1481.06
541.362	1493.31
541.815	1494.41
542.269	1529.86
542.722	1537.86
543.175	1552.91
543.629	1554.41
544.082	1562.36
544.536	1583.71
544.989	1589.66
545.442	1602.91
545.895	1607.91
546.349	1612.91
546.802	1601.91
547.255	1609.61
547.708	1621.11
548.161	1636.21
548.614	1654.91
549.067	1656.26
549.52	1644.21
549.973	1616.71
550.426	1607.51
550.879	1595.26
551.332	1595.51
551.785	1606.76
552.238	1617.36
552.691	1621.01
553.144	1653.91
553.596	1676.96
554.049	1705.61
554.502	1743.11
554.955	1775.76
555.407	1805.81
555.86	1769.91
556.313	1751.51
556.765	1730.71
557.218	1703.26
557.67	1706.46
558.123	1683.61
558.576	1676.96
559.028	1671.81
559.48	1698.86
559.933	1695.56
560.385	1633.96
560.838	1568.46
561.29	1514.96
561.742	1511.16
562.195	1482.16
562.647	1461.91
563.099	1460.66
563.551	1456.16
564.004	1477.56
564.456	1462.56
564.908	1429.41
565.36	1386.86
565.812	1355.16
566.264	1345.86
566.716	1330.66
567.168	1311.01
567.62	1304.21
568.072	1294.86
568.524	1279.01
568.976	1276.96
569.428	1266.36
569.88	1263.66
570.332	1277.26
570.784	1270.26
571.235	1264.56
571.687	1286.76
572.139	1286.86
572.59	1297.46
573.042	1306.36
573.494	1308.86
573.945	1288.86
574.397	1247.21
574.849	1246.11
575.3	1251.26
575.752	1234.16
576.203	1222.01
576.655	1230.81
577.106	1207.06
577.557	1200.41
578.009	1196.21
578.46	1208.31
578.912	1188.31
579.363	1189.56
579.814	1200.01
580.265	1199.06
580.717	1200.16
581.168	1199.01
581.619	1202.11
582.07	1212.81
582.521	1210.86
582.972	1207.81
583.423	1205.46
583.875	1206.26
584.326	1223.76
584.777	1242.46
585.227	1257.81
585.678	1273.81
586.129	1285.21
586.58	1294.11
587.031	1327.11
587.482	1369.86
587.933	1377.76
588.384	1376.06
588.834	1367.06
589.285	1359.26
589.736	1358.61
590.186	1370.51
590.637	1352.91
591.088	1318.26
591.538	1283.31
591.989	1273.91
592.439	1254.76
592.89	1248.06
593.34	1234.71
593.791	1232.66
594.241	1213.11
594.692	1214.71
595.142	1214.26
595.593	1218.96
596.043	1224.91
596.493	1222.36
596.943	1227.46
597.394	1263.01
597.844	1274.91
598.294	1307.11
598.744	1348.36
599.195	1422.71
599.645	1507.21
600.095	1597.26
600.545	1669.36
600.995	1756.11
601.445	1834.71
601.895	1942.71
602.345	2010.61
602.795	1965.71
603.245	1894.11
603.695	1768.06
604.145	1656.11
604.594	1569.61
605.044	1478.11
605.494	1382.41
605.944	1294.76
606.393	1263.51
606.843	1237.96
607.293	1241.26
607.743	1235.46
608.192	1250.81
608.642	1252.71
609.091	1252.31
609.541	1247.36
609.99	1243.91
610.44	1217.06
610.889	1201.26
611.339	1173.21
611.788	1159.21
612.238	1172.31
612.687	1174.66
613.136	1177.41
613.586	1199.86
614.035	1189.96
614.484	1196.61
614.933	1199.01
615.383	1176.16
615.832	1153.21
616.281	1135.11
616.73	1108.71
617.179	1085.76
617.628	1063.26
618.077	1039.76
618.526	1033.86
618.975	1027.41
619.424	1008.41
619.873	1015.11
620.322	994.56
620.771	987.91
621.22	977.61
621.669	959.11
622.118	950.41
622.567	939.36
623.015	920.01
623.464	916.31
623.913	901.46
624.361	906.51
624.81	895.76
625.259	897.81
625.707	902.31
626.156	897.11
626.604	918.11
627.053	924.01
627.501	919.46
627.95	929.51
628.398	945.46
628.847	930.71
629.295	923.81
629.744	926.31
630.192	901.81
630.64	880.86
631.089	868.91
631.537	838.26
631.985	826.61
632.433	822.66
632.881	818.66
633.33	826.86
633.778	820.31
634.226	829.51
634.674	833.11
635.122	840.76
635.57	858.11
636.018	867.86
636.466	867.71
636.914	864.31
637.362	876.71
637.81	898.61
638.258	928.06
638.705	929.56
639.153	959.11
639.601	961.91
640.049	982.66
640.497	1014.21
640.944	1043.96
641.392	982.46
641.84	898.81
642.287	859.01
642.735	823.61
643.182	808.66
643.63	798.51
644.078	785.21
644.525	786.11
644.973	803.16
645.42	795.56
645.867	804.21
646.315	798.21
646.762	812.46
647.21	807.56
647.657	815.36
648.104	803.06
648.551	762.31
648.999	762.21
649.446	761.66
649.893	760.56
650.34	760.71
650.787	781.71
651.234	814.86
651.682	865.91
652.129	955.81
652.576	1086.91
653.023	1248.11
653.47	1353.76
653.917	1410.96
654.363	1458.71
654.81	1529.36
655.257	1572.61
655.704	1243.21
656.151	971.41
656.598	850.16
657.044	781.16
657.491	770.36
657.938	749.61
658.385	738.66
658.831	735.11
659.278	733.86
659.724	724.31
660.171	710.71
660.618	693.06
661.064	679.81
661.511	684.51
661.957	688.76
662.404	686.16
662.85	702.01
663.296	701.86
663.743	699.21
664.189	708.76
664.635	718.11
665.082	711.16
665.528	708.21
665.974	680.91
666.42	685.96
666.867	680.61
667.313	644.26
667.759	640.16
668.205	639.51
668.651	648.71
669.097	651.76
669.543	649.56
669.989	664.06
670.435	656.36
670.881	669.71
671.327	709.71
671.773	757.81
672.219	822.76
672.665	879.56
673.11	930.71
673.556	947.96
674.002	992.56
674.448	1006.81
674.893	837.41
675.339	719.91
675.785	666.91
676.23	628.06
676.676	600.76
677.122	589.41
677.567	569.66
678.013	547.16
678.458	551.36
678.904	548.06
679.349	542.46
679.794	541.76
680.24	539.26
680.685	532.91
681.131	537.21
681.576	543.86
682.021	537.26
682.466	543.91
682.912	556.46
683.357	587.66
683.802	641.86
684.247	708.21
684.692	747.91
685.137	797.06
685.583	813.51
686.028	866.76
686.473	824.46
686.918	697.06
687.363	628.96
687.807	592.81
688.252	565.61
688.697	547.91
689.142	526.36
689.587	528.61
690.032	540.26
690.477	563.06
690.921	589.51
691.366	628.61
691.811	647.51
692.255	710.81
692.7	866.61
693.145	1240.91
693.589	1914.86
694.034	2322.21
694.478	2553.51
694.923	2387.01
695.367	3513.76
695.812	2064.21
696.256	831.76
696.701	586.31
697.145	541.46
697.59	516.21
698.034	511.06
698.478	508.06
698.922	509.01
699.367	521.31
699.811	551.56
700.255	602.66
700.699	666.21
701.143	732.71
701.588	778.96
702.032	818.76
702.476	833.61
702.92	876.76
703.364	1133.46
703.808	1754.81
704.252	2242.06
704.696	2421.46
705.14	2345.36
705.584	3328.21
706.027	1779.71
706.471	858.86
706.915	627.66
707.359	550.91
707.803	515.11
708.246	494.66
708.69	488.21
709.134	478.41
709.577	487.36
710.021	487.66
710.465	483.86
710.908	476.41
711.352	501.51
711.795	555.26
712.239	600.36
712.682	623.66
713.126	610.51
713.569	701.96
714.012	557.06
714.456	479.46
714.899	448.51
715.342	432.31
715.786	414.41
716.229	403.01
716.672	391.11
717.115	391.91
717.558	395.16
718.002	412.06
718.445	432.41
718.888	458.71
719.331	460.61
719.774	478.56
720.217	470.11
720.66	436.46
721.103	415.41
721.546	389.26
721.989	373.46
722.432	372.01
722.874	365.76
723.317	370.56
723.76	409.16
724.203	500.01
724.645	690.31
725.088	830.71
725.531	818.56
725.974	929.56
726.416	831.91
726.859	481.21
727.301	383.96
727.744	368.46
728.187	370.16
728.629	379.71
729.071	399.86
729.514	422.96
729.956	445.81
730.399	449.36
730.841	454.71
731.283	434.36
731.726	421.86
732.168	430.86
732.61	454.61
733.053	489.36
733.495	546.21
733.937	607.21
734.379	727.61
734.821	925.06
735.263	1470.56
735.705	2627.41
736.148	3959.86
736.59	4093.26
737.032	4617.06
737.474	3752.76
737.916	1386.71
738.357	699.56
738.799	532.06
739.241	487.26
739.683	491.06
740.125	496.31
740.567	504.61
741.008	537.91
741.45	563.21
741.892	583.06
742.334	594.56
742.775	600.41
743.217	573.56
743.658	471.01
744.1	477.16
744.542	541.16
744.983	573.61
745.425	609.41
745.866	602.21
746.307	497.51
746.749	534.61
747.19	780.91
747.632	1539.81
748.073	2897.56
748.514	4094.01
748.956	5610.96
749.397	6642.21
749.838	4542.61
750.279	4454.36
750.72	2234.56
751.162	913.86
751.603	510.91
752.044	407.11
752.485	364.96
752.926	339.71
753.367	321.71
753.808	310.41
754.249	310.86
754.69	296.61
755.131	297.36
755.572	296.91
756.013	299.01
756.453	292.86
756.894	301.81
757.335	297.71
757.776	303.91
758.216	322.76
758.657	340.51
759.098	368.36
759.538	452.26
759.979	664.96
760.42	1330.66
760.86	3410.31
761.301	7333.36
761.741	9004.76
762.182	10872.81
762.622	6838.81
763.063	2340.86
763.503	941.31
763.943	544.41
764.384	424.06
764.824	365.26
765.264	335.86
765.705	315.06
766.145	293.26
766.585	286.51
767.025	274.21
767.465	279.46
767.906	280.41
768.346	299.91
768.786	352.66
769.226	513.66
769.666	1061.41
770.106	2413.71
770.546	3579.96
770.986	4239.31
771.426	3190.01
771.866	1275.66
772.306	555.86
772.745	337.26
773.185	278.76
773.625	268.96
774.065	281.96
774.505	392.01
774.944	681.11
775.384	987.06
775.824	1150.31
776.263	969.11
776.703	505.51
777.142	296.46
777.582	224.86
778.021	205.31
778.461	197.06
778.9	201.86
779.34	195.96
779.779	183.81
780.219	181.21
780.658	177.26
781.097	174.71
781.537	174.56
781.976	171.71
782.415	169.51
782.855	168.96
783.294	167.66
783.733	163.26
784.172	168.26
784.611	169.81
785.05	179.96
785.489	180.06
785.928	186.41
786.367	193.26
786.806	204.11
787.245	222.86
787.684	226.26
788.123	227.56
788.562	215.66
789.001	204.51
789.44	205.36
789.879	208.56
790.317	202.61
790.756	216.11
791.195	245.26
791.634	330.66
792.072	606.56
792.511	1519.61
792.95	2915.26
793.388	3696.41
793.827	2404.81
794.265	1046.51
794.704	488.66
795.142	290.91
795.581	238.86
796.019	215.91
796.458	219.46
796.896	223.31
797.334	260.51
797.773	347.36
798.211	674.51
798.649	1447.31
799.087	2492.06
799.526	3532.46
799.964	3737.71
800.402	2604.56
800.84	1128.51
801.278	532.71
801.716	320.21
802.154	255.96
802.592	240.16
803.03	240.16
803.468	250.66
803.906	250.91
804.344	245.76
804.782	235.31
805.22	241.41
805.658	245.71
806.096	260.01
806.533	288.21
806.971	376.06
807.409	545.26
807.847	1099.61
808.284	2848.96
808.722	5225.51
809.16	7334.66
809.597	9778.61
810.035	12650.16
810.472	8328.91
810.91	3373.81
811.347	1485.16
811.785	690.46
812.222	435.71
812.66	330.56
813.097	279.81
813.535	242.11
813.972	218.71
814.409	200.56
814.846	194.56
815.284	181.86
815.721	184.76
816.158	192.26
816.595	262.56
817.032	335.66
817.47	309.46
817.907	222.46
818.344	194.76
818.781	198.46
819.218	230.71
819.655	347.81
820.092	461.06
820.529	417.41
820.966	328.86
821.403	229.96
821.839	193.01
822.276	209.26
822.713	264.26
823.15	247.81
823.587	256.36
824.023	464.01
824.46	1203.26
824.897	2173.46
825.333	1734.11
825.77	762.61
826.206	390.21
826.643	218.51
827.08	161.21
827.516	136.86
827.953	134.76
828.389	128.96
828.825	121.46
829.262	115.21
829.698	109.11
830.135	110.26
830.571	107.66
831.007	110.91
831.443	108.71
831.88	106.01
832.316	111.66
832.752	111.41
833.188	116.96
833.624	117.56
834.06	116.66
834.497	117.81
834.933	120.91
835.369	132.21
835.805	143.01
836.241	142.21
836.677	158.96
837.112	184.56
837.548	228.66
837.984	338.41
838.42	737.46
838.856	2094.36
839.292	4338.11
839.727	3237.66
840.163	2074.26
840.599	3144.76
841.034	5093.26
841.47	2539.16
841.906	1176.36
842.341	607.86
842.777	427.21
843.212	443.81
843.648	273.41
844.083	190.56
844.519	141.11
844.954	118.96
845.39	108.26
845.825	104.41
846.261	98.11
846.696	93.36
847.131	89.21
847.566	90.81
848.002	95.41
848.437	104.71
848.872	108.11
849.307	143.11
849.742	246.76
850.177	678.31
850.613	1541.01
851.048	1117.01
851.483	489.46
851.918	256.51
852.353	142.21
852.788	99.21
853.223	91.21
853.657	81.11
854.092	81.86
854.527	74.81
854.962	79.71
855.397	91.76
855.832	80.21
856.266	69.01
856.701	67.91
857.136	72.91
857.57	83.86
858.005	106.51
858.44	92.01
858.874	87.71
859.309	87.81
859.743	85.76
860.178	79.51
860.612	88.91
861.047	123.81
861.481	171.51
861.915	111.46
862.35	84.56
862.784	69.76
863.218	63.61
863.653	73.06
864.087	88.01
864.521	114.86
864.955	192.11
865.39	361.21
865.824	255.81
866.258	308.16
866.692	477.71
867.126	350.01
867.56	182.81
867.994	117.66
868.428	93.16
868.862	122.31
869.296	108.56
869.73	135.86
870.164	117.81
870.598	105.21
871.031	79.26
871.465	72.36
871.899	49.36
872.333	44.26
872.766	48.16
873.2	52.41
873.634	48.56
874.067	51.86
874.501	53.91
874.935	52.51
875.368	57.81
875.802	52.61
876.235	46.26
876.669	47.51
877.102	39.61
877.535	41.66
877.969	39.06
878.402	42.16
878.836	37.91
879.269	37.26
879.702	39.16
880.135	42.61
880.569	43.86
881.002	36.26
881.435	34.26
881.868	41.36
882.301	34.16
882.734	36.06
883.167	38.31
883.601	36.21
884.034	36.36
884.467	32.16
884.899	32.11
885.332	32.21
885.765	33.31
886.198	31.36
886.631	32.96
887.064	33.71
887.497	27.56
887.929	32.86
888.362	30.76
888.795	32.86
889.228	30.56
889.66	33.91
890.093	31.06
890.526	33.51
890.958	27.81
891.391	29.06
891.823	25.61
892.256	31.16
892.688	32.31
893.121	27.36
893.553	33.51
893.985	25.41
894.418	24.41
894.85	30.21
895.282	30.61
895.715	27.11
896.147	25.16
896.579	27.86
897.011	33.16
897.444	25.46
897.876	22.51
898.308	26.51
898.74	32.36
899.172	31.06
899.604	34.31
900.036	27.36
900.468	26.76
900.9	30.56
901.332	44.01
901.764	37.51
902.196	33.86
902.628	37.86
903.06	54.26
903.491	58.36
903.923	48.86
904.355	55.96
904.787	51.41
905.218	42.26
905.65	39.26
906.082	31.96
906.513	33.31
906.945	36.26
907.376	33.21
907.808	36.31
908.239	38.01
908.671	46.16
909.102	43.66
909.534	74.41
909.965	130.26
910.397	346.11
910.828	1042.11
911.259	639.01
911.691	325.51
912.122	186.41
912.553	93.46
912.984	45.86
913.415	44.56
913.847	35.56
914.278	38.36
914.709	30.86
915.14	26.96
915.571	33.31
916.002	29.06
916.433	24.56
916.864	24.81
917.295	31.91
917.726	38.26
918.157	46.71
918.587	44.86
919.018	42.01
919.449	38.61
919.88	46.21
920.311	70.91
920.741	210.46
921.172	387.36
921.603	190.11
922.033	116.51
922.464	73.56
922.895	45.36
923.325	27.31
923.756	27.21
924.186	37.76
924.617	52.96
925.047	73.81
925.478	64.36
925.908	43.21
926.338	30.96
926.769	26.86
927.199	31.51
927.629	23.21
928.06	29.31
928.49	28.11
928.92	23.66
929.35	18.41
929.78	12.51
930.21	14.81
930.641	14.91
931.071	11.11
931.501	13.81
931.931	10.51
932.361	11.36
932.791	20.26
933.221	18.06
933.651	28.46
934.08	47.36
934.51	27.91
934.94	20.66
935.37	16.51
935.8	14.86
936.229	11.81
936.659	15.06
937.089	23.81
937.519	39.71
937.948	52.51
938.378	29.96
938.807	17.81
939.237	13.56
939.666	13.76
940.096	7.11
940.525	2.21
940.955	10.11
941.384	7.86
941.814	5.36
942.243	7.86
942.672	1.06
943.102	4.01
943.531	4.31
943.96	5.96
944.39	8.56
944.819	12.81
945.248	8.16
945.677	7.96
946.106	9.06
946.535	6.71
946.964	9.71
947.393	1.01
947.822	5.96
948.251	8.21
948.68	10.71
949.109	6.61
949.538	5.21
949.967	10.26
950.396	3.51
950.825	7.16
951.254	10.76
951.682	1.56
952.111	1.46
952.54	5.91
952.969	6.46
953.397	3.16
953.826	2.26
954.254	10.61
954.683	9.06
955.112	6.36
955.54	4.01
955.969	4.76
956.397	7.21
956.826	1.56
957.254	5.06
957.682	4.96
958.111	4.81
958.539	10.11
958.967	2.86
959.396	7.76
959.824	6.81
960.252	6.61
960.68	4.21
961.109	6.51
961.537	10.41
961.965	-2.34
962.393	3.41
962.821	7.36
963.249	5.36
963.677	11.26
964.105	64.46
964.533	107.66
964.961	54.16
965.389	30.36
965.817	14.36
966.245	8.21
966.672	2.01
967.1	5.21
967.528	1.66
967.956	6.71
968.383	6.06
968.811	7.56
969.239	7.96
969.666	2.31
970.094	6.11
970.522	0.81
970.949	5.01
971.377	-2.79
971.804	2.56
972.232	5.61
972.659	2.56
973.087	7.36
973.514	-0.09
973.941	1.36
974.369	-2.44
974.796	-0.44
975.223	1.51
975.651	7.86
976.078	-0.49
976.505	7.16
976.932	23.91
977.359	31.21
977.786	18.16
978.214	13.06
978.641	3.56
979.068	4.16
979.495	2.91
979.922	1.56
980.349	2.66
980.776	1.81
981.202	3.81
981.629	8.11
982.056	3.81
982.483	-2.39
982.91	10.51
983.337	-2.69
983.763	4.96
984.19	6.41
984.617	2.51
985.043	3.86
985.47	7.91
985.897	1.76
986.323	5.66
986.75	2.21
987.176	4.36
987.603	2.76
988.029	3.51
988.456	4.46
988.882	2.71
989.308	-1.44
989.735	-0.64
990.161	2.91
990.587	2.16
991.014	3.01
991.44	2.41
991.866	1.76
992.292	1.36
992.719	2.06
993.145	3.11
993.571	4.01
993.997	8.51
994.423	7.51
994.849	-4.84
995.275	5.41
995.701	4.71
996.127	-4.14
996.553	-0.89
996.979	-0.69
997.405	2.71
997.83	2.61
998.256	5.11
998.682	-3.34
999.108	6.01
999.534	-4.69
999.959	1.96
1000.385	5.01
1000.811	-0.34
1001.236	-3.44
1001.662	-2.44
1002.087	7.51
1002.513	1.81
1002.938	-1.54
1003.364	0.01
1003.789	1.66
1004.215	-2.24
1004.64	2.11
1005.066	1.96
1005.491	7.36
1005.916	0.71
1006.342	5.46
1006.767	3.56
1007.192	3.31
1007.617	-0.64
1008.042	3.16
1008.468	0.11
1008.893	3.36
1009.318	3.96
1009.743	9.26
1010.168	23.06
1010.593	16.61
1011.018	6.36
1011.443	4.96
1011.868	8.11
1012.293	5.11
1012.718	1.06
1013.143	-1.54
1013.567	3.41
1013.992	-1.14
1014.417	2.61
1014.842	-0.49
1015.267	3.41
1015.691	5.86
1016.116	2.66
1016.541	1.46
1016.965	1.56
1017.39	5.81
1017.814	-1.89
1018.239	-2.39
1018.663	-2.34
1019.088	-1.64
1019.512	2.06
1019.937	-1.74
1020.361	5.36
1020.785	-2.79
1021.21	-1.99
1021.634	2.36
1022.058	1.26
1022.483	-7.39
1022.907	-1.69
1023.331	-2.69
1023.755	-6.39
1024.179	0.51
1024.604	-1.29
1025.028	2.01
1025.452	2.01
1025.876	3.96
1026.3	1.56
1026.724	-4.39
1027.148	1.16
1027.572	-0.94
1027.996	1.81
1028.42	1.26
1028.843	1.36
1029.267	-2.54
1029.691	2.21
1030.115	-0.39
1030.539	-1.59
1030.962	0.66
1031.386	1.46
1031.81	0.86
1032.233	-2.64
1032.657	-5.89
1033.08	-1.24
1033.504	5.56
1033.927	0.71
1034.351	-1.99
1034.774	-3.49
1035.198	-3.84
1035.621	-1.14
1036.045	-2.39
1036.468	3.41
1036.891	-1.04
1037.315	5.26
1037.738	1.86
1038.161	-1.29
1038.584	0.76
1039.008	-2.64
1039.431	-2.04
1039.854	-7.44
1040.277	2.86
1040.7	-3.44
1041.123	-1.59
1041.546	-2.44
1041.969	0.51
1042.392	6.36
1042.815	-2.39
1043.238	-4.29
1043.661	-2.24
1044.084	-1.54
1044.507	-2.94
1044.93	1.46
1045.352	0.46
1045.775	1.56
1046.198	2.56
1046.621	4.01
1047.043	-1.89
1047.466	-1.24
1047.889	0.16
1048.311	4.11
1048.734	-0.89
1049.156	-1.29
1049.579	-0.19
1050.001	-0.34
1050.424	0.41
1050.846	-5.64
1051.269	-1.84
1051.691	1.11
1052.113	-0.34
1052.536	-0.09
1052.958	-2.44
1053.38	0.01
1053.802	-0.39
1054.225	0.66
1054.647	5.01
1055.069	1.36
1055.491	0.66
1055.913	-0.44
1056.335	-5.24
1056.757	-2.79
1057.179	-1.39
1057.601	-2.64
1058.023	3.46
1058.445	-2.34
1058.867	1.91
1059.289	-1.99
1059.711	-5.09
1060.133	2.11
1060.555	0.21
1060.976	1.61
1061.398	4.31
1061.82	1.11
1062.241	0.31
1062.663	-0.99
1063.085	-4.49
1063.506	-8.49
1063.928	-0.44
1064.35	0.41
1064.771	-1.59
1065.193	-3.39
1065.614	-2.59
1066.035	3.16
1066.457	-0.44
1066.878	-0.19
1067.3	-0.64
1067.721	1.11
1068.142	2.61
1068.564	0.81
1068.985	-1.04
1069.406	-8.39
1069.827	-2.64
1070.248	-0.29
1070.67	-3.04
1071.091	-4.09
1071.512	-4.14
1071.933	-1.99
1072.354	-7.29
1072.775	4.16
1073.196	-0.64
1073.617	-4.69
1074.038	-2.69
1074.459	-7.44
1074.88	-4.89
1075.3	-1.74
1075.721	3.26
1076.142	-5.64
1076.563	-6.04
1076.983	4.21
1077.404	-7.94
1077.825	-3.59
1078.246	-2.34
1078.666	-3.64
1079.087	-3.79
1079.507	-2.89
1079.928	-2.19
1080.348	-1.19
1080.769	1.01
1081.189	-1.34
1081.61	-3.84
1082.03	-1.34
1082.451	-2.14
1082.871	-5.79
1083.291	-5.14
1083.711	-1.24
1084.132	-3.89
1084.552	-4.34
1084.972	-4.94
1085.392	-0.79
1085.813	-1.69
1086.233	-4.49
1086.653	-0.79
1087.073	-4.44
1087.493	-6.84
1087.913	-4.24
1088.333	-3.29
1088.753	2.26
1089.173	-1.09
1089.593	0.61
1090.013	-2.09
1090.433	-4.14
1090.852	0.81
1091.272	-1.99
1091.692	0.56
1092.112	-2.49
1092.531	-5.49
1092.951	-7.34
1093.371	-0.04
1093.79	-1.79
1094.21	0.86
1094.63	-1.94
1095.049	-1.09
1095.469	-7.24
1095.888	-2.34
1096.308	-0.79
1096.727	-3.39
1097.146	-4.89
1097.566	-3.54
1097.985	0.26
1098.405	2.11
1098.824	-0.54
1099.243	-1.84
1099.662	-4.99
1100.082	-2.39
1100.501	-1.89
1100.92	2.36
1101.339	0.16
1101.758	4.51
