Data from MSPlasma+Separation6_Subt14_10-12-32-119.txt Node
Date: Fri Jul 21 10:12:32 EDT 2017
User: Ender
Spectrometer: HR+D1039
Trigger mode: 0
Integration Time (sec): 6.430000E-3
Scans to average: 20
Electric dark correction enabled: true
Nonlinearity correction enabled: false
Boxcar width: 0
XAxis mode: Wavelengths
Number of Pixels in Spectrum: 2048
>>>>>Begin Spectral Data<<<<<
187.836	3.47
188.309	3.47
188.782	3.47
189.255	2.07
189.728	0.62
190.201	-0.83
190.674	4.52
191.147	0.67
191.619	-1.73
192.092	-0.68
192.565	-5.53
193.038	4.37
193.511	3.77
193.984	-0.98
194.456	-2.73
194.929	0.07
195.402	-3.28
195.874	-3.73
196.347	2.77
196.82	4.12
197.292	-1.63
197.765	-3.33
198.237	-1.98
198.71	-0.58
199.182	-0.58
199.655	-0.03
200.127	-0.93
200.6	-2.63
201.072	-1.68
201.544	-4.83
202.017	1.32
202.489	1.52
202.961	-1.13
203.433	-3.08
203.906	0.52
204.378	0.02
204.85	-3.03
205.322	-1.23
205.794	1.32
206.266	-4.53
206.739	4.47
207.211	-3.28
207.683	0.17
208.155	1.27
208.627	0.62
209.099	1.82
209.57	-0.83
210.042	1.42
210.514	-1.58
210.986	-2.23
211.458	-2.68
211.93	-1.58
212.402	-0.08
212.873	-0.13
213.345	-6.58
213.817	-2.28
214.288	-0.53
214.76	0.67
215.232	-2.88
215.703	-0.08
216.175	4.42
216.646	0.47
217.118	0.52
217.589	-2.58
218.061	1.77
218.532	-3.58
219.004	5.62
219.475	-1.23
219.946	2.82
220.418	5.12
220.889	1.62
221.36	2.67
221.832	6.32
222.303	0.12
222.774	2.07
223.245	-1.13
223.717	-0.88
224.188	0.87
224.659	3.32
225.13	-2.93
225.601	-0.18
226.072	2.27
226.543	4.87
227.014	-0.23
227.485	5.52
227.956	6.07
228.427	9.47
228.898	6.92
229.369	5.57
229.839	4.37
230.31	2.72
230.781	4.42
231.252	7.27
231.722	3.47
232.193	4.82
232.664	6.97
233.135	4.92
233.605	3.92
234.076	14.02
234.546	3.72
235.017	12.92
235.487	5.62
235.958	6.57
236.428	11.77
236.899	6.77
237.369	13.52
237.84	10.47
238.31	9.97
238.78	12.07
239.251	10.77
239.721	8.92
240.191	6.87
240.662	14.67
241.132	11.42
241.602	11.57
242.072	13.02
242.542	11.17
243.013	11.22
243.483	14.27
243.953	7.52
244.423	13.02
244.893	8.97
245.363	14.92
245.833	14.52
246.303	12.02
246.773	12.27
247.243	11.17
247.712	14.47
248.182	16.32
248.652	15.72
249.122	14.12
249.592	13.12
250.061	14.32
250.531	14.57
251.001	18.57
251.471	16.12
251.94	17.52
252.41	19.17
252.879	16.97
253.349	24.42
253.818	20.87
254.288	23.07
254.757	22.22
255.227	24.57
255.696	24.87
256.166	24.87
256.635	22.42
257.105	22.27
257.574	23.17
258.043	24.02
258.513	25.47
258.982	23.67
259.451	25.52
259.92	20.52
260.389	27.52
260.859	26.62
261.328	25.97
261.797	24.37
262.266	25.27
262.735	30.37
263.204	24.52
263.673	27.67
264.142	22.12
264.611	28.52
265.08	30.67
265.549	22.57
266.018	28.87
266.487	29.22
266.955	25.47
267.424	34.47
267.893	33.77
268.362	31.92
268.83	30.57
269.299	31.82
269.768	33.77
270.236	34.27
270.705	34.42
271.174	33.37
271.642	34.92
272.111	36.92
272.579	30.22
273.048	34.82
273.516	40.07
273.985	36.52
274.453	41.87
274.922	35.62
275.39	34.82
275.858	40.37
276.327	38.32
276.795	38.82
277.263	39.47
277.731	41.77
278.2	44.02
278.668	43.47
279.136	39.17
279.604	45.12
280.072	38.87
280.54	41.32
281.008	44.72
281.477	44.77
281.945	44.37
282.413	47.22
282.881	47.32
283.348	45.92
283.816	48.02
284.284	48.22
284.752	50.07
285.22	52.52
285.688	55.67
286.156	50.52
286.623	55.37
287.091	51.77
287.559	54.42
288.026	54.07
288.494	55.77
288.962	58.17
289.429	54.62
289.897	51.92
290.364	54.27
290.832	54.32
291.3	57.37
291.767	60.87
292.234	61.27
292.702	55.47
293.169	62.77
293.637	64.87
294.104	63.62
294.571	62.42
295.039	64.72
295.506	57.02
295.973	64.42
296.44	61.27
296.908	69.47
297.375	63.67
297.842	63.92
298.309	66.02
298.776	65.27
299.243	69.42
299.71	70.42
300.177	67.32
300.644	68.07
301.111	66.42
301.578	75.82
302.045	71.52
302.512	67.92
302.979	71.37
303.446	77.92
303.913	76.62
304.379	77.57
304.846	77.32
305.313	86.72
305.78	88.47
306.246	85.52
306.713	85.72
307.18	85.12
307.646	88.27
308.113	87.37
308.579	90.37
309.046	92.57
309.512	91.62
309.979	94.67
310.445	90.62
310.912	94.72
311.378	103.02
311.845	98.37
312.311	94.02
312.777	97.27
313.244	103.07
313.71	98.22
314.176	104.87
314.642	101.97
315.109	101.47
315.575	102.62
316.041	107.57
316.507	106.97
316.973	110.82
317.439	113.07
317.905	110.72
318.371	106.47
318.837	111.07
319.303	110.57
319.769	111.42
320.235	116.92
320.701	116.32
321.167	113.32
321.633	113.57
322.099	114.12
322.564	121.27
323.03	116.92
323.496	115.52
323.962	117.77
324.427	125.12
324.893	125.07
325.359	125.82
325.824	124.92
326.29	128.17
326.755	125.02
327.221	128.47
327.686	138.57
328.152	138.12
328.617	136.37
329.083	142.22
329.548	138.42
330.014	138.42
330.479	140.92
330.944	139.52
331.41	146.72
331.875	141.02
332.34	138.32
332.805	148.42
333.271	141.67
333.736	143.02
334.201	144.17
334.666	152.07
335.131	156.02
335.596	156.72
336.061	150.02
336.526	151.12
336.991	145.62
337.456	146.82
337.921	142.87
338.386	147.42
338.851	151.32
339.316	148.12
339.781	146.32
340.246	150.02
340.711	152.27
341.175	157.42
341.64	161.82
342.105	163.47
342.569	173.52
343.034	169.72
343.499	169.97
343.963	177.12
344.428	174.57
344.893	173.97
345.357	184.07
345.822	183.52
346.286	186.32
346.751	188.52
347.215	184.82
347.679	197.22
348.144	206.37
348.608	204.07
349.073	207.12
349.537	215.27
350.001	213.27
350.465	212.07
350.93	208.32
351.394	214.57
351.858	218.37
352.322	218.82
352.786	221.17
353.25	219.82
353.715	228.67
354.179	237.02
354.643	241.52
355.107	239.82
355.571	243.87
356.035	239.52
356.498	237.47
356.962	233.37
357.426	231.62
357.89	228.67
358.354	226.92
358.818	227.02
359.281	229.12
359.745	236.92
360.209	226.82
360.673	230.22
361.136	233.02
361.6	238.22
362.064	238.27
362.527	249.32
362.991	244.07
363.454	240.72
363.918	255.47
364.381	252.67
364.845	247.62
365.308	248.12
365.772	254.22
366.235	252.92
366.698	248.77
367.162	245.87
367.625	251.07
368.088	256.87
368.552	257.37
369.015	253.12
369.478	265.27
369.941	263.22
370.404	268.57
370.867	261.47
371.331	267.82
371.794	269.82
372.257	267.32
372.72	269.02
373.183	274.77
373.646	271.62
374.109	271.97
374.572	278.47
375.035	279.87
375.497	284.47
375.96	290.52
376.423	289.87
376.886	292.77
377.349	301.02
377.811	296.27
378.274	301.47
378.737	293.72
379.199	304.32
379.662	300.72
380.125	311.37
380.587	310.02
381.05	317.27
381.512	320.42
381.975	326.42
382.437	335.77
382.9	333.17
383.362	332.77
383.825	334.12
384.287	335.82
384.75	336.77
385.212	345.77
385.674	344.27
386.136	354.12
386.599	342.32
387.061	340.62
387.523	347.37
387.985	345.27
388.447	354.62
388.91	352.37
389.372	358.42
389.834	347.57
390.296	345.87
390.758	352.67
391.22	346.72
391.682	355.22
392.144	350.62
392.606	360.47
393.068	368.17
393.529	386.67
393.991	399.67
394.453	371.67
394.915	365.17
395.377	352.32
395.838	359.72
396.3	360.87
396.762	365.27
397.224	366.27
397.685	360.52
398.147	374.52
398.608	377.12
399.07	380.87
399.531	379.17
399.993	392.07
400.454	398.62
400.916	390.72
401.377	403.62
401.839	409.07
402.3	406.77
402.762	421.92
403.223	452.72
403.684	451.12
404.145	430.02
404.607	410.27
405.068	409.22
405.529	405.72
405.99	415.47
406.451	418.67
406.913	413.72
407.374	414.57
407.835	413.97
408.296	426.42
408.757	422.27
409.218	434.22
409.679	446.17
410.14	446.07
410.601	458.52
411.062	467.32
411.522	478.32
411.983	479.42
412.444	483.42
412.905	494.62
413.366	524.07
413.826	548.22
414.287	632.42
414.748	787.27
415.208	795.92
415.669	644.97
416.13	578.32
416.59	571.17
417.051	604.22
417.511	633.52
417.972	688.82
418.432	749.12
418.893	838.62
419.353	799.92
419.814	592.47
420.274	524.27
420.734	513.22
421.195	524.27
421.655	517.37
422.115	531.17
422.576	526.32
423.036	537.57
423.496	554.27
423.956	575.57
424.416	616.07
424.876	692.87
425.336	684.72
425.797	660.17
426.257	653.17
426.717	600.27
427.177	539.42
427.637	531.32
428.097	544.57
428.556	567.47
429.016	602.12
429.476	590.77
429.936	555.17
430.396	545.42
430.856	555.07
431.315	559.12
431.775	604.57
432.235	663.47
432.694	679.82
433.154	618.22
433.614	611.47
434.073	589.47
434.533	543.87
434.993	528.97
435.452	546.37
435.912	537.57
436.371	554.97
436.83	556.07
437.29	557.82
437.749	546.07
438.209	546.77
438.668	558.37
439.127	568.67
439.587	570.22
440.046	556.77
440.505	573.97
440.964	568.87
441.424	591.77
441.883	609.52
442.342	582.32
442.801	560.22
443.26	570.37
443.719	567.52
444.178	573.22
444.637	574.92
445.096	579.27
445.555	587.42
446.014	589.12
446.473	587.07
446.932	591.17
447.391	588.42
447.849	607.47
448.308	593.72
448.767	597.02
449.226	604.27
449.685	623.42
450.143	656.67
450.602	644.97
451.061	612.77
451.519	607.97
451.978	599.27
452.436	597.17
452.895	607.52
453.353	602.62
453.812	596.02
454.27	596.07
454.729	605.47
455.187	608.22
455.646	603.47
456.104	606.67
456.562	618.42
457.021	616.32
457.479	602.57
457.937	609.62
458.395	638.22
458.854	635.32
459.312	618.02
459.77	619.67
460.228	633.02
460.686	635.57
461.144	639.42
461.602	627.02
462.06	639.42
462.518	652.32
462.976	648.07
463.434	651.92
463.892	656.22
464.35	675.12
464.808	678.32
465.266	688.52
465.724	697.52
466.181	695.17
466.639	691.22
467.097	716.82
467.555	735.32
468.012	729.67
468.47	737.07
468.928	764.22
469.385	786.87
469.843	784.52
470.3	777.87
470.758	801.47
471.215	807.67
471.673	833.77
472.13	844.57
472.588	860.47
473.045	860.62
473.503	870.12
473.96	911.67
474.417	905.72
474.875	940.62
475.332	948.52
475.789	968.87
476.246	980.92
476.704	992.77
477.161	1006.72
477.618	996.67
478.075	1028.17
478.532	1048.67
478.989	1088.17
479.446	1136.07
479.903	1117.37
480.36	1149.62
480.817	1140.02
481.274	1152.92
481.731	1183.32
482.188	1211.47
482.645	1231.82
483.102	1242.12
483.558	1275.82
484.015	1305.37
484.472	1308.37
484.929	1309.47
485.385	1309.57
485.842	1320.52
486.299	1327.67
486.755	1325.82
487.212	1306.02
487.668	1269.27
488.125	1265.97
488.582	1249.07
489.038	1262.12
489.494	1277.07
489.951	1272.22
490.407	1267.42
490.864	1268.72
491.32	1267.47
491.776	1271.62
492.233	1296.32
492.689	1292.82
493.145	1277.87
493.602	1271.72
494.058	1294.57
494.514	1298.27
494.97	1305.72
495.426	1332.52
495.882	1331.77
496.338	1335.72
496.794	1348.32
497.251	1345.27
497.707	1365.17
498.163	1371.22
498.618	1371.82
499.074	1372.87
499.53	1383.77
499.986	1392.17
500.442	1391.17
500.898	1372.12
501.354	1395.07
501.809	1396.37
502.265	1394.62
502.721	1407.92
503.177	1411.12
503.632	1420.32
504.088	1428.57
504.543	1438.67
504.999	1456.22
505.455	1453.87
505.91	1430.82
506.366	1442.62
506.821	1453.57
507.277	1437.62
507.732	1448.87
508.187	1450.42
508.643	1452.02
509.098	1451.97
509.553	1472.67
510.009	1484.92
510.464	1526.62
510.919	1527.72
511.375	1536.87
511.83	1563.32
512.285	1573.97
512.74	1614.07
513.195	1642.82
513.65	1668.97
514.105	1696.62
514.56	1703.67
515.015	1739.07
515.47	1737.77
515.925	1720.47
516.38	1716.32
516.835	1728.67
517.29	1727.42
517.745	1716.67
518.2	1697.27
518.655	1654.82
519.109	1628.87
519.564	1592.92
520.019	1585.57
520.474	1575.62
520.928	1572.27
521.383	1565.67
521.838	1544.72
522.292	1543.52
522.747	1531.77
523.201	1520.02
523.656	1500.97
524.11	1507.87
524.565	1493.57
525.019	1494.52
525.474	1500.47
525.928	1474.17
526.382	1483.62
526.837	1476.12
527.291	1480.32
527.745	1472.42
528.2	1477.07
528.654	1460.22
529.108	1455.77
529.562	1457.82
530.016	1456.72
530.47	1450.02
530.925	1451.47
531.379	1451.27
531.833	1463.77
532.287	1463.42
532.741	1460.82
533.195	1445.82
533.649	1451.87
534.103	1464.72
534.556	1448.92
535.01	1451.47
535.464	1451.02
535.918	1445.57
536.372	1463.42
536.826	1464.47
537.279	1443.62
537.733	1443.27
538.187	1454.77
538.64	1450.77
539.094	1466.37
539.548	1482.02
540.001	1486.12
540.455	1482.37
540.908	1498.57
541.362	1519.52
541.815	1522.52
542.269	1564.47
542.722	1555.92
543.175	1568.67
543.629	1575.87
544.082	1592.37
544.536	1613.22
544.989	1616.12
545.442	1630.07
545.895	1624.57
546.349	1624.67
546.802	1631.57
547.255	1632.07
547.708	1642.92
548.161	1666.82
548.614	1672.62
549.067	1678.22
549.52	1671.52
549.973	1643.67
550.426	1625.02
550.879	1618.97
551.332	1616.22
551.785	1626.27
552.238	1641.12
552.691	1643.27
553.144	1669.07
553.596	1697.97
554.049	1711.97
554.502	1753.77
554.955	1798.47
555.407	1830.72
555.86	1795.57
556.313	1774.47
556.765	1745.62
557.218	1720.32
557.67	1716.17
558.123	1702.92
558.576	1695.22
559.028	1694.67
559.48	1732.37
559.933	1714.17
560.385	1651.07
560.838	1585.02
561.29	1545.62
561.742	1527.42
562.195	1501.07
562.647	1485.82
563.099	1481.17
563.551	1471.42
564.004	1479.57
564.456	1480.52
564.908	1431.42
565.36	1398.42
565.812	1369.12
566.264	1367.97
566.716	1340.47
567.168	1318.47
567.62	1321.32
568.072	1306.27
568.524	1296.32
568.976	1294.92
569.428	1279.82
569.88	1283.27
570.332	1294.12
570.784	1294.07
571.235	1287.27
571.687	1301.22
572.139	1297.07
572.59	1308.67
573.042	1320.82
573.494	1320.97
573.945	1292.07
574.397	1261.67
574.849	1251.42
575.3	1260.87
575.752	1246.97
576.203	1237.32
576.655	1234.57
577.106	1215.12
577.557	1216.37
578.009	1203.32
578.46	1216.67
578.912	1200.02
579.363	1208.77
579.814	1198.92
580.265	1205.57
580.717	1205.52
581.168	1200.47
581.619	1203.77
582.07	1230.37
582.521	1220.12
582.972	1200.37
583.423	1204.62
583.875	1214.37
584.326	1221.72
584.777	1248.87
585.227	1275.72
585.678	1284.22
586.129	1299.07
586.58	1317.17
587.031	1340.17
587.482	1388.97
587.933	1403.37
588.384	1395.07
588.834	1392.22
589.285	1368.32
589.736	1378.72
590.186	1395.17
590.637	1374.22
591.088	1318.07
591.538	1297.12
591.989	1280.22
592.439	1265.07
592.89	1249.77
593.34	1242.42
593.791	1236.77
594.241	1219.97
594.692	1221.12
595.142	1218.22
595.593	1218.92
596.043	1228.62
596.493	1234.97
596.943	1227.72
597.394	1268.82
597.844	1281.87
598.294	1315.42
598.744	1372.37
599.195	1432.57
599.645	1516.42
600.095	1624.32
600.545	1695.47
600.995	1786.17
601.445	1850.07
601.895	1958.22
602.345	2020.07
602.795	1994.62
603.245	1909.12
603.695	1774.17
604.145	1666.07
604.594	1577.57
605.044	1486.42
605.494	1386.77
605.944	1303.42
606.393	1271.17
606.843	1249.52
607.293	1249.37
607.743	1242.67
608.192	1259.92
608.642	1262.92
609.091	1251.17
609.541	1257.02
609.99	1250.47
610.44	1226.77
610.889	1202.67
611.339	1186.87
611.788	1172.72
612.238	1176.07
612.687	1179.47
613.136	1192.07
613.586	1206.57
614.035	1203.22
614.484	1216.12
614.933	1205.12
615.383	1179.07
615.832	1154.32
616.281	1139.32
616.73	1120.77
617.179	1097.82
617.628	1070.37
618.077	1048.27
618.526	1047.07
618.975	1035.72
619.424	1008.62
619.873	1012.72
620.322	1002.67
620.771	1002.27
621.22	982.32
621.669	961.62
622.118	946.32
622.567	940.22
623.015	920.22
623.464	917.67
623.913	907.57
624.361	910.72
624.81	895.42
625.259	903.47
625.707	901.12
626.156	911.62
626.604	921.47
627.053	924.17
627.501	929.42
627.95	936.07
628.398	947.72
628.847	925.97
629.295	926.07
629.744	927.22
630.192	900.07
630.64	881.32
631.089	864.82
631.537	840.67
631.985	836.07
632.433	827.22
632.881	827.57
633.33	835.67
633.778	824.62
634.226	831.52
634.674	837.62
635.122	850.37
635.57	855.02
636.018	876.27
636.466	864.07
636.914	867.92
637.362	879.87
637.81	897.27
638.258	926.77
638.705	934.37
639.153	958.22
639.601	972.67
640.049	989.67
640.497	1024.02
640.944	1043.07
641.392	987.92
641.84	912.02
642.287	847.87
642.735	830.77
643.182	811.47
643.63	801.67
644.078	792.22
644.525	789.82
644.973	802.27
645.42	800.52
645.867	795.42
646.315	807.52
646.762	809.17
647.21	803.42
647.657	817.82
648.104	805.92
648.551	766.62
648.999	767.12
649.446	761.77
649.893	754.67
650.34	765.07
650.787	791.07
651.234	820.82
651.682	879.82
652.129	960.12
652.576	1100.07
653.023	1274.22
653.47	1374.22
653.917	1448.17
654.363	1480.32
654.81	1560.32
655.257	1616.17
655.704	1260.32
656.151	979.17
656.598	850.52
657.044	789.87
657.491	774.52
657.938	749.82
658.385	732.02
658.831	734.07
659.278	733.17
659.724	723.82
660.171	721.27
660.618	697.62
661.064	683.87
661.511	686.72
661.957	686.77
662.404	694.87
662.85	707.17
663.296	712.62
663.743	709.02
664.189	716.42
664.635	718.77
665.082	713.07
665.528	710.22
665.974	689.57
666.42	695.77
666.867	689.17
667.313	646.32
667.759	645.92
668.205	645.57
668.651	654.87
669.097	652.87
669.543	649.42
669.989	665.32
670.435	668.37
670.881	671.97
671.327	714.42
671.773	760.42
672.219	824.47
672.665	888.12
673.11	935.82
673.556	952.87
674.002	998.97
674.448	1018.62
674.893	846.12
675.339	722.77
675.785	661.97
676.23	627.72
676.676	604.92
677.122	591.22
677.567	574.77
678.013	548.62
678.458	554.52
678.904	544.77
679.349	541.07
679.794	540.27
680.24	545.72
680.685	540.27
681.131	538.97
681.576	541.17
682.021	538.27
682.466	554.12
682.912	554.97
683.357	583.92
683.802	641.87
684.247	704.12
684.692	761.92
685.137	795.92
685.583	821.32
686.028	873.87
686.473	820.17
686.918	699.32
687.363	631.27
687.807	603.77
688.252	572.72
688.697	547.12
689.142	527.02
689.587	529.67
690.032	535.47
690.477	561.97
690.921	593.27
691.366	629.92
691.811	658.42
692.255	713.32
692.7	867.42
693.145	1242.42
693.589	1922.72
694.034	2355.67
694.478	2567.37
694.923	2408.02
695.367	3529.22
695.812	2068.57
696.256	828.77
696.701	588.37
697.145	539.67
697.59	518.47
698.034	514.27
698.478	505.97
698.922	507.57
699.367	526.22
699.811	552.87
700.255	606.42
700.699	668.07
701.143	729.22
701.588	772.67
702.032	824.62
702.476	846.47
702.92	881.82
703.364	1135.02
703.808	1772.07
704.252	2254.07
704.696	2457.92
705.14	2367.22
705.584	3345.77
706.027	1792.67
706.471	862.62
706.915	622.72
707.359	546.52
707.803	508.72
708.246	490.42
708.69	493.72
709.134	485.22
709.577	482.72
710.021	491.27
710.465	488.37
710.908	483.47
711.352	505.37
711.795	560.62
712.239	611.47
712.682	627.02
713.126	611.67
713.569	700.17
714.012	555.22
714.456	482.27
714.899	450.17
715.342	427.82
715.786	415.47
716.229	402.67
716.672	393.02
717.115	396.72
717.558	403.42
718.002	409.77
718.445	434.27
718.888	462.92
719.331	466.77
719.774	484.37
720.217	472.47
720.66	438.07
721.103	410.92
721.546	389.17
721.989	374.47
722.432	370.57
722.874	366.67
723.317	372.27
723.76	406.97
724.203	499.92
724.645	681.77
725.088	834.87
725.531	832.57
725.974	930.12
726.416	832.97
726.859	482.27
727.301	390.52
727.744	371.82
728.187	370.27
728.629	379.67
729.071	402.92
729.514	422.17
729.956	444.97
730.399	454.87
730.841	452.17
731.283	439.77
731.726	424.42
732.168	426.62
732.61	451.57
733.053	491.52
733.495	552.77
733.937	614.32
734.379	726.97
734.821	924.82
735.263	1464.67
735.705	2641.17
736.148	3989.97
736.59	4136.22
737.032	4645.02
737.474	3781.97
737.916	1398.92
738.357	706.87
738.799	532.42
739.241	486.67
739.683	483.17
740.125	496.02
740.567	507.27
741.008	540.67
741.45	560.87
741.892	589.62
742.334	591.52
742.775	604.12
743.217	571.62
743.658	471.42
744.1	478.52
744.542	546.17
744.983	569.42
745.425	611.52
745.866	603.57
746.307	499.17
746.749	529.37
747.19	774.77
747.632	1538.07
748.073	2902.22
748.514	4137.42
748.956	5636.72
749.397	6680.32
749.838	4578.72
750.279	4497.27
750.72	2255.42
751.162	912.32
751.603	509.67
752.044	407.92
752.485	355.92
752.926	331.97
753.367	324.27
753.808	310.97
754.249	304.87
754.69	307.22
755.131	291.97
755.572	296.22
756.013	298.47
756.453	299.77
756.894	308.32
757.335	306.02
757.776	307.82
758.216	319.42
758.657	336.87
759.098	376.07
759.538	453.27
759.979	662.07
760.42	1323.97
760.86	3414.62
761.301	7339.72
761.741	9085.72
762.182	10918.92
762.622	6893.37
763.063	2344.77
763.503	941.87
763.943	541.72
764.384	425.97
764.824	365.12
765.264	334.02
765.705	319.12
766.145	304.42
766.585	288.57
767.025	274.92
767.465	277.62
767.906	281.97
768.346	302.62
768.786	344.77
769.226	522.02
769.666	1050.87
770.106	2422.27
770.546	3598.02
770.986	4265.27
771.426	3221.12
771.866	1284.52
772.306	898.97
772.745	690.07
773.185	627.42
773.625	620.37
774.065	632.07
774.505	735.17
774.944	1000.22
775.384	1297.42
775.824	1465.57
776.263	1285.92
776.703	850.47
777.142	640.67
777.582	574.62
778.021	565.02
778.461	555.82
778.9	557.22
779.34	553.02
779.779	541.07
780.219	539.32
780.658	539.92
781.097	534.07
781.537	533.62
781.976	530.12
782.415	528.27
782.855	526.37
783.294	530.17
783.733	522.47
784.172	532.27
784.611	528.97
785.05	537.77
785.489	541.32
785.928	541.92
786.367	552.52
786.806	560.07
787.245	573.52
787.684	585.72
788.123	577.57
788.562	575.87
789.001	563.87
789.44	560.02
789.879	560.37
790.317	559.72
790.756	570.27
791.195	599.92
791.634	685.42
792.072	941.67
792.511	1804.12
792.95	3134.47
793.388	3889.32
793.827	2652.07
794.265	1363.07
794.704	837.62
795.142	644.17
795.581	599.87
796.019	572.67
796.458	574.37
796.896	577.67
797.334	615.92
797.773	696.27
798.211	1012.12
798.649	1744.87
799.087	2737.37
799.526	3731.52
799.964	3926.87
800.402	2859.87
800.84	1442.97
801.278	868.67
801.716	670.47
802.154	602.72
802.592	591.72
803.03	597.72
803.468	594.12
803.906	601.17
804.344	598.27
804.782	591.87
805.22	588.37
805.658	599.37
806.096	619.67
806.533	644.62
806.971	720.07
807.409	883.37
807.847	1411.92
808.284	3088.92
808.722	5336.42
809.16	7330.37
809.597	9690.92
810.035	12443.32
810.472	8301.77
810.91	3581.57
811.347	1793.02
811.785	1030.12
812.222	774.72
812.66	683.92
813.097	638.92
813.535	603.62
813.972	575.27
814.409	558.32
814.846	547.62
815.284	540.92
815.721	542.72
816.158	553.27
816.595	616.67
817.032	687.77
817.47	665.42
817.907	580.87
818.344	552.97
818.781	544.27
819.218	579.97
819.655	697.17
820.092	796.92
820.529	765.32
820.966	678.57
821.403	584.12
821.839	549.67
822.276	568.02
822.713	609.67
823.15	601.72
823.587	607.72
824.023	806.07
824.46	1504.52
824.897	2448.37
825.333	2020.07
825.77	1095.57
826.206	731.27
826.643	576.12
827.08	528.37
827.516	506.77
827.953	496.37
828.389	490.82
828.825	478.82
829.262	477.52
829.698	469.62
830.135	463.67
830.571	465.07
831.007	468.42
831.443	468.92
831.88	463.17
832.316	474.22
832.752	473.57
833.188	470.52
833.624	475.52
834.06	474.62
834.497	473.92
834.933	482.87
835.369	493.32
835.805	499.82
836.241	500.92
836.677	518.97
837.112	540.37
837.548	589.87
837.984	691.87
838.42	1056.47
838.856	2351.27
839.292	4491.57
839.727	3461.82
840.163	2332.02
840.599	3362.42
841.034	5226.27
841.47	2798.82
841.906	1489.12
842.341	941.62
842.777	777.32
843.212	788.27
843.648	624.87
844.083	548.22
844.519	498.52
844.954	484.47
845.39	471.72
845.825	462.07
846.261	464.52
846.696	459.37
847.131	453.47
847.566	456.02
848.002	456.82
848.437	467.07
848.872	466.47
849.307	493.02
849.742	603.47
850.177	1016.67
850.613	1829.22
851.048	1436.02
851.483	834.92
851.918	617.72
852.353	500.22
852.788	463.47
853.223	452.92
853.657	443.67
854.092	444.22
854.527	442.62
854.962	447.02
855.397	456.37
855.832	443.62
856.266	433.57
856.701	430.52
857.136	434.77
857.57	450.57
858.005	464.37
858.44	450.02
858.874	451.22
859.309	447.27
859.743	454.07
860.178	447.47
860.612	451.87
861.047	482.47
861.481	531.02
861.915	476.27
862.35	448.77
862.784	433.87
863.218	430.27
863.653	434.02
864.087	447.87
864.521	478.57
864.955	553.72
865.39	706.37
865.824	606.17
866.258	657.32
866.692	821.42
867.126	697.62
867.56	536.47
867.994	472.87
868.428	457.12
868.862	481.47
869.296	468.72
869.73	494.42
870.164	476.62
870.598	468.22
871.031	440.62
871.465	431.77
871.899	422.22
872.333	411.77
872.766	413.52
873.2	413.57
873.634	409.07
874.067	415.97
874.501	414.82
874.935	413.77
875.368	415.77
875.802	411.27
876.235	407.67
876.669	406.77
877.102	403.87
877.535	405.27
877.969	403.42
878.402	404.42
878.836	404.42
879.269	401.27
879.702	405.22
880.135	407.52
880.569	410.62
881.002	399.67
881.435	410.02
881.868	407.17
882.301	401.87
882.734	399.67
883.167	404.47
883.601	402.72
884.034	402.37
884.467	400.67
884.899	401.72
885.332	391.07
885.765	399.67
886.198	398.52
886.631	394.92
887.064	397.02
887.497	394.42
887.929	398.27
888.362	398.07
888.795	396.27
889.228	399.82
889.66	395.02
890.093	394.12
890.526	392.77
890.958	394.32
891.391	396.37
891.823	393.12
892.256	399.37
892.688	396.12
893.121	395.02
893.553	397.32
893.985	389.37
894.418	393.12
894.85	393.42
895.282	394.82
895.715	390.37
896.147	393.62
896.579	386.82
897.011	395.67
897.444	395.12
897.876	385.82
898.308	388.82
898.74	394.22
899.172	392.67
899.604	397.37
900.036	394.57
900.468	392.32
900.9	394.32
901.332	403.82
901.764	401.72
902.196	402.92
902.628	402.92
903.06	416.17
903.491	423.42
903.923	411.42
904.355	412.87
904.787	413.97
905.218	403.57
905.65	402.92
906.082	402.02
906.513	398.57
906.945	399.57
907.376	394.12
907.808	401.87
908.239	404.02
908.671	406.32
909.102	407.52
909.534	427.17
909.965	489.57
910.397	695.97
910.828	1363.22
911.259	975.12
911.691	681.92
912.122	551.22
912.553	455.47
912.984	419.42
913.415	410.12
913.847	401.32
914.278	402.52
914.709	395.37
915.14	396.82
915.571	397.67
916.002	394.72
916.433	393.57
916.864	393.82
917.295	396.32
917.726	396.82
918.157	413.92
918.587	410.82
919.018	412.47
919.449	404.47
919.88	412.32
920.311	434.62
920.741	563.47
921.172	735.47
921.603	548.77
922.033	475.17
922.464	437.67
922.895	411.27
923.325	400.22
923.756	395.47
924.186	400.67
924.617	414.22
925.047	435.62
925.478	426.37
925.908	408.12
926.338	401.62
926.769	391.92
927.199	395.02
927.629	390.82
928.06	393.92
928.49	396.57
928.92	393.82
929.35	388.72
929.78	381.62
930.21	385.17
930.641	379.07
931.071	384.27
931.501	380.42
931.931	376.82
932.361	378.97
932.791	386.07
933.221	383.67
933.651	395.02
934.08	411.72
934.51	397.62
934.94	387.12
935.37	384.27
935.8	378.02
936.229	379.37
936.659	383.32
937.089	388.12
937.519	399.97
937.948	419.12
938.378	394.12
938.807	381.02
939.237	380.37
939.666	377.07
940.096	373.52
940.525	372.17
940.955	374.57
941.384	374.12
941.814	374.12
942.243	373.32
942.672	373.47
943.102	370.67
943.531	373.12
943.96	375.37
944.39	372.12
944.819	374.97
945.248	374.22
945.677	371.97
946.106	370.17
946.535	374.62
946.964	373.92
947.393	370.62
947.822	372.77
948.251	373.27
948.68	377.92
949.109	373.37
949.538	369.82
949.967	370.77
950.396	370.22
950.825	374.72
951.254	373.62
951.682	367.87
952.111	367.42
952.54	370.82
952.969	372.67
953.397	367.57
953.826	368.92
954.254	375.47
954.683	370.77
955.112	373.02
955.54	369.32
955.969	367.42
956.397	370.72
956.826	374.52
957.254	372.12
957.682	373.82
958.111	371.42
958.539	372.52
958.967	372.27
959.396	374.02
959.824	369.62
960.252	372.57
960.68	373.82
961.109	372.97
961.537	377.37
961.965	367.47
962.393	374.62
962.821	371.37
963.249	374.12
963.677	377.52
964.105	428.02
964.533	471.72
964.961	415.17
965.389	395.12
965.817	381.62
966.245	370.22
966.672	370.37
967.1	373.57
967.528	369.02
967.956	369.07
968.383	369.42
968.811	370.17
969.239	370.57
969.666	371.47
970.094	371.82
970.522	368.47
970.949	371.37
971.377	365.97
971.804	371.22
972.232	370.52
972.659	369.52
973.087	373.32
973.514	367.92
973.941	366.97
974.369	366.97
974.796	365.17
975.223	366.62
975.651	371.87
976.078	369.87
976.505	376.82
976.932	390.12
977.359	394.07
977.786	386.47
978.214	379.62
978.641	369.82
979.068	371.12
979.495	372.47
979.922	371.27
980.349	375.62
980.776	369.22
981.202	365.47
981.629	369.97
982.056	370.07
982.483	363.17
982.91	374.07
983.337	366.67
983.763	372.62
984.19	372.32
984.617	367.12
985.043	369.17
985.47	373.72
985.897	367.62
986.323	372.92
986.75	368.67
987.176	369.42
987.603	374.02
988.029	371.57
988.456	372.92
988.882	368.87
989.308	368.87
989.735	367.57
990.161	368.17
990.587	367.17
991.014	369.37
991.44	368.47
991.866	369.02
992.292	368.37
992.719	363.32
993.145	370.27
993.571	371.72
993.997	371.37
994.423	373.92
994.849	364.17
995.275	368.42
995.701	370.72
996.127	364.02
996.553	367.27
996.979	363.82
997.405	375.57
997.83	366.22
998.256	364.22
998.682	365.27
999.108	369.92
999.534	362.42
999.959	367.52
1000.385	371.97
1000.811	364.22
1001.236	361.12
1001.662	365.47
1002.087	372.27
1002.513	367.57
1002.938	367.42
1003.364	366.82
1003.789	370.87
1004.215	365.82
1004.64	366.52
1005.066	370.37
1005.491	372.67
1005.916	368.87
1006.342	371.62
1006.767	373.32
1007.192	370.82
1007.617	370.17
1008.042	368.62
1008.468	368.92
1008.893	369.62
1009.318	372.92
1009.743	376.87
1010.168	387.87
1010.593	382.32
1011.018	376.27
1011.443	372.57
1011.868	373.77
1012.293	372.92
1012.718	366.27
1013.143	370.07
1013.567	373.12
1013.992	370.97
1014.417	369.82
1014.842	369.97
1015.267	369.07
1015.691	371.77
1016.116	368.67
1016.541	370.07
1016.965	371.67
1017.39	369.47
1017.814	364.42
1018.239	359.32
1018.663	361.22
1019.088	364.47
1019.512	371.52
1019.937	368.22
1020.361	367.82
1020.785	365.02
1021.21	364.32
1021.634	367.62
1022.058	368.42
1022.483	362.02
1022.907	361.22
1023.331	366.27
1023.755	366.37
1024.179	365.17
1024.604	367.47
1025.028	365.22
1025.452	369.52
1025.876	364.77
1026.3	368.42
1026.724	362.77
1027.148	367.97
1027.572	369.67
1027.996	368.82
1028.42	367.27
1028.843	364.27
1029.267	364.97
1029.691	366.77
1030.115	367.17
1030.539	367.12
1030.962	366.12
1031.386	364.42
1031.81	363.37
1032.233	367.07
1032.657	360.37
1033.08	368.32
1033.504	361.32
1033.927	365.27
1034.351	365.42
1034.774	365.52
1035.198	367.22
1035.621	369.67
1036.045	367.12
1036.468	369.12
1036.891	366.02
1037.315	369.17
1037.738	367.82
1038.161	369.12
1038.584	366.32
1039.008	359.52
1039.431	363.27
1039.854	364.72
1040.277	371.67
1040.7	367.07
1041.123	366.57
1041.546	362.62
1041.969	369.77
1042.392	370.97
1042.815	361.87
1043.238	365.17
1043.661	365.62
1044.084	362.07
1044.507	365.42
1044.93	365.87
1045.352	367.82
1045.775	369.07
1046.198	365.32
1046.621	369.07
1047.043	364.97
1047.466	367.07
1047.889	363.22
1048.311	373.47
1048.734	363.47
1049.156	363.12
1049.579	364.12
1050.001	365.97
1050.424	367.22
1050.846	365.22
1051.269	362.57
1051.691	362.82
1052.113	368.92
1052.536	364.52
1052.958	361.67
1053.38	362.07
1053.802	368.82
1054.225	365.52
1054.647	370.22
1055.069	364.02
1055.491	366.92
1055.913	365.07
1056.335	358.22
1056.757	364.82
1057.179	364.72
1057.601	366.57
1058.023	366.62
1058.445	364.62
1058.867	367.27
1059.289	363.17
1059.711	362.52
1060.133	370.02
1060.555	359.77
1060.976	366.52
1061.398	363.82
1061.82	369.07
1062.241	364.22
1062.663	366.62
1063.085	361.27
1063.506	359.97
1063.928	360.17
1064.35	365.72
1064.771	368.87
1065.193	359.67
1065.614	366.42
1066.035	365.87
1066.457	367.42
1066.878	366.52
1067.3	364.07
1067.721	370.87
1068.142	369.17
1068.564	371.22
1068.985	367.67
1069.406	360.87
1069.827	366.67
1070.248	361.57
1070.67	361.67
1071.091	361.27
1071.512	362.57
1071.933	365.77
1072.354	360.87
1072.775	368.82
1073.196	370.07
1073.617	365.37
1074.038	366.07
1074.459	364.27
1074.88	362.72
1075.3	366.62
1075.721	365.77
1076.142	364.57
1076.563	364.52
1076.983	368.62
1077.404	360.22
1077.825	367.77
1078.246	361.27
1078.666	365.02
1079.087	366.52
1079.507	363.42
1079.928	365.77
1080.348	364.57
1080.769	370.47
1081.189	361.47
1081.61	358.52
1082.03	367.22
1082.451	367.02
1082.871	361.62
1083.291	363.77
1083.711	363.42
1084.132	365.37
1084.552	363.42
1084.972	363.52
1085.392	362.32
1085.813	365.32
1086.233	364.52
1086.653	368.77
1087.073	361.97
1087.493	363.57
1087.913	360.27
1088.333	364.67
1088.753	366.52
1089.173	370.62
1089.593	366.32
1090.013	362.27
1090.433	365.42
1090.852	363.92
1091.272	360.67
1091.692	367.67
1092.112	362.27
1092.531	361.52
1092.951	364.92
1093.371	367.07
1093.79	366.17
1094.21	363.22
1094.63	363.87
1095.049	366.77
1095.469	361.37
1095.888	366.27
1096.308	375.07
1096.727	364.17
1097.146	362.17
1097.566	364.87
1097.985	364.52
1098.405	364.87
1098.824	368.42
1099.243	363.52
1099.662	363.87
1100.082	366.32
1100.501	366.02
1100.92	368.27
1101.339	368.42
1101.758	374.62
