Data from MSPlasma+Separation6_Subt14_10-12-25-688.txt Node
Date: Fri Jul 21 10:12:25 EDT 2017
User: Ender
Spectrometer: HR+D1039
Trigger mode: 0
Integration Time (sec): 6.430000E-3
Scans to average: 20
Electric dark correction enabled: true
Nonlinearity correction enabled: false
Boxcar width: 0
XAxis mode: Wavelengths
Number of Pixels in Spectrum: 2048
>>>>>Begin Spectral Data<<<<<
187.836	-1.77
188.309	-1.77
188.782	-1.77
189.255	2.38
189.728	5.88
190.201	-1.12
190.674	2.93
191.147	-0.02
191.619	1.53
192.092	-2.92
192.565	-3.52
193.038	6.48
193.511	-0.22
193.984	0.08
194.456	-0.52
194.929	-3.47
195.402	-2.82
195.874	-2.87
196.347	-2.47
196.82	0.48
197.292	-3.92
197.765	-2.62
198.237	-2.17
198.71	-4.72
199.182	2.18
199.655	6.33
200.127	3.53
200.6	0.73
201.072	-0.02
201.544	-3.77
202.017	3.43
202.489	2.83
202.961	1.53
203.433	-1.72
203.906	-2.52
204.378	-3.72
204.85	-0.87
205.322	-0.42
205.794	2.18
206.266	0.18
206.739	4.53
207.211	0.03
207.683	2.58
208.155	2.68
208.627	-0.22
209.099	-0.57
209.57	1.93
210.042	0.48
210.514	1.93
210.986	-1.97
211.458	3.33
211.93	5.63
212.402	3.08
212.873	0.53
213.345	-3.82
213.817	4.73
214.288	-3.12
214.76	4.73
215.232	-2.52
215.703	0.58
216.175	3.78
216.646	0.33
217.118	2.08
217.589	-3.32
218.061	0.13
218.532	-2.22
219.004	4.03
219.475	-3.52
219.946	0.83
220.418	5.03
220.889	2.98
221.36	4.28
221.832	6.23
222.303	1.98
222.774	4.73
223.245	-0.02
223.717	2.48
224.188	-1.47
224.659	6.78
225.13	-1.27
225.601	3.98
226.072	2.53
226.543	8.93
227.014	3.28
227.485	4.08
227.956	2.73
228.427	11.03
228.898	7.23
229.369	1.48
229.839	3.83
230.31	6.13
230.781	0.53
231.252	10.98
231.722	2.68
232.193	4.68
232.664	5.73
233.135	4.83
233.605	7.18
234.076	11.38
234.546	9.33
235.017	9.78
235.487	5.13
235.958	4.83
236.428	8.68
236.899	9.38
237.369	11.08
237.84	11.98
238.31	11.63
238.78	2.23
239.251	6.48
239.721	9.08
240.191	8.73
240.662	8.93
241.132	5.28
241.602	9.98
242.072	6.48
242.542	4.03
243.013	13.03
243.483	12.78
243.953	8.63
244.423	12.63
244.893	5.43
245.363	12.98
245.833	9.53
246.303	8.58
246.773	13.98
247.243	12.78
247.712	12.58
248.182	14.38
248.652	14.88
249.122	13.13
249.592	14.88
250.061	16.53
250.531	6.93
251.001	13.08
251.471	11.98
251.94	13.13
252.41	18.18
252.879	11.53
253.349	22.03
253.818	14.28
254.288	20.98
254.757	15.23
255.227	16.83
255.696	22.33
256.166	25.38
256.635	19.73
257.105	20.68
257.574	19.13
258.043	18.68
258.513	21.43
258.982	20.13
259.451	25.83
259.92	21.98
260.389	22.93
260.859	23.18
261.328	21.38
261.797	22.23
262.266	23.03
262.735	24.28
263.204	26.13
263.673	25.63
264.142	18.58
264.611	23.83
265.08	28.23
265.549	24.98
266.018	26.33
266.487	26.63
266.955	22.48
267.424	27.73
267.893	28.23
268.362	25.98
268.83	29.88
269.299	25.43
269.768	28.33
270.236	29.38
270.705	30.13
271.174	27.93
271.642	25.93
272.111	31.33
272.579	28.68
273.048	28.83
273.516	29.93
273.985	31.38
274.453	32.78
274.922	31.48
275.39	26.93
275.858	34.68
276.327	30.78
276.795	30.98
277.263	32.43
277.731	35.93
278.2	35.03
278.668	36.78
279.136	36.68
279.604	36.08
280.072	35.98
280.54	37.08
281.008	39.23
281.477	38.13
281.945	36.23
282.413	37.43
282.881	37.33
283.348	39.53
283.816	41.83
284.284	39.48
284.752	44.28
285.22	45.58
285.688	39.83
286.156	46.48
286.623	50.13
287.091	43.08
287.559	47.53
288.026	47.83
288.494	46.33
288.962	44.68
289.429	47.98
289.897	47.63
290.364	45.88
290.832	46.43
291.3	46.38
291.767	50.18
292.234	52.23
292.702	49.08
293.169	51.08
293.637	51.68
294.104	48.63
294.571	52.88
295.039	55.28
295.506	51.38
295.973	50.48
296.44	53.08
296.908	59.53
297.375	56.83
297.842	57.78
298.309	52.38
298.776	58.63
299.243	56.13
299.71	60.68
300.177	58.13
300.644	58.78
301.111	57.03
301.578	57.63
302.045	57.38
302.512	56.23
302.979	63.88
303.446	62.33
303.913	65.93
304.379	65.63
304.846	64.43
305.313	70.13
305.78	69.68
306.246	71.78
306.713	70.78
307.18	76.53
307.646	71.03
308.113	72.03
308.579	76.88
309.046	74.88
309.512	78.33
309.979	79.78
310.445	76.63
310.912	75.63
311.378	79.68
311.845	85.98
312.311	80.38
312.777	79.73
313.244	85.53
313.71	82.63
314.176	89.93
314.642	90.68
315.109	87.88
315.575	84.73
316.041	85.98
316.507	86.03
316.973	94.28
317.439	90.83
317.905	94.83
318.371	89.83
318.837	90.33
319.303	97.68
319.769	89.58
320.235	98.53
320.701	96.48
321.167	97.88
321.633	97.53
322.099	98.28
322.564	97.18
323.03	95.63
323.496	99.83
323.962	99.33
324.427	102.18
324.893	103.68
325.359	110.28
325.824	109.98
326.29	110.48
326.755	105.28
327.221	106.63
327.686	114.88
328.152	113.38
328.617	115.08
329.083	115.23
329.548	118.83
330.014	122.13
330.479	122.03
330.944	123.48
331.41	129.08
331.875	120.93
332.34	120.28
332.805	123.88
333.271	123.43
333.736	123.78
334.201	123.18
334.666	133.18
335.131	129.28
335.596	135.13
336.061	129.58
336.526	128.73
336.991	123.23
337.456	122.68
337.921	124.18
338.386	124.43
338.851	128.23
339.316	127.28
339.781	127.73
340.246	133.73
340.711	131.28
341.175	137.18
341.64	141.88
342.105	138.83
342.569	151.08
343.034	142.03
343.499	141.73
343.963	146.63
344.428	153.53
344.893	152.88
345.357	156.33
345.822	155.18
346.286	156.93
346.751	160.03
347.215	163.68
347.679	171.28
348.144	178.93
348.608	176.83
349.073	181.43
349.537	185.03
350.001	183.73
350.465	187.93
350.93	180.33
351.394	191.18
351.858	187.33
352.322	193.03
352.786	192.88
353.25	194.18
353.715	189.58
354.179	208.28
354.643	210.28
355.107	213.38
355.571	204.03
356.035	196.68
356.498	200.83
356.962	202.28
357.426	198.43
357.89	195.63
358.354	194.58
358.818	201.23
359.281	199.83
359.745	206.68
360.209	198.53
360.673	200.03
361.136	198.58
361.6	204.18
362.064	207.63
362.527	217.68
362.991	210.38
363.454	212.88
363.918	217.43
364.381	221.93
364.845	215.58
365.308	213.93
365.772	220.53
366.235	220.43
366.698	215.23
367.162	213.93
367.625	221.18
368.088	224.28
368.552	218.83
369.015	224.33
369.478	224.28
369.941	228.88
370.404	230.73
370.867	230.28
371.331	231.08
371.794	233.98
372.257	240.18
372.72	235.63
373.183	242.28
373.646	236.43
374.109	240.58
374.572	237.58
375.035	244.33
375.497	245.13
375.96	252.58
376.423	257.33
376.886	253.18
377.349	261.13
377.811	259.78
378.274	263.13
378.737	257.13
379.199	258.18
379.662	260.93
380.125	267.88
380.587	275.08
381.05	274.78
381.512	275.58
381.975	281.08
382.437	289.03
382.9	286.98
383.362	290.23
383.825	291.83
384.287	294.33
384.75	290.68
385.212	295.38
385.674	290.63
386.136	302.98
386.599	299.88
387.061	296.78
387.523	310.68
387.985	307.18
388.447	308.73
388.91	308.63
389.372	311.98
389.834	312.03
390.296	303.28
390.758	308.83
391.22	305.98
391.682	312.58
392.144	307.03
392.606	311.13
393.068	325.58
393.529	345.08
393.991	350.13
394.453	333.93
394.915	319.18
395.377	306.68
395.838	312.98
396.3	312.68
396.762	325.78
397.224	319.88
397.685	321.73
398.147	325.78
398.608	330.98
399.07	332.03
399.531	333.63
399.993	342.98
400.454	349.93
400.916	341.63
401.377	359.18
401.839	357.58
402.3	353.78
402.762	369.23
403.223	401.63
403.684	398.43
404.145	374.63
404.607	367.38
405.068	354.53
405.529	360.68
405.99	359.58
406.451	371.38
406.913	359.28
407.374	366.43
407.835	367.63
408.296	376.83
408.757	371.28
409.218	388.73
409.679	392.93
410.14	395.83
410.601	411.33
411.062	416.23
411.522	420.43
411.983	424.58
412.444	432.43
412.905	442.43
413.366	460.08
413.826	479.43
414.287	553.18
414.748	684.33
415.208	692.03
415.669	561.03
416.13	514.68
416.59	504.83
417.051	529.68
417.511	548.33
417.972	596.58
418.432	647.08
418.893	735.33
419.353	699.43
419.814	525.33
420.274	463.38
420.734	452.93
421.195	466.73
421.655	460.23
422.115	466.03
422.576	461.38
423.036	469.43
423.496	482.48
423.956	503.93
424.416	536.08
424.876	601.28
425.336	594.83
425.797	580.93
426.257	570.13
426.717	530.78
427.177	478.58
427.637	465.53
428.097	475.18
428.556	489.43
429.016	525.63
429.476	519.33
429.936	488.03
430.396	479.33
430.856	487.98
431.315	490.18
431.775	534.58
432.235	579.23
432.694	595.18
433.154	543.48
433.614	536.48
434.073	517.53
434.533	478.83
434.993	467.23
435.452	477.83
435.912	475.18
436.371	479.53
436.83	481.58
437.29	481.18
437.749	477.28
438.209	478.18
438.668	487.98
439.127	503.93
439.587	505.08
440.046	489.88
440.505	504.48
440.964	505.03
441.424	525.48
441.883	533.33
442.342	519.38
442.801	495.93
443.26	508.83
443.719	507.63
444.178	496.23
444.637	510.53
445.096	513.98
445.555	519.88
446.014	521.88
446.473	519.08
446.932	514.53
447.391	528.13
447.849	530.13
448.308	528.23
448.767	532.88
449.226	535.18
449.685	549.33
450.143	584.53
450.602	570.93
451.061	534.68
451.519	536.73
451.978	523.73
452.436	526.83
452.895	532.03
453.353	531.68
453.812	520.48
454.27	529.43
454.729	525.83
455.187	535.03
455.646	533.38
456.104	535.78
456.562	540.73
457.021	548.88
457.479	530.83
457.937	543.73
458.395	556.88
458.854	555.78
459.312	545.38
459.77	550.08
460.228	559.03
460.686	569.93
461.144	564.48
461.602	564.38
462.06	558.18
462.518	576.93
462.976	574.28
463.434	576.88
463.892	577.88
464.35	592.43
464.808	604.93
465.266	605.43
465.724	617.48
466.181	619.53
466.639	613.23
467.097	631.48
467.555	658.13
468.012	646.63
468.47	649.28
468.928	674.68
469.385	697.48
469.843	698.08
470.3	687.68
470.758	702.48
471.215	712.73
471.673	723.63
472.13	748.13
472.588	766.43
473.045	759.58
473.503	765.78
473.96	797.58
474.417	798.88
474.875	822.48
475.332	841.48
475.789	849.48
476.246	862.68
476.704	876.53
477.161	883.43
477.618	898.98
478.075	911.03
478.532	923.53
478.989	953.98
479.446	1000.93
479.903	988.28
480.36	1008.28
480.817	1010.58
481.274	1008.98
481.731	1041.38
482.188	1061.58
482.645	1081.83
483.102	1102.43
483.558	1141.88
484.015	1154.53
484.472	1153.73
484.929	1157.78
485.385	1155.53
485.842	1164.23
486.299	1173.18
486.755	1165.53
487.212	1152.13
487.668	1117.53
488.125	1113.28
488.582	1098.93
489.038	1098.83
489.494	1125.18
489.951	1126.48
490.407	1122.18
490.864	1120.88
491.32	1120.48
491.776	1125.48
492.233	1140.43
492.689	1138.98
493.145	1130.18
493.602	1122.38
494.058	1146.73
494.514	1145.73
494.97	1159.68
495.426	1174.93
495.882	1171.08
496.338	1172.23
496.794	1185.53
497.251	1180.83
497.707	1200.68
498.163	1197.43
498.618	1206.28
499.074	1198.53
499.53	1214.08
499.986	1227.48
500.442	1228.78
500.898	1211.13
501.354	1219.38
501.809	1222.58
502.265	1223.38
502.721	1243.23
503.177	1245.48
503.632	1251.88
504.088	1256.23
504.543	1273.33
504.999	1279.08
505.455	1276.08
505.91	1268.73
506.366	1268.93
506.821	1267.73
507.277	1262.03
507.732	1267.38
508.187	1271.18
508.643	1276.88
509.098	1274.03
509.553	1296.58
510.009	1316.83
510.464	1341.98
510.919	1347.48
511.375	1358.88
511.83	1371.23
512.285	1400.38
512.74	1419.88
513.195	1437.98
513.65	1467.68
514.105	1494.58
514.56	1499.58
515.015	1531.13
515.47	1528.63
515.925	1505.68
516.38	1507.43
516.835	1515.88
517.29	1512.78
517.745	1521.93
518.2	1486.53
518.655	1449.68
519.109	1436.23
519.564	1413.13
520.019	1396.13
520.474	1388.08
520.928	1379.93
521.383	1362.53
521.838	1368.28
522.292	1366.03
522.747	1345.03
523.201	1336.13
523.656	1324.48
524.11	1315.03
524.565	1312.03
525.019	1314.78
525.474	1305.83
525.928	1298.78
526.382	1297.73
526.837	1302.28
527.291	1301.43
527.745	1297.68
528.2	1291.08
528.654	1280.68
529.108	1277.58
529.562	1280.08
530.016	1275.98
530.47	1282.23
530.925	1274.03
531.379	1270.13
531.833	1291.68
532.287	1293.08
532.741	1269.98
533.195	1273.08
533.649	1276.78
534.103	1275.33
534.556	1267.83
535.01	1278.28
535.464	1275.88
535.918	1271.63
536.372	1287.73
536.826	1276.23
537.279	1271.63
537.733	1265.68
538.187	1280.18
538.64	1274.08
539.094	1283.48
539.548	1306.78
540.001	1303.13
540.455	1308.13
540.908	1326.08
541.362	1329.68
541.815	1334.18
542.269	1362.83
542.722	1363.13
543.175	1381.03
543.629	1395.33
544.082	1400.83
544.536	1418.48
544.989	1427.83
545.442	1439.23
545.895	1435.78
546.349	1439.13
546.802	1431.63
547.255	1440.13
547.708	1454.78
548.161	1462.53
548.614	1466.58
549.067	1476.53
549.52	1461.48
549.973	1439.68
550.426	1435.03
550.879	1436.63
551.332	1415.93
551.785	1439.43
552.238	1447.88
552.691	1448.13
553.144	1476.08
553.596	1494.38
554.049	1510.18
554.502	1553.03
554.955	1579.98
555.407	1607.83
555.86	1585.38
556.313	1561.53
556.765	1527.23
557.218	1522.58
557.67	1505.88
558.123	1487.78
558.576	1482.58
559.028	1480.88
559.48	1505.13
559.933	1505.38
560.385	1445.88
560.838	1391.08
561.29	1352.68
561.742	1348.83
562.195	1314.53
562.647	1303.93
563.099	1295.13
563.551	1294.63
564.004	1311.93
564.456	1294.63
564.908	1259.53
565.36	1233.28
565.812	1208.13
566.264	1196.78
566.716	1170.03
567.168	1159.78
567.62	1161.08
568.072	1149.38
568.524	1149.63
568.976	1134.38
569.428	1128.98
569.88	1131.68
570.332	1143.68
570.784	1135.53
571.235	1130.88
571.687	1152.18
572.139	1150.38
572.59	1163.58
573.042	1160.53
573.494	1162.98
573.945	1137.53
574.397	1115.33
574.849	1107.78
575.3	1115.53
575.752	1092.23
576.203	1086.48
576.655	1091.38
577.106	1070.48
577.557	1070.73
578.009	1053.38
578.46	1067.33
578.912	1060.78
579.363	1068.48
579.814	1064.18
580.265	1061.08
580.717	1062.33
581.168	1060.83
581.619	1070.88
582.07	1075.78
582.521	1073.83
582.972	1054.78
583.423	1066.98
583.875	1078.18
584.326	1080.73
584.777	1105.08
585.227	1124.73
585.678	1134.03
586.129	1150.13
586.58	1159.63
587.031	1186.93
587.482	1220.63
587.933	1235.98
588.384	1231.13
588.834	1212.53
589.285	1217.33
589.736	1217.18
590.186	1218.83
590.637	1208.43
591.088	1167.13
591.538	1141.18
591.989	1138.83
592.439	1117.18
592.89	1102.58
593.34	1100.93
593.791	1092.43
594.241	1083.03
594.692	1078.53
595.142	1080.63
595.593	1069.23
596.043	1079.93
596.493	1095.93
596.943	1086.03
597.394	1116.98
597.844	1137.23
598.294	1164.13
598.744	1209.58
599.195	1274.53
599.645	1355.53
600.095	1431.68
600.545	1497.38
600.995	1572.13
601.445	1636.83
601.895	1723.53
602.345	1788.13
602.795	1759.43
603.245	1668.23
603.695	1564.98
604.145	1465.48
604.594	1386.03
605.044	1310.98
605.494	1223.18
605.944	1148.58
606.393	1116.48
606.843	1093.98
607.293	1101.13
607.743	1099.48
608.192	1108.88
608.642	1115.73
609.091	1116.03
609.541	1110.28
609.99	1107.08
610.44	1080.93
610.889	1076.28
611.339	1046.13
611.788	1038.08
612.238	1045.78
612.687	1042.98
613.136	1053.28
613.586	1057.63
614.035	1061.18
614.484	1065.38
614.933	1072.03
615.383	1047.63
615.832	1023.08
616.281	1009.53
616.73	990.88
617.179	970.98
617.628	939.53
618.077	923.08
618.526	906.68
618.975	907.83
619.424	891.98
619.873	898.58
620.322	885.53
620.771	884.83
621.22	871.83
621.669	853.53
622.118	833.83
622.567	828.18
623.015	809.33
623.464	811.68
623.913	798.78
624.361	807.18
624.81	799.28
625.259	800.13
625.707	797.03
626.156	802.58
626.604	810.18
627.053	818.73
627.501	816.13
627.95	826.38
628.398	838.78
628.847	831.08
629.295	818.53
629.744	814.68
630.192	798.83
630.64	779.13
631.089	766.13
631.537	742.63
631.985	727.93
632.433	735.48
632.881	730.93
633.33	729.33
633.778	733.13
634.226	738.73
634.674	739.58
635.122	742.68
635.57	759.73
636.018	775.13
636.466	763.43
636.914	762.28
637.362	778.38
637.81	789.73
638.258	822.53
638.705	823.23
639.153	858.23
639.601	857.53
640.049	874.28
640.497	900.73
640.944	929.58
641.392	875.28
641.84	797.43
642.287	759.73
642.735	737.88
643.182	711.38
643.63	708.63
644.078	696.88
644.525	700.33
644.973	705.73
645.42	707.73
645.867	711.23
646.315	709.88
646.762	721.38
647.21	708.03
647.657	724.93
648.104	706.58
648.551	687.33
648.999	679.53
649.446	672.38
649.893	675.78
650.34	679.43
650.787	695.58
651.234	718.38
651.682	779.73
652.129	857.68
652.576	983.83
653.023	1135.73
653.47	1222.43
653.917	1274.28
654.363	1314.08
654.81	1368.28
655.257	1399.03
655.704	1110.83
656.151	862.78
656.598	744.88
657.044	696.43
657.491	682.48
657.938	660.03
658.385	651.78
658.831	653.98
659.278	645.53
659.724	638.63
660.171	630.98
660.618	612.48
661.064	601.08
661.511	607.38
661.957	608.13
662.404	613.73
662.85	627.03
663.296	627.43
663.743	626.88
664.189	624.33
664.635	632.78
665.082	623.88
665.528	627.68
665.974	612.18
666.42	609.58
666.867	597.58
667.313	568.03
667.759	566.18
668.205	569.08
668.651	567.93
669.097	567.73
669.543	582.68
669.989	588.33
670.435	588.08
670.881	594.68
671.327	626.68
671.773	678.48
672.219	736.48
672.665	790.48
673.11	827.93
673.556	845.93
674.002	876.33
674.448	893.68
674.893	747.73
675.339	636.73
675.785	588.08
676.23	554.13
676.676	533.13
677.122	516.78
677.567	508.33
678.013	491.83
678.458	490.38
678.904	486.18
679.349	477.58
679.794	482.38
680.24	478.58
680.685	469.38
681.131	470.53
681.576	477.68
682.021	480.18
682.466	488.73
682.912	488.88
683.357	508.68
683.802	569.88
684.247	627.63
684.692	670.68
685.137	705.03
685.583	718.98
686.028	772.63
686.473	720.78
686.918	613.98
687.363	555.63
687.807	532.63
688.252	496.93
688.697	481.28
689.142	463.23
689.587	464.48
690.032	480.03
690.477	493.98
690.921	532.63
691.366	554.33
691.811	583.43
692.255	632.83
692.7	766.73
693.145	1120.33
693.589	1730.08
694.034	2098.58
694.478	2270.98
694.923	2107.28
695.367	3036.23
695.812	1812.53
696.256	731.13
696.701	525.38
697.145	479.18
697.59	455.43
698.034	448.13
698.478	450.43
698.922	456.08
699.367	464.03
699.811	491.98
700.255	533.13
700.699	596.58
701.143	652.53
701.588	696.23
702.032	724.58
702.476	755.08
702.92	781.73
703.364	1016.78
703.808	1581.13
704.252	2013.98
704.696	2181.18
705.14	2072.48
705.584	2888.43
706.027	1569.03
706.471	764.48
706.915	553.83
707.359	480.98
707.803	453.23
708.246	435.98
708.69	429.33
709.134	434.53
709.577	427.23
710.021	439.63
710.465	432.08
710.908	424.38
711.352	447.43
711.795	494.23
712.239	529.73
712.682	551.03
713.126	542.78
713.569	612.23
714.012	493.13
714.456	422.63
714.899	397.83
715.342	377.68
715.786	369.03
716.229	353.98
716.672	344.73
717.115	345.08
717.558	352.93
718.002	361.48
718.445	382.73
718.888	406.93
719.331	413.33
719.774	426.08
720.217	412.43
720.66	384.78
721.103	362.98
721.546	340.68
721.989	334.18
722.432	325.23
722.874	327.83
723.317	334.73
723.76	365.68
724.203	448.28
724.645	614.18
725.088	739.38
725.531	721.48
725.974	818.58
726.416	734.43
726.859	433.38
727.301	344.73
727.744	326.08
728.187	328.23
728.629	340.38
729.071	356.68
729.514	373.18
729.956	396.13
730.399	403.23
730.841	403.08
731.283	385.18
731.726	371.33
732.168	381.88
732.61	405.48
733.053	434.48
733.495	490.93
733.937	546.78
734.379	647.63
734.821	828.83
735.263	1306.33
735.705	2367.33
736.148	3530.63
736.59	3614.93
737.032	3981.53
737.474	3269.58
737.916	1229.08
738.357	625.03
738.799	470.73
739.241	428.88
739.683	429.33
740.125	441.83
740.567	447.63
741.008	476.93
741.45	497.18
741.892	526.43
742.334	530.98
742.775	526.78
743.217	499.18
743.658	419.18
744.1	426.33
744.542	484.33
744.983	506.28
745.425	531.88
745.866	526.93
746.307	435.48
746.749	470.48
747.19	698.23
747.632	1378.38
748.073	2605.98
748.514	3654.93
748.956	4942.18
749.397	5851.23
749.838	3990.28
750.279	3881.23
750.72	1974.38
751.162	807.48
751.603	448.78
752.044	362.53
752.485	318.43
752.926	297.38
753.367	283.88
753.808	274.48
754.249	266.78
754.69	266.73
755.131	262.68
755.572	267.53
756.013	264.98
756.453	262.58
756.894	270.23
757.335	265.08
757.776	274.03
758.216	287.33
758.657	300.28
759.098	331.18
759.538	400.58
759.979	582.53
760.42	1191.68
760.86	3069.63
761.301	6582.98
761.741	7978.88
762.182	9378.83
762.622	5995.88
763.063	2095.68
763.503	839.68
763.943	484.13
764.384	380.78
764.824	319.48
765.264	291.43
765.705	278.23
766.145	263.33
766.585	257.78
767.025	241.78
767.465	246.83
767.906	254.63
768.346	268.98
768.786	314.18
769.226	456.08
769.666	950.08
770.106	2157.88
770.546	3161.43
770.986	3669.08
771.426	2780.28
771.866	1123.78
772.306	836.93
772.745	647.28
773.185	595.33
773.625	593.78
774.065	603.98
774.505	694.88
774.944	941.08
775.384	1201.73
775.824	1323.98
776.263	1167.08
776.703	788.88
777.142	615.13
777.582	556.23
778.021	539.83
778.461	535.08
778.9	530.68
779.34	524.93
779.779	519.58
780.219	516.38
780.658	519.58
781.097	510.88
781.537	512.83
781.976	510.58
782.415	508.78
782.855	510.88
783.294	508.43
783.733	504.33
784.172	508.83
784.611	509.38
785.05	510.43
785.489	516.48
785.928	524.68
786.367	525.83
786.806	535.88
787.245	554.18
787.684	554.08
788.123	552.03
788.562	549.93
789.001	538.63
789.44	537.88
789.879	542.33
790.317	542.58
790.756	550.83
791.195	574.98
791.634	646.78
792.072	880.83
792.511	1658.78
792.95	2803.23
793.388	3418.58
793.827	2357.43
794.265	1249.63
794.704	781.38
795.142	616.48
795.581	570.88
796.019	545.98
796.458	547.43
796.896	550.88
797.334	582.58
797.773	657.78
798.211	943.93
798.649	1579.23
799.087	2439.38
799.526	3309.33
799.964	3465.33
800.402	2533.78
800.84	1310.33
801.278	813.63
801.716	632.53
802.154	582.93
802.592	569.58
803.03	569.08
803.468	573.73
803.906	574.78
804.344	571.13
804.782	562.63
805.22	566.43
805.658	572.78
806.096	590.88
806.533	608.73
806.971	688.58
807.409	832.98
807.847	1297.33
808.284	2778.48
808.722	4721.43
809.16	6497.33
809.597	8601.13
810.035	10916.63
810.472	7267.23
810.91	3209.68
811.347	1619.68
811.785	952.63
812.222	729.68
812.66	641.93
813.097	604.18
813.535	570.93
813.972	552.83
814.409	531.98
814.846	527.38
815.284	519.08
815.721	517.48
816.158	532.78
816.595	586.28
817.032	647.48
817.47	622.88
817.907	549.58
818.344	526.93
818.781	524.68
819.218	555.93
819.655	656.83
820.092	750.93
820.529	716.88
820.966	635.33
821.403	554.13
821.839	525.48
822.276	544.98
822.713	585.63
823.15	575.23
823.587	582.63
824.023	756.13
824.46	1368.63
824.897	2170.28
825.333	1814.03
825.77	1001.93
826.206	696.38
826.643	557.38
827.08	505.68
827.516	482.78
827.953	470.68
828.389	474.83
828.825	464.63
829.262	459.58
829.698	456.93
830.135	452.33
830.571	455.73
831.007	459.18
831.443	453.83
831.88	457.73
832.316	465.13
832.752	458.68
833.188	461.33
833.624	466.68
834.06	464.43
834.497	463.58
834.933	469.43
835.369	477.38
835.805	484.33
836.241	487.48
836.677	500.73
837.112	520.08
837.548	554.98
837.984	655.63
838.42	984.33
838.856	2118.83
839.292	3941.33
839.727	3069.63
840.163	2104.53
840.599	2992.43
841.034	4562.18
841.47	2495.28
841.906	1363.08
842.341	872.63
842.777	731.33
843.212	735.13
843.648	596.28
844.083	528.03
844.519	480.28
844.954	472.33
845.39	455.28
845.825	456.58
846.261	452.33
846.696	444.18
847.131	444.03
847.566	443.88
848.002	444.68
848.437	453.83
848.872	455.08
849.307	481.18
849.742	575.33
850.177	941.88
850.613	1632.33
851.048	1292.88
851.483	775.78
851.918	583.43
852.353	486.33
852.788	451.43
853.223	443.38
853.657	435.98
854.092	436.68
854.527	433.13
854.962	434.68
855.397	443.23
855.832	434.33
856.266	422.08
856.701	423.93
857.136	424.18
857.57	441.18
858.005	456.23
858.44	442.58
858.874	441.93
859.309	441.53
859.743	438.83
860.178	438.63
860.612	443.68
861.047	469.48
861.481	511.88
861.915	462.88
862.35	443.88
862.784	423.03
863.218	421.93
863.653	425.58
864.087	442.78
864.521	460.08
864.955	533.43
865.39	664.08
865.824	579.98
866.258	623.18
866.692	763.78
867.126	650.58
867.56	522.08
867.994	458.83
868.428	446.83
868.862	466.03
869.296	460.18
869.73	478.28
870.164	463.98
870.598	455.33
871.031	428.03
871.465	425.73
871.899	413.98
872.333	408.13
872.766	410.23
873.2	412.83
873.634	405.28
874.067	412.88
874.501	407.63
874.935	412.08
875.368	414.73
875.802	408.53
876.235	404.28
876.669	402.33
877.102	398.08
877.535	402.63
877.969	397.53
878.402	403.38
878.836	396.73
879.269	399.73
879.702	395.58
880.135	404.38
880.569	397.93
881.002	391.68
881.435	398.63
881.868	401.58
882.301	396.98
882.734	400.73
883.167	401.43
883.601	399.28
884.034	395.93
884.467	392.38
884.899	396.38
885.332	393.83
885.765	391.18
886.198	390.53
886.631	391.98
887.064	392.13
887.497	389.18
887.929	393.28
888.362	387.68
888.795	395.03
889.228	394.68
889.66	395.48
890.093	390.03
890.526	394.33
890.958	394.73
891.391	393.08
891.823	391.63
892.256	394.53
892.688	395.08
893.121	392.73
893.553	396.98
893.985	390.78
894.418	388.13
894.85	394.63
895.282	388.73
895.715	388.23
896.147	384.13
896.579	385.13
897.011	394.33
897.444	390.83
897.876	381.18
898.308	387.23
898.74	391.28
899.172	390.08
899.604	394.43
900.036	389.33
900.468	387.98
900.9	393.73
901.332	398.43
901.764	397.03
902.196	395.53
902.628	399.58
903.06	412.58
903.491	419.63
903.923	406.48
904.355	407.33
904.787	411.08
905.218	402.73
905.65	402.53
906.082	395.13
906.513	396.08
906.945	395.23
907.376	395.48
907.808	395.98
908.239	400.68
908.671	404.93
909.102	407.93
909.534	420.08
909.965	476.78
910.397	654.83
910.828	1225.93
911.259	898.13
911.691	643.48
912.122	528.38
912.553	445.83
912.984	408.93
913.415	406.58
913.847	396.03
914.278	399.08
914.709	393.18
915.14	397.38
915.571	393.88
916.002	394.68
916.433	390.73
916.864	389.88
917.295	389.33
917.726	400.13
918.157	410.33
918.587	403.38
919.018	401.78
919.449	395.93
919.88	404.43
920.311	426.03
920.741	543.53
921.172	691.58
921.603	521.13
922.033	466.53
922.464	432.58
922.895	400.13
923.325	392.43
923.756	391.98
924.186	391.88
924.617	408.13
925.047	430.58
925.478	423.28
925.908	405.43
926.338	395.13
926.769	391.08
927.199	387.38
927.629	387.33
928.06	391.73
928.49	393.93
928.92	390.18
929.35	385.33
929.78	386.08
930.21	381.53
930.641	375.68
931.071	379.43
931.501	383.08
931.931	376.33
932.361	380.28
932.791	387.88
933.221	384.78
933.651	394.63
934.08	410.08
934.51	388.63
934.94	386.28
935.37	384.23
935.8	378.58
936.229	377.08
936.659	379.18
937.089	386.48
937.519	398.78
937.948	413.13
938.378	393.98
938.807	382.78
939.237	377.13
939.666	380.88
940.096	373.58
940.525	369.73
940.955	373.73
941.384	374.58
941.814	371.33
942.243	375.18
942.672	372.43
943.102	373.28
943.531	371.68
943.96	371.58
944.39	373.48
944.819	373.83
945.248	373.48
945.677	374.73
946.106	377.18
946.535	369.88
946.964	375.08
947.393	369.33
947.822	371.48
948.251	376.03
948.68	374.58
949.109	370.33
949.538	373.28
949.967	374.68
950.396	367.53
950.825	373.13
951.254	374.48
951.682	366.18
952.111	369.88
952.54	371.18
952.969	370.03
953.397	366.48
953.826	367.58
954.254	371.13
954.683	367.68
955.112	378.03
955.54	372.03
955.969	371.48
956.397	370.38
956.826	371.83
957.254	367.48
957.682	369.53
958.111	372.68
958.539	370.53
958.967	370.48
959.396	373.83
959.824	373.98
960.252	372.38
960.68	374.78
961.109	371.58
961.537	376.98
961.965	369.53
962.393	368.98
962.821	368.58
963.249	372.08
963.677	377.28
964.105	416.73
964.533	457.08
964.961	407.08
965.389	387.63
965.817	376.63
966.245	377.38
966.672	369.93
967.1	370.03
967.528	367.68
967.956	370.38
968.383	373.93
968.811	370.43
969.239	372.78
969.666	369.93
970.094	373.83
970.522	368.68
970.949	371.93
971.377	367.23
971.804	368.98
972.232	369.23
972.659	369.68
973.087	369.38
973.514	365.93
973.941	370.48
974.369	368.13
974.796	370.58
975.223	369.13
975.651	369.53
976.078	368.13
976.505	374.33
976.932	387.68
977.359	390.58
977.786	381.88
978.214	378.43
978.641	364.58
979.068	370.13
979.495	368.23
979.922	372.13
980.349	368.78
980.776	372.53
981.202	367.58
981.629	372.58
982.056	371.18
982.483	366.73
982.91	376.93
983.337	365.93
983.763	371.43
984.19	372.38
984.617	369.43
985.043	367.33
985.47	368.53
985.897	368.23
986.323	373.18
986.75	369.08
987.176	370.43
987.603	374.78
988.029	371.73
988.456	371.88
988.882	369.68
989.308	365.13
989.735	367.53
990.161	369.33
990.587	365.08
991.014	367.18
991.44	366.93
991.866	371.38
992.292	371.03
992.719	364.43
993.145	372.78
993.571	370.33
993.997	373.13
994.423	370.83
994.849	363.13
995.275	368.93
995.701	368.28
996.127	364.93
996.553	368.08
996.979	370.53
997.405	371.53
997.83	367.53
998.256	370.28
998.682	365.78
999.108	370.58
999.534	362.38
999.959	367.38
1000.385	372.23
1000.811	368.08
1001.236	364.38
1001.662	365.28
1002.087	373.33
1002.513	366.98
1002.938	366.28
1003.364	368.28
1003.789	371.78
1004.215	369.23
1004.64	362.88
1005.066	369.38
1005.491	370.03
1005.916	367.73
1006.342	370.48
1006.767	371.38
1007.192	372.18
1007.617	370.33
1008.042	369.08
1008.468	367.13
1008.893	370.58
1009.318	370.38
1009.743	375.03
1010.168	383.43
1010.593	387.18
1011.018	380.28
1011.443	371.48
1011.868	372.53
1012.293	368.38
1012.718	369.98
1013.143	369.98
1013.567	375.08
1013.992	368.28
1014.417	369.28
1014.842	364.18
1015.267	367.38
1015.691	368.63
1016.116	369.83
1016.541	372.18
1016.965	367.78
1017.39	371.33
1017.814	363.53
1018.239	363.88
1018.663	363.48
1019.088	363.88
1019.512	370.93
1019.937	362.58
1020.361	373.53
1020.785	364.53
1021.21	366.88
1021.634	369.53
1022.058	369.98
1022.483	364.78
1022.907	363.78
1023.331	366.18
1023.755	363.03
1024.179	367.93
1024.604	364.88
1025.028	367.33
1025.452	371.88
1025.876	370.28
1026.3	367.58
1026.724	368.33
1027.148	367.28
1027.572	366.48
1027.996	372.88
1028.42	365.53
1028.843	365.28
1029.267	366.53
1029.691	371.83
1030.115	365.03
1030.539	366.08
1030.962	366.78
1031.386	371.08
1031.81	363.93
1032.233	363.38
1032.657	361.33
1033.08	368.33
1033.504	366.13
1033.927	370.63
1034.351	363.18
1034.774	367.93
1035.198	362.28
1035.621	367.93
1036.045	366.88
1036.468	374.53
1036.891	367.73
1037.315	371.28
1037.738	370.28
1038.161	367.93
1038.584	364.33
1039.008	360.43
1039.431	364.33
1039.854	360.33
1040.277	369.28
1040.7	366.68
1041.123	370.28
1041.546	367.23
1041.969	369.33
1042.392	370.03
1042.815	361.73
1043.238	366.08
1043.661	366.78
1044.084	362.23
1044.507	363.88
1044.93	367.08
1045.352	366.78
1045.775	365.83
1046.198	368.83
1046.621	370.48
1047.043	364.58
1047.466	371.23
1047.889	367.38
1048.311	367.33
1048.734	367.13
1049.156	366.38
1049.579	364.73
1050.001	365.83
1050.424	366.83
1050.846	364.38
1051.269	363.53
1051.691	367.23
1052.113	368.73
1052.536	367.08
1052.958	363.83
1053.38	367.58
1053.802	370.48
1054.225	366.53
1054.647	366.18
1055.069	364.88
1055.491	370.13
1055.913	365.38
1056.335	361.43
1056.757	361.88
1057.179	365.18
1057.601	367.33
1058.023	370.83
1058.445	365.13
1058.867	369.63
1059.289	367.73
1059.711	366.23
1060.133	367.08
1060.555	364.73
1060.976	366.23
1061.398	366.38
1061.82	364.48
1062.241	366.23
1062.663	363.03
1063.085	362.28
1063.506	359.68
1063.928	362.53
1064.35	367.13
1064.771	369.53
1065.193	364.28
1065.614	362.08
1066.035	370.68
1066.457	366.28
1066.878	370.03
1067.3	367.53
1067.721	367.78
1068.142	369.28
1068.564	364.23
1068.985	368.08
1069.406	363.98
1069.827	371.18
1070.248	368.23
1070.67	364.58
1071.091	363.13
1071.512	358.73
1071.933	362.73
1072.354	363.58
1072.775	363.78
1073.196	369.13
1073.617	363.28
1074.038	363.38
1074.459	367.43
1074.88	366.18
1075.3	366.83
1075.721	368.38
1076.142	361.03
1076.563	360.58
1076.983	368.68
1077.404	363.03
1077.825	367.83
1078.246	365.93
1078.666	361.03
1079.087	362.33
1079.507	364.43
1079.928	364.63
1080.348	364.08
1080.769	365.63
1081.189	363.63
1081.61	361.48
1082.03	370.73
1082.451	365.43
1082.871	364.13
1083.291	365.13
1083.711	367.33
1084.132	363.23
1084.552	362.08
1084.972	364.68
1085.392	364.23
1085.813	364.43
1086.233	369.28
1086.653	367.68
1087.073	368.18
1087.493	367.68
1087.913	360.58
1088.333	369.18
1088.753	367.58
1089.173	368.73
1089.593	366.68
1090.013	365.08
1090.433	363.13
1090.852	368.93
1091.272	363.93
1091.692	365.08
1092.112	361.53
1092.531	360.78
1092.951	366.93
1093.371	361.88
1093.79	365.83
1094.21	363.78
1094.63	365.63
1095.049	367.83
1095.469	361.78
1095.888	369.18
1096.308	370.18
1096.727	364.93
1097.146	364.38
1097.566	365.93
1097.985	362.23
1098.405	367.08
1098.824	366.78
1099.243	369.03
1099.662	368.18
1100.082	364.83
1100.501	366.58
1100.92	372.33
1101.339	368.58
1101.758	364.33
