Data from MSPlasma+Separation6_Subt14_10-12-34-340.txt Node
Date: Fri Jul 21 10:12:34 EDT 2017
User: Ender
Spectrometer: HR+D1039
Trigger mode: 0
Integration Time (sec): 6.430000E-3
Scans to average: 20
Electric dark correction enabled: true
Nonlinearity correction enabled: false
Boxcar width: 0
XAxis mode: Wavelengths
Number of Pixels in Spectrum: 2048
>>>>>Begin Spectral Data<<<<<
187.836	1.68
188.309	1.68
188.782	1.68
189.255	2.38
189.728	0.68
190.201	-2.32
190.674	0.83
191.147	0.58
191.619	-1.47
192.092	-2.42
192.565	-3.87
193.038	1.78
193.511	3.53
193.984	-1.52
194.456	0.93
194.929	-1.42
195.402	-3.82
195.874	4.38
196.347	5.08
196.82	2.28
197.292	-0.67
197.765	-1.82
198.237	-1.77
198.71	-2.77
199.182	-0.22
199.655	2.38
200.127	2.73
200.6	0.18
201.072	1.18
201.544	1.03
202.017	0.63
202.489	1.33
202.961	-0.97
203.433	-4.77
203.906	1.23
204.378	-0.87
204.85	-2.42
205.322	0.63
205.794	6.48
206.266	-3.82
206.739	-0.72
207.211	-1.47
207.683	-2.57
208.155	1.63
208.627	-1.12
209.099	2.43
209.57	2.08
210.042	4.78
210.514	-1.42
210.986	-1.62
211.458	-1.82
211.93	2.48
212.402	1.73
212.873	0.43
213.345	-2.27
213.817	3.23
214.288	-3.62
214.76	3.33
215.232	1.68
215.703	4.38
216.175	-1.37
216.646	5.83
217.118	0.58
217.589	-5.27
218.061	0.88
218.532	-3.77
219.004	-1.17
219.475	1.88
219.946	-0.32
220.418	2.88
220.889	0.28
221.36	3.48
221.832	3.98
222.303	2.98
222.774	0.83
223.245	-1.87
223.717	0.33
224.188	1.98
224.659	7.08
225.13	1.18
225.601	3.23
226.072	1.88
226.543	6.88
227.014	0.98
227.485	5.28
227.956	1.68
228.427	10.78
228.898	5.13
229.369	7.43
229.839	3.18
230.31	1.78
230.781	6.48
231.252	8.83
231.722	5.68
232.193	5.03
232.664	7.68
233.135	6.23
233.605	5.43
234.076	8.13
234.546	6.48
235.017	5.33
235.487	2.93
235.958	5.78
236.428	11.48
236.899	5.53
237.369	14.33
237.84	15.58
238.31	10.68
238.78	5.13
239.251	9.33
239.721	6.13
240.191	10.98
240.662	10.38
241.132	12.33
241.602	10.98
242.072	12.98
242.542	10.68
243.013	9.43
243.483	16.48
243.953	11.18
244.423	12.23
244.893	11.08
245.363	14.83
245.833	10.73
246.303	9.73
246.773	12.98
247.243	9.93
247.712	12.98
248.182	15.68
248.652	16.68
249.122	17.08
249.592	21.53
250.061	17.18
250.531	17.28
251.001	13.58
251.471	16.43
251.94	21.33
252.41	16.98
252.879	16.53
253.349	25.43
253.818	18.13
254.288	22.33
254.757	20.38
255.227	22.08
255.696	21.78
256.166	23.78
256.635	22.13
257.105	21.43
257.574	23.38
258.043	22.03
258.513	24.13
258.982	17.88
259.451	27.28
259.92	20.93
260.389	27.33
260.859	22.33
261.328	24.43
261.797	22.63
262.266	26.43
262.735	30.48
263.204	24.58
263.673	26.83
264.142	20.98
264.611	28.78
265.08	26.93
265.549	27.43
266.018	28.43
266.487	26.98
266.955	28.33
267.424	30.93
267.893	34.93
268.362	31.58
268.83	34.33
269.299	32.83
269.768	33.08
270.236	34.13
270.705	37.38
271.174	35.13
271.642	31.93
272.111	36.13
272.579	31.78
273.048	35.18
273.516	33.63
273.985	37.73
274.453	34.93
274.922	32.98
275.39	34.23
275.858	39.68
276.327	35.78
276.795	39.88
277.263	40.18
277.731	39.78
278.2	41.48
278.668	36.43
279.136	43.28
279.604	41.73
280.072	40.58
280.54	40.78
281.008	46.38
281.477	46.83
281.945	40.98
282.413	40.08
282.881	43.58
283.348	44.98
283.816	51.93
284.284	45.08
284.752	47.03
285.22	50.23
285.688	48.13
286.156	46.93
286.623	55.38
287.091	48.23
287.559	53.33
288.026	55.08
288.494	54.18
288.962	54.28
289.429	52.83
289.897	48.93
290.364	49.68
290.832	53.13
291.3	50.33
291.767	58.13
292.234	57.48
292.702	54.98
293.169	55.38
293.637	59.68
294.104	61.78
294.571	60.98
295.039	58.98
295.506	58.68
295.973	59.58
296.44	56.58
296.908	65.53
297.375	61.38
297.842	63.23
298.309	59.33
298.776	62.08
299.243	66.63
299.71	65.78
300.177	66.63
300.644	64.93
301.111	64.08
301.578	69.78
302.045	61.98
302.512	68.58
302.979	69.08
303.446	72.53
303.913	73.13
304.379	79.53
304.846	74.38
305.313	79.63
305.78	82.68
306.246	78.18
306.713	76.73
307.18	78.38
307.646	85.33
308.113	79.73
308.579	90.28
309.046	89.43
309.512	85.28
309.979	90.23
310.445	85.53
310.912	95.38
311.378	92.33
311.845	91.93
312.311	86.13
312.777	87.73
313.244	94.03
313.71	94.53
314.176	101.78
314.642	97.83
315.109	93.93
315.575	93.93
316.041	96.28
316.507	97.43
316.973	103.58
317.439	102.03
317.905	101.33
318.371	103.33
318.837	100.28
319.303	104.43
319.769	99.38
320.235	104.28
320.701	106.78
321.167	109.38
321.633	107.98
322.099	104.48
322.564	111.23
323.03	110.93
323.496	112.43
323.962	116.68
324.427	115.83
324.893	115.03
325.359	116.38
325.824	122.13
326.29	124.48
326.755	123.18
327.221	120.18
327.686	129.88
328.152	126.53
328.617	133.28
329.083	130.53
329.548	131.68
330.014	127.68
330.479	130.48
330.944	131.13
331.41	141.73
331.875	133.18
332.34	133.63
332.805	137.23
333.271	138.93
333.736	142.88
334.201	143.38
334.666	145.83
335.131	143.48
335.596	144.58
336.061	141.88
336.526	145.23
336.991	135.78
337.456	140.38
337.921	139.93
338.386	140.63
338.851	138.48
339.316	140.98
339.781	141.53
340.246	147.18
340.711	148.13
341.175	153.93
341.64	146.58
342.105	154.88
342.569	160.68
343.034	155.18
343.499	163.33
343.963	165.48
344.428	167.23
344.893	168.18
345.357	171.13
345.822	173.33
346.286	174.23
346.751	176.88
347.215	174.48
347.679	184.23
348.144	193.13
348.608	198.48
349.073	194.58
349.537	203.68
350.001	204.93
350.465	204.48
350.93	200.93
351.394	203.68
351.858	205.23
352.322	209.48
352.786	211.78
353.25	211.53
353.715	215.13
354.179	225.83
354.643	221.53
355.107	235.23
355.571	227.98
356.035	222.63
356.498	229.73
356.962	221.48
357.426	219.18
357.89	219.43
358.354	214.33
358.818	216.43
359.281	223.13
359.745	218.28
360.209	219.78
360.673	216.03
361.136	218.18
361.6	223.63
362.064	225.88
362.527	234.38
362.991	230.08
363.454	230.43
363.918	239.43
364.381	241.98
364.845	232.23
365.308	231.58
365.772	239.98
366.235	239.48
366.698	239.13
367.162	237.73
367.625	238.13
368.088	249.58
368.552	242.43
369.015	244.28
369.478	244.03
369.941	247.28
370.404	256.08
370.867	247.63
371.331	256.68
371.794	258.43
372.257	255.63
372.72	257.98
373.183	258.98
373.646	260.73
374.109	264.18
374.572	264.38
375.035	266.43
375.497	269.98
375.96	270.33
376.423	274.88
376.886	278.28
377.349	283.13
377.811	283.03
378.274	288.88
378.737	281.38
379.199	285.28
379.662	290.38
380.125	291.18
380.587	295.73
381.05	298.68
381.512	303.48
381.975	314.48
382.437	321.28
382.9	318.03
383.362	310.88
383.825	310.88
384.287	319.03
384.75	323.48
385.212	322.33
385.674	325.78
386.136	330.03
386.599	327.13
387.061	322.93
387.523	332.68
387.985	331.03
388.447	338.83
388.91	338.23
389.372	336.33
389.834	339.33
390.296	326.88
390.758	339.18
391.22	330.33
391.682	334.53
392.144	331.03
392.606	337.23
393.068	350.83
393.529	371.08
393.991	375.53
394.453	353.98
394.915	345.23
395.377	332.58
395.838	339.38
396.3	341.88
396.762	347.73
397.224	344.08
397.685	343.18
398.147	352.03
398.608	359.38
399.07	359.93
399.531	362.68
399.993	374.48
400.454	376.98
400.916	372.48
401.377	379.03
401.839	385.43
402.3	384.58
402.762	404.08
403.223	432.88
403.684	430.73
404.145	408.68
404.607	399.18
405.068	385.73
405.529	389.18
405.99	397.38
406.451	403.53
406.913	392.63
407.374	394.68
407.835	392.38
408.296	407.83
408.757	405.98
409.218	416.98
409.679	421.78
410.14	428.43
410.601	446.43
411.062	439.83
411.522	450.03
411.983	454.43
412.444	468.13
412.905	476.03
413.366	491.28
413.826	529.43
414.287	602.73
414.748	737.18
415.208	753.18
415.669	613.88
416.13	553.88
416.59	540.98
417.051	571.13
417.511	605.83
417.972	655.23
418.432	705.43
418.893	794.23
419.353	764.23
419.814	567.48
420.274	495.63
420.734	486.13
421.195	503.68
421.655	499.28
422.115	503.48
422.576	503.58
423.036	505.43
423.496	527.38
423.956	548.03
424.416	592.03
424.876	656.73
425.336	653.18
425.797	632.33
426.257	620.73
426.717	565.28
427.177	510.23
427.637	502.58
428.097	513.43
428.556	535.28
429.016	574.38
429.476	562.33
429.936	528.58
430.396	519.63
430.856	523.08
431.315	534.28
431.775	574.73
432.235	635.03
432.694	646.13
433.154	591.78
433.614	576.48
434.073	568.13
434.533	520.68
434.993	508.93
435.452	513.48
435.912	518.83
436.371	519.23
436.83	526.23
437.29	522.73
437.749	516.23
438.209	525.78
438.668	530.43
439.127	539.33
439.587	535.43
440.046	530.03
440.505	547.63
440.964	552.88
441.424	568.23
441.883	585.88
442.342	552.83
442.801	538.18
443.26	549.58
443.719	543.78
444.178	545.58
444.637	549.03
445.096	554.08
445.555	563.93
446.014	567.33
446.473	558.53
446.932	558.28
447.391	568.53
447.849	579.33
448.308	566.13
448.767	566.68
449.226	586.68
449.685	597.73
450.143	619.28
450.602	619.88
451.061	583.88
451.519	583.08
451.978	571.53
452.436	568.38
452.895	577.18
453.353	576.93
453.812	573.03
454.27	572.43
454.729	567.48
455.187	584.68
455.646	578.48
456.104	572.88
456.562	587.88
457.021	594.38
457.479	576.63
457.937	593.88
458.395	602.08
458.854	609.13
459.312	591.18
459.77	597.63
460.228	605.93
460.686	610.88
461.144	615.73
461.602	602.08
462.06	606.68
462.518	617.98
462.976	616.68
463.434	630.73
463.892	627.63
464.35	640.23
464.808	649.48
465.266	663.13
465.724	666.58
466.181	662.68
466.639	658.13
467.097	688.28
467.555	712.73
468.012	709.48
468.47	705.98
468.928	742.53
469.385	755.68
469.843	748.88
470.3	746.48
470.758	769.78
471.215	775.08
471.673	786.18
472.13	807.93
472.588	826.48
473.045	816.83
473.503	828.03
473.96	868.43
474.417	865.38
474.875	891.98
475.332	911.13
475.789	919.73
476.246	937.28
476.704	956.63
477.161	962.13
477.618	956.43
478.075	975.28
478.532	1010.38
478.989	1048.53
479.446	1085.58
479.903	1076.58
480.36	1097.78
480.817	1095.53
481.274	1104.38
481.731	1133.98
482.188	1156.48
482.645	1186.98
483.102	1190.33
483.558	1231.48
484.015	1260.53
484.472	1258.23
484.929	1266.18
485.385	1258.28
485.842	1263.53
486.299	1278.03
486.755	1273.48
487.212	1245.98
487.668	1221.88
488.125	1206.68
488.582	1191.13
489.038	1198.43
489.494	1222.33
489.951	1217.18
490.407	1216.03
490.864	1217.53
491.32	1219.13
491.776	1230.98
492.233	1241.73
492.689	1241.68
493.145	1231.83
493.602	1218.38
494.058	1238.58
494.514	1247.28
494.97	1249.58
495.426	1280.78
495.882	1285.03
496.338	1285.73
496.794	1289.33
497.251	1297.03
497.707	1309.38
498.163	1309.13
498.618	1317.83
499.074	1316.08
499.53	1325.48
499.986	1330.68
500.442	1333.33
500.898	1323.38
501.354	1340.38
501.809	1339.03
502.265	1343.13
502.721	1343.33
503.177	1352.33
503.632	1354.93
504.088	1364.33
504.543	1387.13
504.999	1388.68
505.455	1388.33
505.91	1374.68
506.366	1372.53
506.821	1386.13
507.277	1381.03
507.732	1380.38
508.187	1376.13
508.643	1387.18
509.098	1393.03
509.553	1406.58
510.009	1430.23
510.464	1457.88
510.919	1467.48
511.375	1483.28
511.83	1498.93
512.285	1521.33
512.74	1557.98
513.195	1563.48
513.65	1603.73
514.105	1627.38
514.56	1632.33
515.015	1662.73
515.47	1667.83
515.925	1651.98
516.38	1661.43
516.835	1661.38
517.29	1648.58
517.745	1655.33
518.2	1624.83
518.655	1573.08
519.109	1567.48
519.564	1540.53
520.019	1527.38
520.474	1519.88
520.928	1516.48
521.383	1490.28
521.838	1497.58
522.292	1482.08
522.747	1464.68
523.201	1469.58
523.656	1445.23
524.11	1431.63
524.565	1440.03
525.019	1444.28
525.474	1429.28
525.928	1416.63
526.382	1423.88
526.837	1422.08
527.291	1424.18
527.745	1408.83
528.2	1407.73
528.654	1396.93
529.108	1404.83
529.562	1401.88
530.016	1402.83
530.47	1398.43
530.925	1387.78
531.379	1385.88
531.833	1405.63
532.287	1411.03
532.741	1394.23
533.195	1398.28
533.649	1402.43
534.103	1396.83
534.556	1385.33
535.01	1398.08
535.464	1396.53
535.918	1397.48
536.372	1408.98
536.826	1395.78
537.279	1395.28
537.733	1391.73
538.187	1404.73
538.64	1395.53
539.094	1399.88
539.548	1419.68
540.001	1429.23
540.455	1425.93
540.908	1446.78
541.362	1459.58
541.815	1464.48
542.269	1495.78
542.722	1500.38
543.175	1508.83
543.629	1525.98
544.082	1537.58
544.536	1553.08
544.989	1553.58
545.442	1569.98
545.895	1572.83
546.349	1559.73
546.802	1572.33
547.255	1571.18
547.708	1583.93
548.161	1595.23
548.614	1602.78
549.067	1618.23
549.52	1598.53
549.973	1577.48
550.426	1573.18
550.879	1559.48
551.332	1558.78
551.785	1571.98
552.238	1582.58
552.691	1581.48
553.144	1611.78
553.596	1628.38
554.049	1658.18
554.502	1696.93
554.955	1728.43
555.407	1752.23
555.86	1738.13
556.313	1699.98
556.765	1695.23
557.218	1659.03
557.67	1655.73
558.123	1630.98
558.576	1636.98
559.028	1635.88
559.48	1661.63
559.933	1652.18
560.385	1590.68
560.838	1536.18
561.29	1484.98
561.742	1478.68
562.195	1441.43
562.647	1426.43
563.099	1425.28
563.551	1424.18
564.004	1438.88
564.456	1418.23
564.908	1384.08
565.36	1343.28
565.812	1316.23
566.264	1308.48
566.716	1289.38
567.168	1272.68
567.62	1265.48
568.072	1258.68
568.524	1247.68
568.976	1247.73
569.428	1231.98
569.88	1232.48
570.332	1250.23
570.784	1243.68
571.235	1229.33
571.687	1249.33
572.139	1250.93
572.59	1267.53
573.042	1270.18
573.494	1261.78
573.945	1251.98
574.397	1217.93
574.849	1216.88
575.3	1216.38
575.752	1193.53
576.203	1189.98
576.655	1192.28
577.106	1166.33
577.557	1171.28
578.009	1161.93
578.46	1172.68
578.912	1157.43
579.363	1163.93
579.814	1170.13
580.265	1158.63
580.717	1162.28
581.168	1161.78
581.619	1156.93
582.07	1173.08
582.521	1171.33
582.972	1166.58
583.423	1173.68
583.875	1179.63
584.326	1194.33
584.777	1200.03
585.227	1226.43
585.678	1234.38
586.129	1262.18
586.58	1270.58
587.031	1292.68
587.482	1329.08
587.933	1348.23
588.384	1337.58
588.834	1338.58
589.285	1323.63
589.736	1331.38
590.186	1333.43
590.637	1322.88
591.088	1273.23
591.538	1249.23
591.989	1235.63
592.439	1220.88
592.89	1208.63
593.34	1205.03
593.791	1196.48
594.241	1178.28
594.692	1183.33
595.142	1179.63
595.593	1170.63
596.043	1183.83
596.493	1188.43
596.943	1191.33
597.394	1227.88
597.844	1235.13
598.294	1274.58
598.744	1312.38
599.195	1385.53
599.645	1468.78
600.095	1552.53
600.545	1638.83
600.995	1711.83
601.445	1781.23
601.895	1886.23
602.345	1955.18
602.795	1923.68
603.245	1833.98
603.695	1711.28
604.145	1614.78
604.594	1526.33
605.044	1436.98
605.494	1324.63
605.944	1261.33
606.393	1225.88
606.843	1207.43
607.293	1215.13
607.743	1208.73
608.192	1210.38
608.642	1218.28
609.091	1216.68
609.541	1219.43
609.99	1211.83
610.44	1183.73
610.889	1176.48
611.339	1151.43
611.788	1132.73
612.238	1143.68
612.687	1138.08
613.136	1150.28
613.586	1165.08
614.035	1161.78
614.484	1175.68
614.933	1167.53
615.383	1140.28
615.832	1115.48
616.281	1102.93
616.73	1076.18
617.179	1052.83
617.628	1032.98
618.077	1011.83
618.526	1006.88
618.975	992.28
619.424	970.63
619.873	977.58
620.322	972.48
620.771	969.33
621.22	948.03
621.669	930.08
622.118	918.33
622.567	907.13
623.015	886.23
623.464	885.78
623.913	879.08
624.361	883.33
624.81	872.78
625.259	875.38
625.707	864.68
626.156	877.38
626.604	891.78
627.053	893.03
627.501	890.63
627.95	900.78
628.398	915.93
628.847	903.28
629.295	898.58
629.744	893.88
630.192	873.58
630.64	859.88
631.089	849.53
631.537	818.03
631.985	800.13
632.433	802.98
632.881	788.23
633.33	802.18
633.778	796.03
634.226	813.23
634.674	809.83
635.122	817.03
635.57	829.88
636.018	846.58
636.466	839.23
636.914	846.68
637.362	847.43
637.81	868.58
638.258	898.78
638.705	900.63
639.153	928.83
639.601	937.93
640.049	951.33
640.497	992.13
640.944	1011.38
641.392	954.58
641.84	875.58
642.287	821.58
642.735	796.48
643.182	782.03
643.63	773.23
644.078	763.48
644.525	769.73
644.973	773.73
645.42	782.43
645.867	772.98
646.315	779.18
646.762	789.68
647.21	778.23
647.657	786.13
648.104	774.38
648.551	745.58
648.999	736.08
649.446	734.38
649.893	731.18
650.34	750.03
650.787	764.18
651.234	789.78
651.682	854.93
652.129	928.98
652.576	1073.08
653.023	1230.78
653.47	1336.53
653.917	1386.93
654.363	1426.43
654.81	1496.88
655.257	1529.43
655.704	1213.23
656.151	945.88
656.598	823.53
657.044	762.28
657.491	749.28
657.938	728.98
658.385	716.83
658.831	714.18
659.278	703.58
659.724	705.08
660.171	699.78
660.618	672.98
661.064	656.43
661.511	668.43
661.957	666.08
662.404	671.08
662.85	679.43
663.296	689.08
663.743	678.88
664.189	687.73
664.635	691.33
665.082	684.23
665.528	685.28
665.974	669.43
666.42	662.48
666.867	655.88
667.313	622.68
667.759	621.93
668.205	619.13
668.651	624.13
669.097	622.43
669.543	631.23
669.989	644.83
670.435	641.13
670.881	649.93
671.327	685.88
671.773	736.68
672.219	800.73
672.665	864.98
673.11	901.33
673.556	926.53
674.002	962.68
674.448	989.53
674.893	814.33
675.339	692.08
675.785	642.03
676.23	613.03
676.676	589.33
677.122	569.83
677.567	551.38
678.013	533.18
678.458	532.63
678.904	527.38
679.349	523.18
679.794	525.48
680.24	531.83
680.685	520.28
681.131	520.23
681.576	523.83
682.021	528.18
682.466	532.58
682.912	534.08
683.357	564.43
683.802	614.13
684.247	689.03
684.692	721.98
685.137	761.98
685.583	786.93
686.028	843.53
686.473	795.43
686.918	672.98
687.363	614.73
687.807	573.93
688.252	551.03
688.697	525.53
689.142	504.33
689.587	511.58
690.032	515.38
690.477	538.58
690.921	576.68
691.366	609.08
691.811	635.18
692.255	680.43
692.7	838.78
693.145	1213.43
693.589	1877.73
694.034	2266.48
694.478	2487.43
694.923	2317.13
695.367	3363.53
695.812	1997.78
696.256	805.68
696.701	569.83
697.145	522.33
697.59	505.23
698.034	494.68
698.478	490.93
698.922	492.08
699.367	510.38
699.811	533.98
700.255	585.83
700.699	648.23
701.143	711.18
701.588	758.93
702.032	793.03
702.476	815.83
702.92	856.53
703.364	1109.78
703.808	1711.18
704.252	2186.18
704.696	2374.13
705.14	2269.63
705.584	3197.23
706.027	1724.28
706.471	838.58
706.915	605.88
707.359	539.58
707.803	494.73
708.246	471.73
708.69	474.08
709.134	470.88
709.577	466.58
710.021	474.38
710.465	474.33
710.908	467.13
711.352	489.38
711.795	537.08
712.239	585.83
712.682	604.98
713.126	588.23
713.569	669.73
714.012	542.28
714.456	465.13
714.899	436.53
715.342	415.23
715.786	401.13
716.229	392.13
716.672	375.93
717.115	380.58
717.558	381.83
718.002	400.43
718.445	411.38
718.888	446.43
719.331	453.93
719.774	466.78
720.217	452.58
720.66	421.18
721.103	396.18
721.546	373.78
721.989	367.13
722.432	363.63
722.874	359.38
723.317	362.08
723.76	394.88
724.203	489.38
724.645	666.98
725.088	807.03
725.531	803.28
725.974	904.03
726.416	791.68
726.859	470.53
727.301	378.03
727.744	357.43
728.187	357.43
728.629	369.28
729.071	388.93
729.514	414.13
729.956	431.33
730.399	440.58
730.841	439.53
731.283	425.63
731.726	408.58
732.168	413.63
732.61	443.78
733.053	475.88
733.495	531.73
733.937	599.03
734.379	700.18
734.821	906.18
735.263	1419.43
735.705	2566.03
736.148	3854.33
736.59	3954.38
737.032	4426.93
737.474	3616.98
737.916	1346.58
738.357	683.08
738.799	521.18
739.241	471.38
739.683	475.43
740.125	481.48
740.567	492.73
741.008	520.18
741.45	541.68
741.892	573.33
742.334	583.93
742.775	580.88
743.217	553.23
743.658	460.33
744.1	464.63
744.542	523.03
744.983	554.58
745.425	592.98
745.866	578.48
746.307	484.48
746.749	521.98
747.19	758.53
747.632	1496.73
748.073	2821.98
748.514	3978.98
748.956	5416.73
749.397	6426.93
749.838	4403.13
750.279	4307.68
750.72	2160.48
751.162	884.23
751.603	496.18
752.044	397.18
752.485	350.03
752.926	323.98
753.367	312.68
753.808	306.83
754.249	298.38
754.69	296.38
755.131	290.18
755.572	286.58
756.013	288.13
756.453	292.53
756.894	293.23
757.335	293.03
757.776	292.98
758.216	311.53
758.657	327.98
759.098	356.83
759.538	442.93
759.979	639.88
760.42	1290.83
760.86	3318.68
761.301	7141.28
761.741	8706.93
762.182	10423.98
762.622	6585.28
763.063	2275.73
763.503	910.38
763.943	522.53
764.384	407.03
764.824	354.18
765.264	321.48
765.705	304.28
766.145	286.68
766.585	278.83
767.025	268.08
767.465	273.18
767.906	276.23
768.346	296.78
768.786	341.13
769.226	503.68
769.666	1026.63
770.106	2346.08
770.546	3473.93
770.986	4079.28
771.426	3080.98
771.866	1230.53
772.306	546.63
772.745	328.73
773.185	272.13
773.625	261.23
774.065	274.48
774.505	371.98
774.944	658.78
775.384	955.98
775.824	1108.53
776.263	939.78
776.703	485.23
777.142	283.23
777.582	213.88
778.021	198.98
778.461	191.38
778.9	192.43
779.34	186.03
779.779	181.13
780.219	177.18
780.658	171.13
781.097	173.23
781.537	167.13
781.976	163.33
782.415	162.88
782.855	165.53
783.294	164.83
783.733	155.23
784.172	163.73
784.611	164.98
785.05	171.43
785.489	179.73
785.928	182.08
786.367	187.13
786.806	195.78
787.245	213.78
787.684	223.18
788.123	217.63
788.562	207.23
789.001	196.53
789.44	196.83
789.879	196.83
790.317	194.08
790.756	202.08
791.195	239.93
791.634	329.38
792.072	589.88
792.511	1472.38
792.95	2810.23
793.388	3555.08
793.827	2305.33
794.265	1015.08
794.704	473.53
795.142	285.38
795.581	237.08
796.019	209.53
796.458	204.33
796.896	209.93
797.334	249.98
797.773	336.98
798.211	650.28
798.649	1402.33
799.087	2401.08
799.526	3408.48
799.964	3598.68
800.402	2512.33
800.84	1091.68
801.278	515.83
801.716	309.88
802.154	246.08
802.592	230.33
803.03	235.03
803.468	242.08
803.906	247.48
804.344	235.58
804.782	225.28
805.22	226.58
805.658	242.43
806.096	254.53
806.533	285.73
806.971	366.78
807.409	530.38
807.847	1062.83
808.284	2750.53
808.722	5026.68
809.16	7054.83
809.597	9435.78
810.035	12139.48
810.472	7989.98
810.91	3265.13
811.347	1440.78
811.785	668.78
812.222	422.43
812.66	317.28
813.097	272.08
813.535	239.18
813.972	209.78
814.409	195.98
814.846	185.08
815.284	179.18
815.721	182.18
816.158	195.63
816.595	248.58
817.032	328.48
817.47	301.68
817.907	220.03
818.344	188.83
818.781	181.93
819.218	222.43
819.655	334.33
820.092	443.83
820.529	401.78
820.966	317.18
821.403	222.08
821.839	184.68
822.276	201.48
822.713	251.43
823.15	237.48
823.587	247.78
824.023	442.98
824.46	1153.18
824.897	2104.38
825.333	1671.88
825.77	737.03
826.206	373.73
826.643	213.83
827.08	169.18
827.516	145.43
827.953	131.48
828.389	123.48
828.825	118.93
829.262	112.13
829.698	108.03
830.135	102.08
830.571	105.23
831.007	102.53
831.443	105.78
831.88	104.53
832.316	109.83
832.752	109.13
833.188	110.33
833.624	108.48
834.06	111.53
834.497	112.13
834.933	112.48
835.369	127.68
835.805	128.78
836.241	136.13
836.677	153.08
837.112	173.63
837.548	213.98
837.984	331.68
838.42	697.53
838.856	2004.08
839.292	4162.18
839.727	3129.88
840.163	2002.33
840.599	3027.23
841.034	4904.63
841.47	2450.03
841.906	1144.93
842.341	590.48
842.777	419.73
843.212	426.68
843.648	263.18
844.083	182.58
844.519	139.03
844.954	117.23
845.39	106.88
845.825	100.53
846.261	100.03
846.696	92.78
847.131	86.48
847.566	89.73
848.002	90.73
848.437	101.78
848.872	97.08
849.307	130.78
849.742	244.33
850.177	654.93
850.613	1475.53
851.048	1078.43
851.483	471.23
851.918	253.23
852.353	134.83
852.788	96.08
853.223	88.18
853.657	77.38
854.092	77.33
854.527	72.38
854.962	78.63
855.397	87.98
855.832	77.63
856.266	71.83
856.701	68.53
857.136	68.03
857.57	79.93
858.005	105.98
858.44	88.43
858.874	84.88
859.309	87.78
859.743	84.88
860.178	79.18
860.612	88.23
861.047	121.58
861.481	167.13
861.915	111.48
862.35	84.18
862.784	70.88
863.218	68.88
863.653	71.93
864.087	84.88
864.521	108.98
864.955	189.83
865.39	343.63
865.824	246.68
866.258	298.18
866.692	461.48
867.126	335.58
867.56	175.68
867.994	111.08
868.428	90.48
868.862	116.43
869.296	107.03
869.73	134.23
870.164	117.08
870.598	102.63
871.031	74.58
871.465	66.68
871.899	55.68
872.333	49.83
872.766	51.58
873.2	52.53
873.634	43.58
874.067	48.13
874.501	50.08
874.935	52.38
875.368	53.43
875.802	51.83
876.235	45.18
876.669	42.83
877.102	37.38
877.535	37.93
877.969	36.83
878.402	38.58
878.836	37.48
879.269	37.73
879.702	39.03
880.135	41.38
880.569	41.58
881.002	31.28
881.435	36.38
881.868	34.98
882.301	37.18
882.734	33.18
883.167	38.23
883.601	37.38
884.034	35.98
884.467	34.28
884.899	35.68
885.332	31.63
885.765	31.03
886.198	31.93
886.631	36.58
887.064	29.18
887.497	28.13
887.929	31.23
888.362	28.28
888.795	29.03
889.228	32.58
889.66	33.88
890.093	31.98
890.526	31.83
890.958	27.53
891.391	33.63
891.823	26.58
892.256	31.13
892.688	34.08
893.121	29.18
893.553	33.58
893.985	26.63
894.418	24.88
894.85	33.73
895.282	28.98
895.715	23.88
896.147	19.43
896.579	20.93
897.011	33.13
897.444	29.73
897.876	23.93
898.308	24.28
898.74	26.68
899.172	30.13
899.604	25.83
900.036	27.13
900.468	22.13
900.9	26.53
901.332	35.93
901.764	33.88
902.196	34.73
902.628	34.23
903.06	49.63
903.491	59.88
903.923	46.83
904.355	46.53
904.787	48.53
905.218	41.78
905.65	39.83
906.082	33.08
906.513	30.98
906.945	33.78
907.376	34.08
907.808	33.93
908.239	35.88
908.671	40.78
909.102	44.68
909.534	66.48
909.965	125.98
910.397	333.33
910.828	1003.58
911.259	617.03
911.691	316.88
912.122	185.28
912.553	92.28
912.984	51.28
913.415	43.78
913.847	37.48
914.278	37.33
914.709	31.58
915.14	27.63
915.571	33.88
916.002	26.23
916.433	27.58
916.864	29.03
917.295	32.28
917.726	35.33
918.157	45.38
918.587	44.83
919.018	38.18
919.449	38.93
919.88	45.18
920.311	71.18
920.741	204.23
921.172	376.28
921.603	180.13
922.033	111.63
922.464	74.78
922.895	48.63
923.325	31.13
923.756	23.03
924.186	33.28
924.617	50.98
925.047	74.43
925.478	61.98
925.908	44.28
926.338	33.63
926.769	26.78
927.199	30.53
927.629	27.13
928.06	27.08
928.49	30.63
928.92	22.33
929.35	21.68
929.78	13.03
930.21	13.18
930.641	10.83
931.071	12.33
931.501	12.73
931.931	12.63
932.361	17.58
932.791	18.28
933.221	19.23
933.651	25.48
934.08	48.28
934.51	28.33
934.94	20.88
935.37	14.23
935.8	15.93
936.229	13.23
936.659	11.13
937.089	23.53
937.519	41.98
937.948	54.98
938.378	34.38
938.807	14.43
939.237	13.18
939.666	10.08
940.096	4.68
940.525	2.63
940.955	13.38
941.384	7.18
941.814	7.43
942.243	10.33
942.672	7.28
943.102	5.88
943.531	2.18
943.96	9.03
944.39	7.33
944.819	11.38
945.248	5.43
945.677	8.93
946.106	6.23
946.535	9.83
946.964	6.53
947.393	5.08
947.822	0.43
948.251	9.53
948.68	7.73
949.109	8.73
949.538	2.23
949.967	10.38
950.396	5.53
950.825	11.18
951.254	5.88
951.682	2.13
952.111	4.93
952.54	3.78
952.969	6.83
953.397	4.08
953.826	3.18
954.254	7.38
954.683	5.23
955.112	7.43
955.54	3.53
955.969	1.48
956.397	3.38
956.826	2.88
957.254	5.98
957.682	8.73
958.111	6.78
958.539	7.28
958.967	3.83
959.396	9.48
959.824	3.88
960.252	5.73
960.68	4.98
961.109	9.28
961.537	8.73
961.965	-2.07
962.393	1.43
962.821	2.53
963.249	8.28
963.677	7.93
964.105	57.73
964.533	111.23
964.961	45.73
965.389	28.43
965.817	16.33
966.245	10.13
966.672	8.53
967.1	9.53
967.528	2.13
967.956	-2.12
968.383	2.43
968.811	3.98
969.239	2.23
969.666	0.23
970.094	7.68
970.522	2.58
970.949	6.18
971.377	-5.52
971.804	-0.17
972.232	-0.87
972.659	0.18
973.087	0.38
973.514	5.03
973.941	0.68
974.369	-0.72
974.796	6.33
975.223	0.58
975.651	3.68
976.078	1.43
976.505	8.88
976.932	21.68
977.359	30.43
977.786	17.33
978.214	14.88
978.641	4.08
979.068	8.38
979.495	1.43
979.922	3.58
980.349	3.73
980.776	5.58
981.202	6.18
981.629	10.88
982.056	5.48
982.483	-1.97
982.91	6.58
983.337	0.23
983.763	3.53
984.19	0.63
984.617	3.03
985.043	2.78
985.47	6.13
985.897	-1.77
986.323	6.18
986.75	2.83
987.176	4.13
987.603	-0.17
988.029	5.78
988.456	10.78
988.882	0.83
989.308	-1.37
989.735	0.93
990.161	2.43
990.587	2.63
991.014	7.53
991.44	4.93
991.866	0.38
992.292	1.23
992.719	3.18
993.145	2.58
993.571	6.18
993.997	8.43
994.423	6.58
994.849	-2.62
995.275	2.53
995.701	0.33
996.127	-1.62
996.553	0.98
996.979	-1.52
997.405	5.98
997.83	4.78
998.256	1.53
998.682	-3.32
999.108	2.43
999.534	-2.62
999.959	2.18
1000.385	3.38
1000.811	1.73
1001.236	-4.17
1001.662	0.13
1002.087	8.68
1002.513	-2.32
1002.938	-0.77
1003.364	4.28
1003.789	1.78
1004.215	1.58
1004.64	-0.02
1005.066	2.63
1005.491	4.53
1005.916	1.68
1006.342	7.43
1006.767	3.08
1007.192	5.68
1007.617	0.78
1008.042	-1.37
1008.468	0.53
1008.893	3.13
1009.318	3.88
1009.743	5.33
1010.168	18.68
1010.593	20.13
1011.018	7.78
1011.443	6.53
1011.868	6.93
1012.293	4.43
1012.718	1.88
1013.143	-0.42
1013.567	7.78
1013.992	7.68
1014.417	1.78
1014.842	0.98
1015.267	1.73
1015.691	7.73
1016.116	-1.37
1016.541	1.33
1016.965	1.03
1017.39	3.48
1017.814	-1.07
1018.239	-4.47
1018.663	-7.22
1019.088	-4.17
1019.512	5.73
1019.937	-1.17
1020.361	2.68
1020.785	-0.62
1021.21	-0.42
1021.634	-1.02
1022.058	4.08
1022.483	-1.02
1022.907	0.23
1023.331	1.68
1023.755	0.13
1024.179	0.58
1024.604	2.03
1025.028	3.63
1025.452	3.23
1025.876	3.93
1026.3	3.83
1026.724	1.73
1027.148	2.33
1027.572	0.08
1027.996	6.58
1028.42	3.38
1028.843	2.08
1029.267	-1.12
1029.691	-0.02
1030.115	-3.77
1030.539	2.23
1030.962	0.68
1031.386	-2.47
1031.81	1.88
1032.233	-2.97
1032.657	-1.47
1033.08	1.63
1033.504	2.43
1033.927	-1.92
1034.351	-4.57
1034.774	-0.87
1035.198	-1.82
1035.621	2.23
1036.045	2.58
1036.468	5.13
1036.891	1.23
1037.315	3.43
1037.738	0.13
1038.161	-0.82
1038.584	0.53
1039.008	-5.37
1039.431	-2.67
1039.854	-3.62
1040.277	2.48
1040.7	-0.92
1041.123	2.58
1041.546	-1.07
1041.969	3.18
1042.392	2.58
1042.815	-3.87
1043.238	0.13
1043.661	-0.27
1044.084	-1.17
1044.507	-4.42
1044.93	1.43
1045.352	1.93
1045.775	-1.32
1046.198	3.63
1046.621	1.08
1047.043	3.58
1047.466	2.38
1047.889	-0.22
1048.311	0.53
1048.734	2.58
1049.156	-2.42
1049.579	1.63
1050.001	1.08
1050.424	-0.32
1050.846	-3.32
1051.269	-1.77
1051.691	1.13
1052.113	-2.57
1052.536	-0.72
1052.958	-5.12
1053.38	1.18
1053.802	0.08
1054.225	3.93
1054.647	5.58
1055.069	-0.62
1055.491	0.43
1055.913	3.38
1056.335	-9.32
1056.757	-5.92
1057.179	-6.72
1057.601	0.63
1058.023	0.93
1058.445	-6.47
1058.867	0.08
1059.289	0.03
1059.711	-3.32
1060.133	-1.82
1060.555	-0.02
1060.976	2.33
1061.398	-0.52
1061.82	-0.57
1062.241	-3.07
1062.663	-0.57
1063.085	-4.57
1063.506	-6.07
1063.928	-1.97
1064.35	1.53
1064.771	2.83
1065.193	-3.77
1065.614	-5.42
1066.035	2.13
1066.457	4.93
1066.878	5.83
1067.3	-2.27
1067.721	-0.27
1068.142	3.98
1068.564	2.93
1068.985	2.03
1069.406	-3.37
1069.827	-0.37
1070.248	-4.22
1070.67	-3.07
1071.091	-5.32
1071.512	-2.67
1071.933	-4.82
1072.354	-9.87
1072.775	-1.07
1073.196	-1.12
1073.617	-5.97
1074.038	-1.17
1074.459	-4.57
1074.88	-2.87
1075.3	0.73
1075.721	3.83
1076.142	0.28
1076.563	-4.57
1076.983	1.08
1077.404	-6.42
1077.825	-1.07
1078.246	-1.47
1078.666	-1.57
1079.087	-1.97
1079.507	-4.02
1079.928	-2.72
1080.348	-1.32
1080.769	1.28
1081.189	-1.82
1081.61	-4.92
1082.03	-1.97
1082.451	-1.82
1082.871	-3.82
1083.291	0.08
1083.711	-1.87
1084.132	-3.32
1084.552	-6.12
1084.972	-5.92
1085.392	-6.27
1085.813	0.63
1086.233	-1.77
1086.653	4.13
1087.073	-2.47
1087.493	-4.02
1087.913	0.38
1088.333	-1.17
1088.753	1.08
1089.173	2.03
1089.593	2.58
1090.013	-3.22
1090.433	-4.57
1090.852	2.78
1091.272	-6.77
1091.692	2.98
1092.112	-1.52
1092.531	-4.67
1092.951	-3.07
1093.371	0.58
1093.79	-1.67
1094.21	-4.07
1094.63	3.68
1095.049	-2.32
1095.469	-6.67
1095.888	-0.47
1096.308	2.43
1096.727	-6.42
1097.146	-3.42
1097.566	-3.57
1097.985	-1.82
1098.405	3.38
1098.824	1.88
1099.243	-2.07
1099.662	-4.02
1100.082	-4.22
1100.501	2.48
1100.92	7.18
1101.339	4.28
1101.758	1.88
