Data from MSPlasma+Separation6_Subt14_10-12-48-742.txt Node
Date: Fri Jul 21 10:12:48 EDT 2017
User: Ender
Spectrometer: HR+D1039
Trigger mode: 0
Integration Time (sec): 6.430000E-3
Scans to average: 20
Electric dark correction enabled: true
Nonlinearity correction enabled: false
Boxcar width: 0
XAxis mode: Wavelengths
Number of Pixels in Spectrum: 2048
>>>>>Begin Spectral Data<<<<<
187.836	-0.57
188.309	-0.57
188.782	-0.57
189.255	3.28
189.728	0.58
190.201	-1.87
190.674	-0.67
191.147	0.38
191.619	-1.62
192.092	-3.52
192.565	-3.67
193.038	-0.37
193.511	1.53
193.984	1.58
194.456	0.53
194.929	2.83
195.402	0.23
195.874	1.38
196.347	2.53
196.82	3.63
197.292	-0.62
197.765	-3.47
198.237	0.48
198.71	-5.57
199.182	-0.32
199.655	1.08
200.127	-1.02
200.6	2.63
201.072	0.93
201.544	-3.82
202.017	-1.17
202.489	-0.57
202.961	0.38
203.433	-7.72
203.906	-3.42
204.378	-1.02
204.85	-0.27
205.322	1.28
205.794	1.93
206.266	-2.67
206.739	0.33
207.211	-5.42
207.683	-1.07
208.155	1.28
208.627	-0.22
209.099	-1.17
209.57	0.58
210.042	-0.07
210.514	-0.97
210.986	-1.72
211.458	-2.47
211.93	0.18
212.402	-1.52
212.873	-5.32
213.345	-2.72
213.817	-1.42
214.288	-3.37
214.76	4.48
215.232	-1.22
215.703	-0.57
216.175	-1.67
216.646	4.48
217.118	4.08
217.589	-3.92
218.061	0.93
218.532	-4.12
219.004	2.23
219.475	1.78
219.946	2.38
220.418	7.78
220.889	4.13
221.36	3.78
221.832	1.23
222.303	2.78
222.774	1.58
223.245	1.28
223.717	0.48
224.188	1.03
224.659	1.88
225.13	0.48
225.601	3.48
226.072	1.83
226.543	7.28
227.014	0.53
227.485	6.98
227.956	6.73
228.427	10.88
228.898	6.63
229.369	4.28
229.839	5.58
230.31	8.53
230.781	8.08
231.252	11.63
231.722	7.43
232.193	3.08
232.664	4.98
233.135	7.63
233.605	6.13
234.076	11.28
234.546	5.93
235.017	7.08
235.487	5.63
235.958	7.73
236.428	12.23
236.899	9.03
237.369	15.03
237.84	13.78
238.31	11.83
238.78	7.33
239.251	10.18
239.721	9.48
240.191	7.78
240.662	10.68
241.132	11.03
241.602	13.18
242.072	10.53
242.542	12.13
243.013	8.48
243.483	10.68
243.953	9.63
244.423	13.23
244.893	11.18
245.363	14.83
245.833	17.13
246.303	17.48
246.773	16.23
247.243	15.28
247.712	16.33
248.182	20.63
248.652	14.98
249.122	16.83
249.592	15.68
250.061	16.53
250.531	14.13
251.001	19.83
251.471	17.13
251.94	18.28
252.41	17.58
252.879	19.28
253.349	26.78
253.818	20.03
254.288	22.88
254.757	20.58
255.227	25.83
255.696	20.08
256.166	29.03
256.635	26.38
257.105	22.78
257.574	23.23
258.043	24.08
258.513	29.93
258.982	24.88
259.451	27.78
259.92	21.63
260.389	24.98
260.859	25.23
261.328	26.98
261.797	24.78
262.266	29.63
262.735	32.03
263.204	25.58
263.673	28.78
264.142	27.68
264.611	35.08
265.08	26.93
265.549	29.73
266.018	33.33
266.487	31.38
266.955	29.58
267.424	33.38
267.893	39.08
268.362	36.18
268.83	33.38
269.299	32.03
269.768	34.03
270.236	35.28
270.705	37.98
271.174	32.33
271.642	33.78
272.111	38.63
272.579	35.43
273.048	37.18
273.516	40.58
273.985	36.93
274.453	42.38
274.922	37.43
275.39	39.18
275.858	40.63
276.327	44.18
276.795	42.18
277.263	41.63
277.731	42.53
278.2	44.28
278.668	41.03
279.136	45.78
279.604	46.98
280.072	45.48
280.54	45.73
281.008	51.68
281.477	48.63
281.945	42.38
282.413	44.78
282.881	50.08
283.348	51.83
283.816	48.38
284.284	51.58
284.752	50.48
285.22	56.43
285.688	49.98
286.156	50.08
286.623	53.23
287.091	50.03
287.559	55.38
288.026	57.43
288.494	61.43
288.962	56.93
289.429	56.63
289.897	57.98
290.364	54.58
290.832	60.63
291.3	58.18
291.767	56.98
292.234	61.78
292.702	60.78
293.169	62.38
293.637	65.03
294.104	67.33
294.571	67.68
295.039	66.68
295.506	60.93
295.973	64.88
296.44	64.53
296.908	68.13
297.375	68.93
297.842	71.38
298.309	67.28
298.776	66.08
299.243	69.08
299.71	70.03
300.177	71.63
300.644	68.48
301.111	72.73
301.578	76.03
302.045	74.93
302.512	72.13
302.979	76.03
303.446	73.48
303.913	78.58
304.379	81.53
304.846	86.63
305.313	85.28
305.78	90.43
306.246	89.53
306.713	83.63
307.18	87.53
307.646	89.98
308.113	89.98
308.579	92.53
309.046	92.63
309.512	93.63
309.979	98.58
310.445	89.83
310.912	94.98
311.378	100.93
311.845	99.83
312.311	100.88
312.777	94.68
313.244	103.43
313.71	106.98
314.176	105.58
314.642	104.08
315.109	104.23
315.575	105.08
316.041	107.58
316.507	104.78
316.973	110.38
317.439	110.53
317.905	112.18
318.371	110.78
318.837	117.88
319.303	110.93
319.769	107.78
320.235	121.28
320.701	115.73
321.167	113.68
321.633	113.13
322.099	113.68
322.564	118.18
323.03	117.38
323.496	120.28
323.962	121.03
324.427	127.48
324.893	119.48
325.359	127.58
325.824	126.53
326.29	131.43
326.755	126.68
327.221	123.58
327.686	138.08
328.152	131.13
328.617	138.73
329.083	138.08
329.548	143.93
330.014	136.23
330.479	142.43
330.944	143.53
331.41	149.38
331.875	135.98
332.34	138.83
332.805	141.58
333.271	146.63
333.736	147.53
334.201	147.03
334.666	153.48
335.131	150.83
335.596	154.83
336.061	149.33
336.526	145.38
336.991	150.08
337.456	148.98
337.921	144.88
338.386	147.58
338.851	148.28
339.316	154.18
339.781	150.33
340.246	152.18
340.711	157.48
341.175	152.98
341.64	157.13
342.105	159.68
342.569	169.53
343.034	162.03
343.499	164.28
343.963	173.78
344.428	173.03
344.893	175.08
345.357	183.28
345.822	175.98
346.286	179.33
346.751	182.23
347.215	187.48
347.679	195.13
348.144	201.78
348.608	204.63
349.073	208.68
349.537	209.78
350.001	211.68
350.465	213.23
350.93	208.63
351.394	213.63
351.858	214.43
352.322	219.53
352.786	215.93
353.25	220.78
353.715	222.08
354.179	237.33
354.643	236.98
355.107	239.43
355.571	237.08
356.035	238.03
356.498	233.63
356.962	228.13
357.426	226.78
357.89	220.33
358.354	224.98
358.818	223.03
359.281	226.23
359.745	234.03
360.209	229.68
360.673	229.93
361.136	225.48
361.6	231.98
362.064	239.78
362.527	242.23
362.991	243.58
363.454	237.18
363.918	244.73
364.381	248.33
364.845	246.83
365.308	240.58
365.772	246.48
366.235	242.83
366.698	243.58
367.162	243.68
367.625	244.93
368.088	256.23
368.552	251.28
369.015	247.28
369.478	256.38
369.941	257.28
370.404	260.43
370.867	251.98
371.331	258.78
371.794	263.83
372.257	263.73
372.72	265.08
373.183	269.38
373.646	268.88
374.109	265.63
374.572	272.03
375.035	276.13
375.497	276.13
375.96	280.48
376.423	283.08
376.886	291.98
377.349	291.93
377.811	295.83
378.274	298.58
378.737	297.03
379.199	294.68
379.662	291.48
380.125	301.43
380.587	298.83
381.05	304.68
381.512	315.58
381.975	322.78
382.437	329.43
382.9	320.63
383.362	319.58
383.825	327.48
384.287	325.73
384.75	329.83
385.212	333.78
385.674	336.18
386.136	337.93
386.599	336.43
387.061	340.13
387.523	342.63
387.985	338.08
388.447	340.53
388.91	348.38
389.372	347.73
389.834	346.33
390.296	340.63
390.758	347.28
391.22	336.13
391.682	343.43
392.144	345.38
392.606	347.93
393.068	365.38
393.529	379.48
393.991	394.53
394.453	371.58
394.915	350.48
395.377	343.68
395.838	348.78
396.3	347.03
396.762	355.43
397.224	356.48
397.685	352.08
398.147	360.73
398.608	368.48
399.07	377.13
399.531	371.78
399.993	374.73
400.454	378.28
400.916	388.08
401.377	389.43
401.839	389.48
402.3	394.68
402.762	409.53
403.223	446.98
403.684	444.73
404.145	416.83
404.607	410.98
405.068	396.68
405.529	394.88
405.99	407.43
406.451	410.03
406.913	399.43
407.374	404.13
407.835	401.68
408.296	415.13
408.757	410.78
409.218	425.68
409.679	429.98
410.14	438.98
410.601	450.88
411.062	455.43
411.522	459.93
411.983	466.43
412.444	469.08
412.905	484.58
413.366	515.98
413.826	539.93
414.287	613.53
414.748	760.08
415.208	775.33
415.669	638.43
416.13	562.98
416.59	555.43
417.051	576.48
417.511	616.18
417.972	667.38
418.432	725.48
418.893	815.58
419.353	777.58
419.814	581.98
420.274	508.18
420.734	496.33
421.195	509.23
421.655	510.43
422.115	516.83
422.576	516.38
423.036	517.73
423.496	536.13
423.956	560.78
424.416	595.38
424.876	679.23
425.336	677.03
425.797	656.58
426.257	635.93
426.717	582.53
427.177	525.23
427.637	521.73
428.097	534.63
428.556	549.13
429.016	587.18
429.476	577.48
429.936	543.23
430.396	529.13
430.856	539.33
431.315	547.33
431.775	592.23
432.235	648.43
432.694	664.73
433.154	610.73
433.614	589.93
434.073	576.13
434.533	525.28
434.993	519.58
435.452	533.93
435.912	525.58
436.371	537.23
436.83	538.93
437.29	541.23
437.749	526.83
438.209	528.08
438.668	547.83
439.127	557.33
439.587	555.78
440.046	546.28
440.505	562.28
440.964	568.38
441.424	592.38
441.883	597.33
442.342	568.68
442.801	557.43
443.26	561.63
443.719	555.48
444.178	562.28
444.637	560.08
445.096	573.68
445.555	577.83
446.014	579.83
446.473	569.93
446.932	573.33
447.391	585.98
447.849	593.08
448.308	591.63
448.767	588.68
449.226	601.38
449.685	622.13
450.143	651.38
450.602	639.18
451.061	605.18
451.519	607.43
451.978	595.18
452.436	591.98
452.895	592.78
453.353	590.68
453.812	595.33
454.27	590.28
454.729	584.88
455.187	599.63
455.646	600.03
456.104	598.13
456.562	608.08
457.021	616.38
457.479	589.08
457.937	613.08
458.395	632.93
458.854	617.78
459.312	606.48
459.77	619.28
460.228	624.23
460.686	633.48
461.144	637.03
461.602	622.68
462.06	626.03
462.518	643.28
462.976	643.73
463.434	642.33
463.892	654.33
464.35	663.43
464.808	673.88
465.266	684.53
465.724	690.03
466.181	695.23
466.639	690.48
467.097	705.43
467.555	734.68
468.012	728.03
468.47	732.68
468.928	758.88
469.385	773.18
469.843	784.43
470.3	775.58
470.758	797.18
471.215	809.43
471.673	813.28
472.13	838.48
472.588	850.23
473.045	847.43
473.503	857.58
473.96	893.68
474.417	899.13
474.875	931.68
475.332	951.38
475.789	958.13
476.246	965.43
476.704	1000.43
477.161	987.53
477.618	1001.93
478.075	1019.43
478.532	1039.28
478.989	1084.18
479.446	1132.18
479.903	1123.83
480.36	1143.58
480.817	1143.53
481.274	1145.03
481.731	1183.28
482.188	1203.03
482.645	1235.23
483.102	1247.53
483.558	1277.43
484.015	1311.48
484.472	1305.43
484.929	1309.13
485.385	1299.83
485.842	1324.58
486.299	1325.88
486.755	1309.23
487.212	1296.93
487.668	1262.13
488.125	1254.58
488.582	1241.73
489.038	1256.18
489.494	1271.33
489.951	1264.58
490.407	1272.48
490.864	1268.33
491.32	1270.18
491.776	1276.08
492.233	1301.48
492.689	1286.28
493.145	1277.28
493.602	1271.03
494.058	1291.13
494.514	1296.53
494.97	1304.23
495.426	1337.68
495.882	1336.33
496.338	1345.18
496.794	1358.68
497.251	1349.88
497.707	1362.28
498.163	1376.28
498.618	1381.28
499.074	1381.28
499.53	1403.33
499.986	1396.38
500.442	1395.78
500.898	1378.93
501.354	1395.68
501.809	1403.68
502.265	1403.78
502.721	1404.73
503.177	1410.63
503.632	1419.13
504.088	1427.38
504.543	1443.23
504.999	1458.28
505.455	1459.78
505.91	1447.83
506.366	1450.93
506.821	1439.58
507.277	1442.33
507.732	1442.58
508.187	1449.53
508.643	1459.68
509.098	1454.28
509.553	1473.13
510.009	1487.48
510.464	1515.28
510.919	1535.93
511.375	1553.58
511.83	1579.83
512.285	1602.03
512.74	1637.13
513.195	1644.83
513.65	1688.33
514.105	1700.83
514.56	1710.73
515.015	1755.03
515.47	1754.88
515.925	1739.33
516.38	1733.53
516.835	1742.18
517.29	1737.33
517.745	1732.43
518.2	1706.58
518.655	1662.88
519.109	1633.23
519.564	1617.28
520.019	1601.88
520.474	1595.83
520.928	1588.18
521.383	1572.53
521.838	1561.98
522.292	1551.58
522.747	1527.78
523.201	1533.28
523.656	1512.53
524.11	1502.38
524.565	1501.93
525.019	1504.18
525.474	1499.18
525.928	1490.68
526.382	1493.18
526.837	1495.38
527.291	1504.28
527.745	1479.18
528.2	1483.93
528.654	1467.83
529.108	1456.48
529.562	1473.48
530.016	1466.68
530.47	1468.13
530.925	1473.53
531.379	1459.03
531.833	1484.58
532.287	1489.48
532.741	1472.88
533.195	1473.08
533.649	1479.48
534.103	1475.73
534.556	1464.23
535.01	1480.23
535.464	1474.18
535.918	1473.28
536.372	1488.58
536.826	1478.48
537.279	1462.13
537.733	1463.48
538.187	1476.13
538.64	1474.68
539.094	1480.08
539.548	1499.93
540.001	1502.13
540.455	1509.58
540.908	1517.28
541.362	1537.83
541.815	1549.88
542.269	1577.48
542.722	1577.73
543.175	1596.63
543.629	1596.18
544.082	1613.23
544.536	1641.23
544.989	1638.13
545.442	1640.78
545.895	1645.08
546.349	1643.83
546.802	1648.93
547.255	1654.08
547.708	1671.48
548.161	1689.93
548.614	1681.23
549.067	1703.58
549.52	1691.78
549.973	1660.93
550.426	1656.43
550.879	1645.13
551.332	1641.88
551.785	1646.53
552.238	1672.43
552.691	1661.63
553.144	1701.48
553.596	1727.33
554.049	1745.88
554.502	1788.18
554.955	1839.78
555.407	1856.33
555.86	1835.43
556.313	1793.98
556.765	1781.23
557.218	1755.03
557.67	1753.53
558.123	1731.03
558.576	1715.78
559.028	1715.98
559.48	1755.13
559.933	1733.38
560.385	1676.13
560.838	1612.08
561.29	1566.43
561.742	1553.83
562.195	1520.03
562.647	1499.58
563.099	1505.88
563.551	1494.78
564.004	1509.48
564.456	1499.53
564.908	1456.28
565.36	1430.58
565.812	1390.43
566.264	1383.68
566.716	1368.43
567.168	1348.48
567.62	1346.53
568.072	1330.88
568.524	1321.28
568.976	1305.98
569.428	1302.48
569.88	1299.53
570.332	1317.03
570.784	1316.93
571.235	1302.98
571.687	1327.28
572.139	1331.08
572.59	1339.18
573.042	1345.13
573.494	1342.88
573.945	1326.23
574.397	1301.23
574.849	1288.78
575.3	1283.98
575.752	1264.43
576.203	1259.93
576.655	1264.38
577.106	1239.43
577.557	1232.78
578.009	1240.23
578.46	1241.38
578.912	1222.43
579.363	1231.03
579.814	1230.93
580.265	1224.78
580.717	1234.63
581.168	1230.23
581.619	1233.83
582.07	1243.58
582.521	1239.48
582.972	1229.98
583.423	1235.18
583.875	1234.93
584.326	1255.78
584.777	1280.58
585.227	1302.43
585.678	1316.68
586.129	1324.23
586.58	1345.83
587.031	1364.23
587.482	1410.83
587.933	1424.63
588.384	1421.78
588.834	1413.38
589.285	1402.68
589.736	1398.43
590.186	1414.18
590.637	1391.13
591.088	1350.93
591.538	1314.38
591.989	1310.48
592.439	1297.08
592.89	1274.53
593.34	1270.58
593.791	1257.18
594.241	1254.68
594.692	1248.03
595.142	1241.93
595.593	1236.33
596.043	1249.93
596.493	1255.33
596.943	1256.58
597.394	1286.73
597.844	1314.43
598.294	1345.83
598.744	1392.68
599.195	1457.88
599.645	1559.53
600.095	1638.78
600.545	1724.18
600.995	1809.88
601.445	1895.53
601.895	2000.38
602.345	2079.43
602.795	2039.23
603.245	1946.73
603.695	1825.48
604.145	1709.93
604.594	1621.28
605.044	1526.53
605.494	1420.33
605.944	1335.58
606.393	1298.88
606.843	1285.93
607.293	1287.43
607.743	1263.28
608.192	1282.83
608.642	1283.68
609.091	1292.53
609.541	1281.38
609.99	1276.83
610.44	1255.78
610.889	1241.48
611.339	1217.98
611.788	1201.88
612.238	1211.98
612.687	1207.78
613.136	1210.58
613.586	1231.73
614.035	1234.23
614.484	1234.73
614.933	1231.73
615.383	1218.58
615.832	1175.53
616.281	1158.83
616.73	1141.93
617.179	1111.73
617.628	1096.33
618.077	1077.63
618.526	1056.28
618.975	1050.43
619.424	1034.38
619.873	1039.83
620.322	1025.93
620.771	1022.88
621.22	1002.38
621.669	983.33
622.118	969.53
622.567	969.83
623.015	942.63
623.464	940.63
623.913	922.68
624.361	926.93
624.81	920.68
625.259	930.08
625.707	924.93
626.156	930.58
626.604	942.63
627.053	942.43
627.501	941.88
627.95	959.83
628.398	963.53
628.847	953.33
629.295	949.18
629.744	946.98
630.192	929.03
630.64	910.88
631.089	894.08
631.537	873.98
631.985	856.63
632.433	858.13
632.881	840.08
633.33	847.73
633.778	847.58
634.226	852.93
634.674	859.88
635.122	865.08
635.57	881.13
636.018	898.28
636.466	890.48
636.914	887.53
637.362	898.63
637.81	910.78
638.258	937.93
638.705	953.43
639.153	983.43
639.601	997.38
640.049	1012.08
640.497	1037.23
640.944	1075.78
641.392	1016.28
641.84	928.43
642.287	874.98
642.735	844.83
643.182	825.78
643.63	818.18
644.078	812.33
644.525	806.23
644.973	820.88
645.42	830.73
645.867	824.43
646.315	824.33
646.762	833.28
647.21	820.63
647.657	840.83
648.104	830.53
648.551	788.03
648.999	785.28
649.446	783.53
649.893	774.28
650.34	786.73
650.787	806.23
651.234	835.38
651.682	897.73
652.129	988.23
652.576	1122.58
653.023	1289.18
653.47	1387.53
653.917	1462.18
654.363	1509.58
654.81	1569.38
655.257	1637.83
655.704	1287.63
656.151	998.88
656.598	875.78
657.044	804.28
657.491	794.93
657.938	770.78
658.385	759.18
658.831	755.38
659.278	744.58
659.724	748.83
660.171	734.73
660.618	710.68
661.064	701.18
661.511	704.28
661.957	699.83
662.404	708.08
662.85	717.93
663.296	729.88
663.743	734.63
664.189	734.18
664.635	735.03
665.082	723.83
665.528	718.58
665.974	708.03
666.42	701.78
666.867	699.68
667.313	659.23
667.759	663.03
668.205	660.38
668.651	657.93
669.097	666.13
669.543	670.93
669.989	676.78
670.435	679.73
670.881	695.53
671.327	728.28
671.773	776.78
672.219	841.78
672.665	910.58
673.11	954.98
673.556	976.88
674.002	1020.53
674.448	1047.93
674.893	867.38
675.339	742.73
675.785	683.98
676.23	648.73
676.676	618.08
677.122	598.38
677.567	587.43
678.013	570.28
678.458	560.78
678.904	561.33
679.349	560.43
679.794	560.53
680.24	558.83
680.685	548.43
681.131	541.98
681.576	554.83
682.021	565.53
682.466	567.23
682.912	570.63
683.357	601.48
683.802	651.98
684.247	717.58
684.692	773.63
685.137	813.88
685.583	834.53
686.028	895.48
686.473	847.13
686.918	717.83
687.363	651.03
687.807	615.28
688.252	577.83
688.697	562.73
689.142	535.03
689.587	542.53
690.032	557.93
690.477	572.23
690.921	607.63
691.366	642.13
691.811	672.13
692.255	733.18
692.7	888.93
693.145	1268.58
693.589	1966.83
694.034	2408.73
694.478	2626.53
694.923	2486.03
695.367	3642.83
695.812	2135.48
696.256	852.63
696.701	609.33
697.145	553.23
697.59	530.18
698.034	524.83
698.478	519.83
698.922	526.28
699.367	533.88
699.811	571.08
700.255	622.63
700.699	683.63
701.143	744.48
701.588	801.73
702.032	848.28
702.476	861.78
702.92	899.93
703.364	1167.33
703.808	1805.08
704.252	2306.53
704.696	2510.93
705.14	2440.13
705.584	3445.53
706.027	1834.38
706.471	883.98
706.915	646.68
707.359	567.23
707.803	525.23
708.246	505.83
708.69	505.18
709.134	500.88
709.577	496.33
710.021	505.03
710.465	503.13
710.908	493.43
711.352	513.78
711.795	573.98
712.239	617.53
712.682	630.93
713.126	632.88
713.569	721.43
714.012	575.48
714.456	493.68
714.899	466.08
715.342	444.53
715.786	427.53
716.229	412.23
716.672	402.58
717.115	406.53
717.558	411.93
718.002	423.68
718.445	443.73
718.888	470.68
719.331	483.88
719.774	492.93
720.217	480.73
720.66	451.88
721.103	430.18
721.546	399.68
721.989	389.23
722.432	382.08
722.874	382.48
723.317	388.38
723.76	422.83
724.203	515.18
724.645	710.88
725.088	853.13
725.531	851.48
725.974	969.88
726.416	862.98
726.859	500.73
727.301	404.43
727.744	383.58
728.187	380.33
728.629	390.43
729.071	411.33
729.514	436.93
729.956	449.23
730.399	471.18
730.841	469.08
731.283	451.83
731.726	434.83
732.168	441.03
732.61	467.73
733.053	500.48
733.495	567.73
733.937	639.28
734.379	751.83
734.821	942.78
735.263	1489.48
735.705	2703.48
736.148	4089.78
736.59	4239.08
737.032	4773.13
737.474	3899.38
737.916	1417.38
738.357	721.33
738.799	553.08
739.241	507.13
739.683	503.98
740.125	517.28
740.567	515.38
741.008	550.28
741.45	575.28
741.892	604.43
742.334	616.33
742.775	620.03
743.217	592.03
743.658	487.43
744.1	489.78
744.542	551.38
744.983	582.83
745.425	627.73
745.866	613.93
746.307	510.58
746.749	548.43
747.19	802.73
747.632	1559.13
748.073	2978.23
748.514	4232.23
748.956	5817.28
749.397	6888.38
749.838	4715.03
750.279	4654.98
750.72	2297.58
751.162	939.93
751.603	524.33
752.044	424.68
752.485	366.68
752.926	344.18
753.367	333.03
753.808	323.13
754.249	311.43
754.69	312.28
755.131	307.03
755.572	301.93
756.013	300.13
756.453	304.43
756.894	314.33
757.335	312.78
757.776	321.48
758.216	328.08
758.657	350.23
759.098	384.33
759.538	466.23
759.979	669.53
760.42	1364.78
760.86	3508.38
761.301	7537.38
761.741	9307.43
762.182	11270.13
762.622	7091.53
763.063	2418.73
763.503	963.28
763.943	556.18
764.384	439.78
764.824	378.83
765.264	344.93
765.705	333.58
766.145	311.18
766.585	295.23
767.025	280.28
767.465	287.93
767.906	290.53
768.346	312.68
768.786	358.73
769.226	530.03
769.666	1088.23
770.106	2500.78
770.546	3697.98
770.986	4401.78
771.426	3316.28
771.866	1314.18
772.306	571.73
772.745	345.33
773.185	282.53
773.625	277.63
774.065	288.03
774.505	393.63
774.944	693.38
775.384	1018.98
775.824	1187.88
776.263	992.88
776.703	516.73
777.142	298.83
777.582	231.73
778.021	216.68
778.461	198.93
778.9	208.58
779.34	195.33
779.779	186.83
780.219	190.83
780.658	181.68
781.097	182.28
781.537	172.78
781.976	172.03
782.415	174.08
782.855	173.18
783.294	177.38
783.733	173.38
784.172	179.93
784.611	174.83
785.05	179.53
785.489	191.83
785.928	190.98
786.367	197.73
786.806	210.03
787.245	228.68
787.684	236.28
788.123	234.63
788.562	220.78
789.001	211.48
789.44	205.83
789.879	201.83
790.317	207.83
790.756	218.73
791.195	254.23
791.634	340.13
792.072	626.28
792.511	1565.58
792.95	3016.53
793.388	3841.73
793.827	2481.98
794.265	1077.68
794.704	501.68
795.142	308.78
795.581	248.23
796.019	221.23
796.458	224.78
796.896	231.93
797.334	264.13
797.773	354.98
798.211	697.68
798.649	1485.98
799.087	2558.03
799.526	3657.88
799.964	3873.33
800.402	2702.83
800.84	1163.28
801.278	553.13
801.716	332.63
802.154	265.38
802.592	244.78
803.03	248.43
803.468	256.28
803.906	262.33
804.344	244.78
804.782	248.03
805.22	245.53
805.658	255.08
806.096	269.43
806.533	298.88
806.971	390.13
807.409	566.88
807.847	1134.93
808.284	2929.13
808.722	5381.93
809.16	7567.53
809.597	10094.33
810.035	13064.38
810.472	8608.03
810.91	3489.03
811.347	1537.63
811.785	713.53
812.222	444.78
812.66	343.73
813.097	290.98
813.535	255.68
813.972	223.53
814.409	205.33
814.846	195.53
815.284	187.73
815.721	186.83
816.158	200.88
816.595	273.28
817.032	347.43
817.47	317.38
817.907	224.68
818.344	199.08
818.781	197.08
819.218	236.93
819.655	354.68
820.092	468.83
820.529	424.18
820.966	339.08
821.403	233.63
821.839	195.48
822.276	217.88
822.713	262.33
823.15	248.08
823.587	265.78
824.023	472.93
824.46	1220.38
824.897	2254.43
825.333	1798.68
825.77	784.08
826.206	399.03
826.643	225.38
827.08	168.58
827.516	148.18
827.953	140.08
828.389	133.48
828.825	121.78
829.262	120.13
829.698	118.53
830.135	106.43
830.571	110.03
831.007	114.38
831.443	111.88
831.88	108.88
832.316	115.73
832.752	116.08
833.188	113.23
833.624	117.23
834.06	121.43
834.497	122.98
834.933	119.38
835.369	135.63
835.805	143.43
836.241	145.63
836.677	160.13
837.112	190.93
837.548	238.93
837.984	351.78
838.42	754.43
838.856	2153.28
839.292	4490.48
839.727	3369.43
840.163	2136.53
840.599	3230.78
841.034	5292.63
841.47	2632.93
841.906	1208.98
842.341	622.83
842.777	446.43
843.212	444.73
843.648	285.93
844.083	192.13
844.519	145.28
844.954	127.28
845.39	110.78
845.825	104.58
846.261	106.28
846.696	100.63
847.131	94.38
847.566	96.93
848.002	99.98
848.437	106.93
848.872	113.13
849.307	143.83
849.742	259.53
850.177	699.93
850.613	1588.18
851.048	1153.88
851.483	501.68
851.918	270.23
852.353	146.88
852.788	104.43
853.223	99.18
853.657	88.13
854.092	79.23
854.527	75.98
854.962	84.33
855.397	96.03
855.832	81.08
856.266	75.13
856.701	70.48
857.136	76.28
857.57	86.93
858.005	108.08
858.44	91.68
858.874	89.38
859.309	91.73
859.743	89.38
860.178	86.53
860.612	93.48
861.047	127.48
861.481	176.53
861.915	121.48
862.35	87.93
862.784	70.03
863.218	70.93
863.653	74.03
864.087	87.28
864.521	114.68
864.955	201.48
865.39	374.73
865.824	263.43
866.258	314.08
866.692	486.48
867.126	351.28
867.56	186.98
867.994	121.53
868.428	96.78
868.862	123.18
869.296	112.43
869.73	142.38
870.164	119.78
870.598	109.58
871.031	75.63
871.465	69.73
871.899	62.13
872.333	49.03
872.766	48.88
873.2	47.63
873.634	53.08
874.067	57.98
874.501	56.43
874.935	59.73
875.368	54.08
875.802	50.78
876.235	47.48
876.669	47.63
877.102	42.73
877.535	42.43
877.969	43.28
878.402	42.98
878.836	38.13
879.269	37.98
879.702	40.23
880.135	40.33
880.569	46.58
881.002	37.48
881.435	39.43
881.868	38.08
882.301	40.53
882.734	39.28
883.167	40.58
883.601	36.43
884.034	38.03
884.467	38.98
884.899	37.13
885.332	32.68
885.765	33.33
886.198	28.93
886.631	32.78
887.064	31.28
887.497	32.58
887.929	34.93
888.362	29.53
888.795	32.58
889.228	36.43
889.66	35.93
890.093	29.03
890.526	35.73
890.958	35.83
891.391	33.23
891.823	30.63
892.256	28.18
892.688	35.63
893.121	28.03
893.553	32.18
893.985	28.78
894.418	27.23
894.85	32.93
895.282	30.78
895.715	29.73
896.147	21.78
896.579	25.83
897.011	26.03
897.444	31.38
897.876	27.13
898.308	28.18
898.74	29.28
899.172	30.93
899.604	31.28
900.036	29.18
900.468	24.23
900.9	32.53
901.332	42.73
901.764	41.58
902.196	37.48
902.628	39.98
903.06	57.03
903.491	62.28
903.923	51.33
904.355	51.48
904.787	52.23
905.218	42.23
905.65	39.48
906.082	38.68
906.513	37.08
906.945	36.18
907.376	33.73
907.808	35.98
908.239	40.88
908.671	45.88
909.102	47.13
909.534	67.53
909.965	130.03
910.397	352.58
910.828	1084.58
911.259	661.03
911.691	339.18
912.122	193.03
912.553	92.98
912.984	54.18
913.415	44.28
913.847	37.08
914.278	39.38
914.709	35.43
915.14	29.08
915.571	33.13
916.002	28.33
916.433	26.63
916.864	27.63
917.295	31.28
917.726	39.58
918.157	50.63
918.587	43.13
919.018	42.43
919.449	39.98
919.88	48.93
920.311	70.43
920.741	218.78
921.172	406.23
921.603	188.48
922.033	119.08
922.464	72.18
922.895	46.13
923.325	33.08
923.756	24.58
924.186	39.63
924.617	47.58
925.047	71.68
925.478	65.53
925.908	48.88
926.338	34.58
926.769	29.03
927.199	30.33
927.629	27.93
928.06	26.88
928.49	27.68
928.92	22.83
929.35	25.13
929.78	18.68
930.21	21.53
930.641	11.48
931.071	18.23
931.501	14.83
931.931	15.33
932.361	16.78
932.791	16.93
933.221	19.98
933.651	30.23
934.08	52.43
934.51	27.48
934.94	23.78
935.37	15.23
935.8	15.48
936.229	10.63
936.659	12.63
937.089	25.73
937.519	39.18
937.948	58.93
938.378	31.23
938.807	17.53
939.237	13.33
939.666	9.73
940.096	6.78
940.525	6.88
940.955	8.08
941.384	8.73
941.814	5.83
942.243	3.38
942.672	4.48
943.102	3.73
943.531	5.88
943.96	3.63
944.39	6.33
944.819	8.93
945.248	8.18
945.677	8.08
946.106	10.03
946.535	10.63
946.964	4.78
947.393	1.18
947.822	5.03
948.251	8.93
948.68	8.18
949.109	9.78
949.538	5.83
949.967	5.83
950.396	8.88
950.825	9.43
951.254	7.13
951.682	2.38
952.111	0.93
952.54	3.93
952.969	2.13
953.397	-0.42
953.826	2.83
954.254	6.98
954.683	7.48
955.112	9.28
955.54	5.63
955.969	5.73
956.397	3.98
956.826	3.48
957.254	5.93
957.682	4.48
958.111	6.08
958.539	7.13
958.967	0.03
959.396	5.13
959.824	4.18
960.252	6.43
960.68	3.33
961.109	7.08
961.537	11.03
961.965	1.03
962.393	-0.37
962.821	5.98
963.249	4.58
963.677	15.18
964.105	68.18
964.533	116.98
964.961	51.93
965.389	27.48
965.817	11.23
966.245	8.43
966.672	7.38
967.1	8.93
967.528	-1.97
967.956	0.98
968.383	5.48
968.811	2.98
969.239	-1.82
969.666	5.33
970.094	4.13
970.522	-3.22
970.949	6.23
971.377	-2.87
971.804	-0.32
972.232	-1.72
972.659	1.48
973.087	3.43
973.514	0.68
973.941	3.73
974.369	-1.62
974.796	0.38
975.223	-1.27
975.651	6.88
976.078	4.38
976.505	7.43
976.932	26.08
977.359	31.28
977.786	20.28
978.214	14.98
978.641	3.28
979.068	6.53
979.495	2.43
979.922	6.28
980.349	8.73
980.776	0.83
981.202	1.33
981.629	5.98
982.056	1.73
982.483	-4.57
982.91	6.28
983.337	-0.17
983.763	4.58
984.19	8.13
984.617	3.78
985.043	5.23
985.47	6.93
985.897	2.08
986.323	8.78
986.75	-3.47
987.176	3.48
987.603	7.68
988.029	3.23
988.456	4.23
988.882	-0.92
989.308	-2.22
989.735	-1.47
990.161	2.28
990.587	3.28
991.014	5.48
991.44	3.33
991.866	2.33
992.292	2.83
992.719	-1.12
993.145	7.73
993.571	6.63
993.997	4.33
994.423	6.03
994.849	-0.12
995.275	2.23
995.701	1.48
996.127	-1.42
996.553	1.13
996.979	-0.82
997.405	6.63
997.83	0.58
998.256	0.93
998.682	2.63
999.108	0.93
999.534	-5.87
999.959	1.33
1000.385	6.93
1000.811	-1.52
1001.236	-1.12
1001.662	0.88
1002.087	6.68
1002.513	5.23
1002.938	1.13
1003.364	0.08
1003.789	4.58
1004.215	1.58
1004.64	-2.27
1005.066	5.08
1005.491	2.23
1005.916	2.08
1006.342	6.03
1006.767	3.98
1007.192	2.03
1007.617	1.43
1008.042	-0.37
1008.468	1.68
1008.893	4.03
1009.318	8.03
1009.743	8.43
1010.168	17.53
1010.593	19.58
1011.018	11.33
1011.443	6.83
1011.868	9.13
1012.293	6.03
1012.718	-2.27
1013.143	3.98
1013.567	1.53
1013.992	1.78
1014.417	-3.37
1014.842	-0.67
1015.267	1.38
1015.691	3.38
1016.116	5.33
1016.541	0.18
1016.965	1.28
1017.39	4.88
1017.814	0.78
1018.239	0.28
1018.663	-4.52
1019.088	-5.52
1019.512	5.88
1019.937	0.43
1020.361	5.48
1020.785	-2.17
1021.21	-3.77
1021.634	2.83
1022.058	3.43
1022.483	-1.47
1022.907	-5.07
1023.331	-3.47
1023.755	-0.47
1024.179	1.18
1024.604	-0.07
1025.028	-0.12
1025.452	5.03
1025.876	1.73
1026.3	-0.42
1026.724	-2.62
1027.148	2.13
1027.572	-0.82
1027.996	-0.12
1028.42	-1.87
1028.843	-2.67
1029.267	-0.02
1029.691	1.68
1030.115	0.28
1030.539	1.43
1030.962	3.03
1031.386	-1.22
1031.81	-1.92
1032.233	-1.82
1032.657	-4.62
1033.08	-0.37
1033.504	0.48
1033.927	-4.62
1034.351	-0.32
1034.774	-1.22
1035.198	-6.02
1035.621	-1.97
1036.045	-0.67
1036.468	1.33
1036.891	1.03
1037.315	1.48
1037.738	-1.42
1038.161	-0.72
1038.584	-5.52
1039.008	0.18
1039.431	-0.12
1039.854	-9.37
1040.277	3.43
1040.7	-0.97
1041.123	1.78
1041.546	-2.92
1041.969	1.83
1042.392	1.53
1042.815	-7.32
1043.238	-3.17
1043.661	0.88
1044.084	-1.67
1044.507	-1.67
1044.93	-3.32
1045.352	0.03
1045.775	2.68
1046.198	4.18
1046.621	2.23
1047.043	1.08
1047.466	0.98
1047.889	-1.42
1048.311	3.38
1048.734	-3.82
1049.156	-1.72
1049.579	1.43
1050.001	-3.77
1050.424	-4.37
1050.846	-2.07
1051.269	-4.07
1051.691	-2.22
1052.113	1.03
1052.536	-3.72
1052.958	-3.37
1053.38	-2.02
1053.802	0.23
1054.225	2.03
1054.647	0.53
1055.069	-0.77
1055.491	3.43
1055.913	-3.52
1056.335	-9.32
1056.757	-6.72
1057.179	-0.07
1057.601	-6.02
1058.023	3.78
1058.445	-6.97
1058.867	2.83
1059.289	2.58
1059.711	-5.17
1060.133	-1.32
1060.555	-4.07
1060.976	-1.72
1061.398	-2.17
1061.82	-0.87
1062.241	-0.27
1062.663	0.68
1063.085	-4.52
1063.506	-3.62
1063.928	-0.32
1064.35	0.83
1064.771	-2.67
1065.193	-6.82
1065.614	-2.87
1066.035	2.48
1066.457	3.68
1066.878	-0.27
1067.3	-4.37
1067.721	0.33
1068.142	0.68
1068.564	0.18
1068.985	-2.22
1069.406	-3.02
1069.827	0.03
1070.248	-4.97
1070.67	-4.37
1071.091	-4.62
1071.512	-4.97
1071.933	-3.37
1072.354	-8.62
1072.775	-3.82
1073.196	-0.97
1073.617	-2.27
1074.038	-1.32
1074.459	-1.97
1074.88	-1.82
1075.3	-1.02
1075.721	1.58
1076.142	-6.32
1076.563	-6.42
1076.983	5.83
1077.404	-6.87
1077.825	-0.72
1078.246	-2.57
1078.666	-1.27
1079.087	-2.77
1079.507	-2.07
1079.928	-1.92
1080.348	-2.77
1080.769	0.18
1081.189	-4.32
1081.61	-6.22
1082.03	3.43
1082.451	1.38
1082.871	-4.67
1083.291	-4.37
1083.711	-5.07
1084.132	-6.37
1084.552	-7.27
1084.972	-4.02
1085.392	-6.07
1085.813	-0.42
1086.233	-1.57
1086.653	-3.22
1087.073	-3.92
1087.493	-3.12
1087.913	-5.67
1088.333	-3.82
1088.753	-1.32
1089.173	-1.97
1089.593	0.48
1090.013	-0.82
1090.433	-2.67
1090.852	2.28
1091.272	-6.82
1091.692	-4.12
1092.112	-0.92
1092.531	-1.32
1092.951	-0.12
1093.371	0.13
1093.79	-0.17
1094.21	-1.67
1094.63	-0.87
1095.049	-1.67
1095.469	-5.82
1095.888	-0.32
1096.308	-1.77
1096.727	-2.92
1097.146	-4.07
1097.566	0.58
1097.985	-3.47
1098.405	-1.77
1098.824	-0.42
1099.243	-0.42
1099.662	-7.17
1100.082	-3.27
1100.501	2.03
1100.92	4.88
1101.339	-1.57
1101.758	3.33
