Data from MSPlasma+Separation6_Subt14_10-12-36-397.txt Node
Date: Fri Jul 21 10:12:36 EDT 2017
User: Ender
Spectrometer: HR+D1039
Trigger mode: 0
Integration Time (sec): 6.430000E-3
Scans to average: 20
Electric dark correction enabled: true
Nonlinearity correction enabled: false
Boxcar width: 0
XAxis mode: Wavelengths
Number of Pixels in Spectrum: 2048
>>>>>Begin Spectral Data<<<<<
187.836	-2.85
188.309	-2.85
188.782	-2.85
189.255	0.2
189.728	3.85
190.201	-1.2
190.674	0.65
191.147	-1.85
191.619	-0.05
192.092	-2.6
192.565	-2.15
193.038	3.95
193.511	5.9
193.984	-1.9
194.456	-0.2
194.929	-1.15
195.402	-0.15
195.874	-0.45
196.347	3.8
196.82	0.9
197.292	0.2
197.765	0.15
198.237	-4.75
198.71	-2.05
199.182	1.1
199.655	1.55
200.127	3.1
200.6	-1.45
201.072	2
201.544	0.05
202.017	1.55
202.489	1.05
202.961	-1.75
203.433	-4.4
203.906	-1.05
204.378	1.8
204.85	0.15
205.322	-0.95
205.794	-0.5
206.266	-1.5
206.739	2.9
207.211	-0.05
207.683	-0.95
208.155	1.7
208.627	0.65
209.099	1.7
209.57	0.55
210.042	3.5
210.514	1.5
210.986	-4.55
211.458	0.75
211.93	3.6
212.402	0.8
212.873	-3.7
213.345	-1
213.817	0.4
214.288	-2.05
214.76	1.2
215.232	-1.15
215.703	-5.1
216.175	0.15
216.646	4.65
217.118	4.05
217.589	-1.1
218.061	-1.75
218.532	-3.9
219.004	5.1
219.475	3.2
219.946	-0.45
220.418	4.8
220.889	1.75
221.36	2.7
221.832	5.2
222.303	5.45
222.774	0.8
223.245	0.35
223.717	0.25
224.188	2.2
224.659	0.45
225.13	-2
225.601	1.45
226.072	4
226.543	2.3
227.014	-0.6
227.485	3.55
227.956	5.95
228.427	11.35
228.898	6.5
229.369	2.75
229.839	5.8
230.31	7.4
230.781	5.3
231.252	8.3
231.722	3.2
232.193	3.8
232.664	4.7
233.135	3.7
233.605	5.15
234.076	12.95
234.546	6.15
235.017	8.85
235.487	6.4
235.958	7.65
236.428	13
236.899	9.65
237.369	13.05
237.84	12.45
238.31	13
238.78	7.3
239.251	10.25
239.721	8.65
240.191	9.6
240.662	10.1
241.132	9.75
241.602	12.25
242.072	11.15
242.542	8.4
243.013	9.95
243.483	11.35
243.953	8.65
244.423	12.2
244.893	12.05
245.363	12.9
245.833	14.9
246.303	12.15
246.773	14
247.243	16.5
247.712	16.1
248.182	14.85
248.652	18.7
249.122	15.6
249.592	16.35
250.061	17.35
250.531	15.5
251.001	17.95
251.471	16.45
251.94	19.65
252.41	15.85
252.879	19.7
253.349	24.4
253.818	22.9
254.288	26.15
254.757	20.15
255.227	19.75
255.696	18.9
256.166	28
256.635	22.4
257.105	19.25
257.574	23.85
258.043	25.6
258.513	23.65
258.982	21.8
259.451	26.45
259.92	23.05
260.389	25.1
260.859	22.35
261.328	25.4
261.797	22.55
262.266	28.55
262.735	29.7
263.204	19.05
263.673	28.4
264.142	24.05
264.611	31.5
265.08	26.35
265.549	24.55
266.018	28.8
266.487	28.2
266.955	30.4
267.424	36.8
267.893	36.55
268.362	31.4
268.83	28.2
269.299	26.45
269.768	31.85
270.236	31.75
270.705	30.3
271.174	30.5
271.642	26.65
272.111	34.25
272.579	31.1
273.048	34.5
273.516	38.9
273.985	37.6
274.453	32.15
274.922	30.9
275.39	30.65
275.858	34.3
276.327	37.5
276.795	37.2
277.263	40.7
277.731	35.8
278.2	44
278.668	38.65
279.136	38.8
279.604	44.9
280.072	37.45
280.54	40.3
281.008	44
281.477	41.85
281.945	36.9
282.413	41.4
282.881	46.9
283.348	45.9
283.816	42.15
284.284	45.75
284.752	49.25
285.22	48.45
285.688	45.2
286.156	44.6
286.623	49.15
287.091	50.1
287.559	53
288.026	53.7
288.494	57.35
288.962	49.15
289.429	50.25
289.897	49.85
290.364	47.65
290.832	55.7
291.3	55.05
291.767	54.2
292.234	59.85
292.702	56.2
293.169	57.25
293.637	60.05
294.104	57.5
294.571	57.95
295.039	59.9
295.506	56.55
295.973	59.15
296.44	57.8
296.908	59.6
297.375	61.5
297.842	59.85
298.309	61.3
298.776	61.15
299.243	65.95
299.71	62.05
300.177	65.35
300.644	58
301.111	62.4
301.578	66.9
302.045	64.85
302.512	67.1
302.979	72.4
303.446	73.95
303.913	72.5
304.379	81.5
304.846	76.4
305.313	78.8
305.78	80.55
306.246	74
306.713	78.45
307.18	76
307.646	80.75
308.113	77.8
308.579	82.65
309.046	88.2
309.512	83.4
309.979	86.25
310.445	86.25
310.912	86.45
311.378	90.8
311.845	91.95
312.311	85.5
312.777	91
313.244	94.75
313.71	91.7
314.176	98.75
314.642	96.55
315.109	92.95
315.575	90.2
316.041	90.35
316.507	93.15
316.973	100.8
317.439	99.2
317.905	99.95
318.371	96.7
318.837	104.35
319.303	105.95
319.769	100.25
320.235	106.1
320.701	112.25
321.167	102.35
321.633	109.15
322.099	106.5
322.564	108.5
323.03	105.8
323.496	103.95
323.962	112.15
324.427	116.65
324.893	113.25
325.359	117.25
325.824	116.6
326.29	120.65
326.755	117.5
327.221	115.7
327.686	128.7
328.152	126.1
328.617	130.95
329.083	124.55
329.548	126.15
330.014	132.6
330.479	132.15
330.944	132.95
331.41	135.1
331.875	127.55
332.34	132.85
332.805	131.1
333.271	128.55
333.736	134.45
334.201	135
334.666	140.7
335.131	142.1
335.596	143.95
336.061	138.6
336.526	140.6
336.991	133.25
337.456	138.4
337.921	134.65
338.386	136.9
338.851	137
339.316	138.05
339.781	138.65
340.246	138.65
340.711	147.25
341.175	146.9
341.64	150.5
342.105	152.3
342.569	159.75
343.034	153.1
343.499	154
343.963	161.3
344.428	164.4
344.893	162.05
345.357	168.6
345.822	167.8
346.286	168.7
346.751	174.9
347.215	175.55
347.679	184.9
348.144	191.6
348.608	189.25
349.073	190.35
349.537	197.35
350.001	197.05
350.465	199.2
350.93	196.95
351.394	198.1
351.858	203.45
352.322	201.9
352.786	206
353.25	210.3
353.715	208.25
354.179	217.55
354.643	219.3
355.107	222.7
355.571	222.85
356.035	215.35
356.498	221.9
356.962	221.85
357.426	210.6
357.89	213.5
358.354	209.85
358.818	213.1
359.281	213.45
359.745	216.1
360.209	213.65
360.673	214.8
361.136	217.05
361.6	218
362.064	224.4
362.527	229.5
362.991	219.55
363.454	219.45
363.918	230.9
364.381	230.45
364.845	228.9
365.308	227.35
365.772	235.85
366.235	236
366.698	231.15
367.162	229.4
367.625	232.9
368.088	241.6
368.552	236
369.015	239.55
369.478	243.1
369.941	242.7
370.404	245.65
370.867	241.7
371.331	251
371.794	252.2
372.257	252.9
372.72	245.95
373.183	250.4
373.646	259.35
374.109	254.05
374.572	254
375.035	255.6
375.497	258.75
375.96	271.25
376.423	270.25
376.886	271.6
377.349	278.05
377.811	278.4
378.274	278.75
378.737	273.45
379.199	281.5
379.662	277.55
380.125	277.45
380.587	281.45
381.05	295.1
381.512	294.05
381.975	302.15
382.437	312.5
382.9	308.05
383.362	302.5
383.825	308.2
384.287	310.05
384.75	312.6
385.212	315
385.674	321.8
386.136	323
386.599	320.6
387.061	312.25
387.523	317.35
387.985	319.55
388.447	326.2
388.91	327.2
389.372	328.15
389.834	329.55
390.296	320.6
390.758	325.3
391.22	324.05
391.682	321.55
392.144	328.5
392.606	330.5
393.068	336.25
393.529	356.45
393.991	367.1
394.453	348.05
394.915	335.1
395.377	327.05
395.838	331.8
396.3	330
396.762	342.15
397.224	339.15
397.685	337.1
398.147	345.85
398.608	348.8
399.07	355.9
399.531	353.4
399.993	358.5
400.454	364
400.916	365.65
401.377	376.15
401.839	370.95
402.3	380.45
402.762	394.05
403.223	422.35
403.684	427.55
404.145	403.5
404.607	384.75
405.068	376.25
405.529	377.8
405.99	384
406.451	386.4
406.913	383.6
407.374	383.45
407.835	386.15
408.296	392.5
408.757	395.5
409.218	406.55
409.679	409.3
410.14	419.95
410.601	428.6
411.062	434.15
411.522	438.55
411.983	451.5
412.444	457
412.905	468.05
413.366	485.25
413.826	517.15
414.287	583.65
414.748	723.65
415.208	740.35
415.669	605.7
416.13	540.5
416.59	535.05
417.051	554.7
417.511	585.9
417.972	635.4
418.432	690.25
418.893	771.55
419.353	737.7
419.814	546.55
420.274	478.2
420.734	479.1
421.195	491.25
421.655	489.35
422.115	495.45
422.576	491.25
423.036	493.65
423.496	510.35
423.956	532.2
424.416	570.85
424.876	642.6
425.336	636.75
425.797	624.35
426.257	610.1
426.717	555.2
427.177	497.55
427.637	495.5
428.097	511.3
428.556	521.05
429.016	563.65
429.476	547.55
429.936	517.45
430.396	512.1
430.856	511.3
431.315	522.65
431.775	560.8
432.235	616.85
432.694	627.8
433.154	571.75
433.614	561.3
434.073	551.6
434.533	503.45
434.993	501.45
435.452	508
435.912	504.1
436.371	510.2
436.83	513.5
437.29	510.5
437.749	506.65
438.209	507.35
438.668	523.6
439.127	537.95
439.587	534.3
440.046	513.8
440.505	531.3
440.964	537.5
441.424	560.25
441.883	565.7
442.342	544.3
442.801	522.95
443.26	528.25
443.719	528.65
444.178	534.4
444.637	539.9
445.096	544.65
445.555	553.4
446.014	549.9
446.473	542.3
446.932	546.15
447.391	555.15
447.849	565.85
448.308	557.85
448.767	568.1
449.226	568.05
449.685	579.45
450.143	611.8
450.602	608.15
451.061	575.05
451.519	575.65
451.978	566.9
452.436	556.4
452.895	567.7
453.353	562.75
453.812	550.15
454.27	561.95
454.729	559.05
455.187	565.55
455.646	566.95
456.104	568.25
456.562	576.05
457.021	580
457.479	555.05
457.937	577.65
458.395	595.35
458.854	584.45
459.312	577.3
459.77	581.4
460.228	595.1
460.686	594.05
461.144	597.4
461.602	596.5
462.06	604.95
462.518	607
462.976	602
463.434	619.05
463.892	621.1
464.35	630.05
464.808	643.8
465.266	649.3
465.724	659.65
466.181	657
466.639	652.8
467.097	680.55
467.555	693.35
468.012	693.1
468.47	699.6
468.928	718.4
469.385	737.55
469.843	738.6
470.3	724.8
470.758	756.45
471.215	766.45
471.673	770.9
472.13	786
472.588	810.25
473.045	806.7
473.503	817.85
473.96	846.25
474.417	848.9
474.875	876.1
475.332	898.8
475.789	904.85
476.246	916.7
476.704	940.3
477.161	946.3
477.618	940.5
478.075	959
478.532	994.2
478.989	1020.05
479.446	1071
479.903	1057.45
480.36	1082.25
480.817	1070.65
481.274	1080.05
481.731	1114.45
482.188	1138.75
482.645	1165.55
483.102	1174.85
483.558	1205.5
484.015	1230.05
484.472	1230.3
484.929	1242.65
485.385	1242.05
485.842	1244.6
486.299	1248.4
486.755	1249.85
487.212	1228.8
487.668	1200.65
488.125	1186
488.582	1176.6
489.038	1181.95
489.494	1195.1
489.951	1192.65
490.407	1193.15
490.864	1195.4
491.32	1195.8
491.776	1211.85
492.233	1221.9
492.689	1220.9
493.145	1203.35
493.602	1205.4
494.058	1218.9
494.514	1235.9
494.97	1233.15
495.426	1257.85
495.882	1258.9
496.338	1262.1
496.794	1280.4
497.251	1265.4
497.707	1281.85
498.163	1299.95
498.618	1302.65
499.074	1296.6
499.53	1315.55
499.986	1314.4
500.442	1302.7
500.898	1290.55
501.354	1303.7
501.809	1315.95
502.265	1317.5
502.721	1322.45
503.177	1321.3
503.632	1343.55
504.088	1349.1
504.543	1363.7
504.999	1371.75
505.455	1372.35
505.91	1354.4
506.366	1360.7
506.821	1365.55
507.277	1357.8
507.732	1356.6
508.187	1351.25
508.643	1371.7
509.098	1369.65
509.553	1385.5
510.009	1412.1
510.464	1434.5
510.919	1443.65
511.375	1459.15
511.83	1472.3
512.285	1498.75
512.74	1527.8
513.195	1542.55
513.65	1583.25
514.105	1607.15
514.56	1609.2
515.015	1637.25
515.47	1651.7
515.925	1630.2
516.38	1623.45
516.835	1636.85
517.29	1636.5
517.745	1623.9
518.2	1603.55
518.655	1559.3
519.109	1539.85
519.564	1519.3
520.019	1506
520.474	1492.65
520.928	1482.1
521.383	1483.5
521.838	1470.1
522.292	1451
522.747	1444.4
523.201	1442.85
523.656	1422.6
524.11	1416.45
524.565	1410.05
525.019	1407.95
525.474	1410.5
525.928	1396.25
526.382	1416
526.837	1403.05
527.291	1406.45
527.745	1391.05
528.2	1393.8
528.654	1378.4
529.108	1379.6
529.562	1389.7
530.016	1368.75
530.47	1387.05
530.925	1380.55
531.379	1373.4
531.833	1388.4
532.287	1389.1
532.741	1378.15
533.195	1380
533.649	1382.05
534.103	1387.9
534.556	1381.65
535.01	1384.2
535.464	1376.8
535.918	1372
536.372	1384.2
536.826	1390.4
537.279	1374.65
537.733	1374.2
538.187	1377.95
538.64	1374.3
539.094	1384.1
539.548	1406.25
540.001	1411.65
540.455	1410.6
540.908	1427.6
541.362	1449
541.815	1451.55
542.269	1480
542.722	1476.6
543.175	1484.15
543.629	1490.6
544.082	1526.7
544.536	1529.6
544.989	1535
545.442	1540.65
545.895	1550.3
546.349	1545.1
546.802	1550.45
547.255	1552.2
547.708	1572.35
548.161	1579.35
548.614	1577.3
549.067	1592.15
549.52	1578.25
549.973	1559.55
550.426	1536.75
550.879	1538.5
551.332	1527.15
551.785	1549.2
552.238	1556.85
552.691	1551.8
553.144	1588.15
553.596	1614.5
554.049	1634.65
554.502	1667.35
554.955	1711.5
555.407	1729.8
555.86	1711.8
556.313	1684.05
556.765	1660.65
557.218	1640.2
557.67	1635.1
558.123	1612.35
558.576	1610.8
559.028	1615.1
559.48	1637.25
559.933	1631.95
560.385	1563.25
560.838	1509
561.29	1462.8
561.742	1468.2
562.195	1418.95
562.647	1404.2
563.099	1410.1
563.551	1402
564.004	1414.3
564.456	1401.45
564.908	1362.95
565.36	1331.45
565.812	1299.05
566.264	1295.75
566.716	1275.8
567.168	1254.8
567.62	1260.35
568.072	1244.75
568.524	1231.95
568.976	1229.95
569.428	1217.7
569.88	1214.95
570.332	1226.65
570.784	1241.1
571.235	1229.9
571.687	1240.75
572.139	1236.85
572.59	1249.25
573.042	1256.5
573.494	1264.65
573.945	1232.2
574.397	1204.65
574.849	1201.6
575.3	1212.5
575.752	1184.6
576.203	1173.85
576.655	1173.1
577.106	1162.35
577.557	1153.05
578.009	1153.1
578.46	1153.65
578.912	1138.35
579.363	1150.4
579.814	1151.45
580.265	1152.9
580.717	1156.05
581.168	1150.65
581.619	1153.9
582.07	1168.55
582.521	1157.15
582.972	1151.35
583.423	1151.7
583.875	1167.45
584.326	1172.9
584.777	1186
585.227	1206.7
585.678	1228.15
586.129	1241.9
586.58	1252.55
587.031	1275.9
587.482	1311.3
587.933	1327.75
588.384	1328.65
588.834	1318.05
589.285	1303.85
589.736	1308.25
590.186	1313.95
590.637	1303.6
591.088	1259.4
591.538	1235.55
591.989	1216.05
592.439	1206.15
592.89	1194
593.34	1179.55
593.791	1185.4
594.241	1174.65
594.692	1173.2
595.142	1163.65
595.593	1159.55
596.043	1176.5
596.493	1177.45
596.943	1186.55
597.394	1208.7
597.844	1229.3
598.294	1254.7
598.744	1306.8
599.195	1373.4
599.645	1458.7
600.095	1533.85
600.545	1611.7
600.995	1700.55
601.445	1770.3
601.895	1861.9
602.345	1928.55
602.795	1893.25
603.245	1806.3
603.695	1693.1
604.145	1592.25
604.594	1506.35
605.044	1422.85
605.494	1315.8
605.944	1242.9
606.393	1215.85
606.843	1194.1
607.293	1188.75
607.743	1186.75
608.192	1205.8
608.642	1200.45
609.091	1203.05
609.541	1200.8
609.99	1196.2
610.44	1168.45
610.889	1157
611.339	1128.1
611.788	1120.1
612.238	1131.85
612.687	1131.6
613.136	1138
613.586	1151.2
614.035	1149.45
614.484	1153
614.933	1163.4
615.383	1137.4
615.832	1105.1
616.281	1084.9
616.73	1062.1
617.179	1045.85
617.628	1018.5
618.077	1010
618.526	992.5
618.975	978.9
619.424	964.6
619.873	964.05
620.322	962.25
620.771	952.05
621.22	939
621.669	919.5
622.118	903.95
622.567	900.7
623.015	881.35
623.464	878.5
623.913	868.15
624.361	866
624.81	861.85
625.259	870.8
625.707	866.7
626.156	874.05
626.604	882.2
627.053	885.1
627.501	882.45
627.95	890.1
628.398	905.35
628.847	894.6
629.295	889.55
629.744	883.95
630.192	868.9
630.64	842.8
631.089	830.8
631.537	798.25
631.985	795
632.433	792.4
632.881	778.85
633.33	790.5
633.778	784.55
634.226	801.95
634.674	802.85
635.122	813.35
635.57	827.4
636.018	830.65
636.466	830.1
636.914	829.45
637.362	838.4
637.81	852.7
638.258	885.5
638.705	887.5
639.153	918.8
639.601	931.4
640.049	945.4
640.497	979.7
640.944	1004.8
641.392	945.65
641.84	870.55
642.287	812.75
642.735	789.05
643.182	772.05
643.63	765
644.078	765.4
644.525	761.9
644.973	766.45
645.42	771.2
645.867	765.9
646.315	773.2
646.762	774.15
647.21	770.4
647.657	783.6
648.104	767.55
648.551	732.5
648.999	732.75
649.446	737.3
649.893	733.85
650.34	736.6
650.787	750.2
651.234	783.25
651.682	847.05
652.129	931.85
652.576	1063.95
653.023	1218.35
653.47	1322.6
653.917	1380.6
654.363	1415.35
654.81	1479.35
655.257	1526.55
655.704	1211.1
656.151	934.05
656.598	817.65
657.044	745.35
657.491	741.2
657.938	716.5
658.385	703.1
658.831	709.25
659.278	699.1
659.724	690.85
660.171	686.6
660.618	666.85
661.064	648.4
661.511	647.55
661.957	661.95
662.404	669.15
662.85	673.1
663.296	681.8
663.743	672.45
664.189	686.2
664.635	687.35
665.082	682.8
665.528	682
665.974	657.8
666.42	660.7
666.867	654.15
667.313	618.65
667.759	616.15
668.205	618.2
668.651	615.85
669.097	622.9
669.543	629.55
669.989	644.7
670.435	635.4
670.881	643.9
671.327	679.5
671.773	727.65
672.219	793.4
672.665	861.4
673.11	886.2
673.556	910
674.002	946.8
674.448	966.15
674.893	805.9
675.339	686.3
675.785	641.85
676.23	602.25
676.676	583.1
677.122	557.2
677.567	547.3
678.013	530.1
678.458	529.9
678.904	523.8
679.349	512.95
679.794	516.25
680.24	516
680.685	506.45
681.131	520.95
681.576	516.35
682.021	525.4
682.466	524.4
682.912	527.95
683.357	562.7
683.802	608.2
684.247	673.15
684.692	728.6
685.137	762.55
685.583	776.05
686.028	829.5
686.473	784.65
686.918	666.8
687.363	601.85
687.807	571.55
688.252	536.75
688.697	522.1
689.142	508.5
689.587	502.2
690.032	519.85
690.477	535.1
690.921	563.6
691.366	603.3
691.811	631.55
692.255	688
692.7	829.35
693.145	1201
693.589	1847.3
694.034	2245.25
694.478	2451.85
694.923	2278.4
695.367	3342.65
695.812	1967.8
696.256	795.15
696.701	558.3
697.145	513.7
697.59	503.35
698.034	492.55
698.478	489.5
698.922	485.15
699.367	503.95
699.811	526.65
700.255	582.75
700.699	641.9
701.143	702.05
701.588	749.15
702.032	787.95
702.476	799.75
702.92	839.45
703.364	1092.9
703.808	1699.55
704.252	2145.35
704.696	2338.45
705.14	2253.25
705.584	3157.55
706.027	1712.4
706.471	827.7
706.915	600.95
707.359	529.75
707.803	489.6
708.246	468
708.69	465.9
709.134	467.45
709.577	461
710.021	476
710.465	464.65
710.908	465.1
711.352	481.65
711.795	532.1
712.239	576.15
712.682	595.45
713.126	584.1
713.569	671.95
714.012	535.55
714.456	454.7
714.899	431.3
715.342	409.55
715.786	399.9
716.229	385.85
716.672	375.35
717.115	374.95
717.558	379.05
718.002	392.6
718.445	410.95
718.888	440.35
719.331	447.35
719.774	456.45
720.217	444.95
720.66	419.25
721.103	396.9
721.546	377.95
721.989	363.95
722.432	353.8
722.874	351.05
723.317	357.85
723.76	393
724.203	485.2
724.645	663.2
725.088	802.75
725.531	794.5
725.974	893.55
726.416	791.4
726.859	467.4
727.301	373.85
727.744	354.6
728.187	351.55
728.629	367.65
729.071	384.65
729.514	409.95
729.956	428.05
730.399	428.4
730.841	434.15
731.283	423.65
731.726	407.05
732.168	410.25
732.61	435.95
733.053	476.1
733.495	525.5
733.937	587.35
734.379	701.4
734.821	884.5
735.263	1400.5
735.705	2533.75
736.148	3803.5
736.59	3913
737.032	4357.15
737.474	3576
737.916	1322.35
738.357	675.65
738.799	506.6
739.241	464.8
739.683	466.7
740.125	479.1
740.567	487.15
741.008	520.05
741.45	542.7
741.892	568.5
742.334	575.25
742.775	577.5
743.217	555.6
743.658	455.6
744.1	463
744.542	519.1
744.983	548.7
745.425	585
745.866	574.3
746.307	481.8
746.749	519.1
747.19	753.5
747.632	1479.65
748.073	2765.2
748.514	3923.65
748.956	5357.7
749.397	6343.25
749.838	4342.8
750.279	4244
750.72	2135.9
751.162	879.25
751.603	487.95
752.044	391.9
752.485	338.75
752.926	326.5
753.367	308.7
753.808	297.15
754.249	291.8
754.69	287.7
755.131	277.9
755.572	283.05
756.013	284.25
756.453	283.35
756.894	287.1
757.335	285.05
757.776	292.5
758.216	302.4
758.657	324.75
759.098	360.4
759.538	440.85
759.979	633.45
760.42	1279.3
760.86	3266.75
761.301	7042.65
761.741	8614.45
762.182	10305
762.622	6518
763.063	2249.45
763.503	900.3
763.943	514.3
764.384	398.2
764.824	352
765.264	324
765.705	305.4
766.145	286.25
766.585	279.2
767.025	267.4
767.465	263.55
767.906	266.95
768.346	285.55
768.786	333.6
769.226	498.25
769.666	1013.9
770.106	2301.25
770.546	3408.45
770.986	4029.15
771.426	3041.9
771.866	1224.75
772.306	526.1
772.745	323.45
773.185	266.25
773.625	258.8
774.065	272.35
774.505	371.2
774.944	645.35
775.384	948.85
775.824	1113.9
776.263	936.75
776.703	481.4
777.142	281.25
777.582	214.85
778.021	199.9
778.461	193.85
778.9	192.85
779.34	184.15
779.779	173.2
780.219	176.7
780.658	170.15
781.097	173.5
781.537	163.9
781.976	165.7
782.415	161.25
782.855	157.9
783.294	162.05
783.733	158.95
784.172	163.7
784.611	162.15
785.05	170.55
785.489	175.7
785.928	177.2
786.367	185.45
786.806	195.4
787.245	211.55
787.684	221.2
788.123	216.1
788.562	207.65
789.001	192.1
789.44	194.25
789.879	190.3
790.317	193.85
790.756	204.7
791.195	236.5
791.634	323.4
792.072	576.1
792.511	1447.2
792.95	2772.5
793.388	3506.6
793.827	2291.5
794.265	1005.05
794.704	465.95
795.142	279
795.581	231.1
796.019	211.3
796.458	211
796.896	211.15
797.334	243.3
797.773	329.95
798.211	649.65
798.649	1383.05
799.087	2357.6
799.526	3359.65
799.964	3548.05
800.402	2476.55
800.84	1075.95
801.278	511.6
801.716	306.25
802.154	245.7
802.592	231.9
803.03	234.8
803.468	239.75
803.906	244.5
804.344	235.65
804.782	219.8
805.22	225.9
805.658	233.85
806.096	251.3
806.533	282.35
806.971	358.5
807.409	528.7
807.847	1047.75
808.284	2719.35
808.722	4966.2
809.16	6986.8
809.597	9342.95
810.035	12008.85
810.472	7873.3
810.91	3228.9
811.347	1419.55
811.785	663.2
812.222	414.05
812.66	321.9
813.097	270.45
813.535	232.15
813.972	206.25
814.409	194.85
814.846	184.1
815.284	175.5
815.721	174.4
816.158	186.35
816.595	251.85
817.032	322.6
817.47	293.65
817.907	213.5
818.344	185.7
818.781	187.05
819.218	217.2
819.655	337.35
820.092	447.05
820.529	404.6
820.966	316.45
821.403	215.25
821.839	186.4
822.276	200.5
822.713	245.7
823.15	235.25
823.587	244.4
824.023	440.95
824.46	1133.65
824.897	2072.2
825.333	1657
825.77	730.5
826.206	368.45
826.643	206.7
827.08	156.3
827.516	138.55
827.953	125.35
828.389	119.35
828.825	118.2
829.262	111.55
829.698	111.4
830.135	101.35
830.571	98.65
831.007	102.25
831.443	103.4
831.88	108.6
832.316	102.1
832.752	107.4
833.188	107.1
833.624	109.8
834.06	110.65
834.497	113.1
834.933	110.7
835.369	127.5
835.805	128.25
836.241	136.85
836.677	149.4
837.112	174.85
837.548	219
837.984	330.95
838.42	696.95
838.856	1992.85
839.292	4117.2
839.727	3087.35
840.163	1984.45
840.599	2985.1
841.034	4819.3
841.47	2429.7
841.906	1128
842.341	587.25
842.777	415.6
843.212	417.8
843.648	262.25
844.083	183.35
844.519	134.6
844.954	119.3
845.39	104.2
845.825	97.75
846.261	97
846.696	92.5
847.131	84.85
847.566	88.5
848.002	92.65
848.437	103
848.872	100.4
849.307	137.1
849.742	240.75
850.177	648.75
850.613	1457.55
851.048	1070.55
851.483	465.75
851.918	248.85
852.353	138.2
852.788	97.8
853.223	85.65
853.657	74.9
854.092	75.75
854.527	72.3
854.962	79.6
855.397	90.6
855.832	76.9
856.266	66.8
856.701	67.95
857.136	71.85
857.57	82.2
858.005	102.9
858.44	88.05
858.874	81.7
859.309	87.2
859.743	86.6
860.178	80.15
860.612	88.4
861.047	117.4
861.481	166.7
861.915	113.3
862.35	83.55
862.784	65.85
863.218	62.3
863.653	70.15
864.087	85.6
864.521	104.85
864.955	186.8
865.39	343.75
865.824	249.45
866.258	294.55
866.692	457.55
867.126	325.45
867.56	171.1
867.994	110.25
868.428	94.4
868.862	115.5
869.296	106.05
869.73	128.9
870.164	115.25
870.598	99.05
871.031	74
871.465	60.5
871.899	53.25
872.333	43.75
872.766	46.75
873.2	49.7
873.634	47.3
874.067	52
874.501	51.65
874.935	55.05
875.368	51.1
875.802	41.9
876.235	41.3
876.669	37.85
877.102	36.55
877.535	39.65
877.969	35.7
878.402	37.2
878.836	39.9
879.269	38.45
879.702	32.9
880.135	44.15
880.569	37.3
881.002	33.65
881.435	40.65
881.868	37.2
882.301	34.35
882.734	33.3
883.167	40.55
883.601	37.35
884.034	31.85
884.467	30.4
884.899	34.2
885.332	26.75
885.765	35.2
886.198	28.3
886.631	28
887.064	26.85
887.497	27.45
887.929	33.2
888.362	27.7
888.795	31.55
889.228	33.3
889.66	26.85
890.093	29.95
890.526	30.5
890.958	33.3
891.391	26.9
891.823	31.45
892.256	34.4
892.688	31.25
893.121	26.05
893.553	31.15
893.985	24.15
894.418	29.4
894.85	29.1
895.282	28.8
895.715	26.8
896.147	21.9
896.579	23.95
897.011	28.9
897.444	28.4
897.876	23.35
898.308	25
898.74	27.55
899.172	33.25
899.604	28.2
900.036	25.95
900.468	25.45
900.9	31.85
901.332	35.65
901.764	38.5
902.196	35.75
902.628	33
903.06	54.15
903.491	56.4
903.923	46.75
904.355	45.85
904.787	45.65
905.218	37.55
905.65	39.95
906.082	34.6
906.513	29.35
906.945	33.55
907.376	35.55
907.808	30.85
908.239	37.35
908.671	43.35
909.102	48.95
909.534	66.35
909.965	124.4
910.397	323.3
910.828	993.7
911.259	608.4
911.691	315.05
912.122	182.25
912.553	93.2
912.984	51.2
913.415	40
913.847	35.3
914.278	37.7
914.709	30.75
915.14	30.4
915.571	34
916.002	28.95
916.433	29.6
916.864	29.65
917.295	29.9
917.726	35.3
918.157	47.7
918.587	50
919.018	45.1
919.449	37.3
919.88	45.25
920.311	65.45
920.741	203.15
921.172	373.95
921.603	181.45
922.033	107.5
922.464	69.3
922.895	43.35
923.325	27.1
923.756	26.4
924.186	30.6
924.617	49.05
925.047	68.55
925.478	60.9
925.908	41.9
926.338	31.25
926.769	24.45
927.199	25.75
927.629	22.3
928.06	25.6
928.49	24.2
928.92	20.75
929.35	22.9
929.78	14.45
930.21	14.85
930.641	14.3
931.071	12
931.501	16
931.931	10.7
932.361	14.9
932.791	19.05
933.221	18.4
933.651	27.55
934.08	41.9
934.51	32.4
934.94	22.1
935.37	18.2
935.8	16.55
936.229	10
936.659	13.5
937.089	19.85
937.519	37.65
937.948	53.95
938.378	31.65
938.807	17.05
939.237	10.2
939.666	9.55
940.096	11.15
940.525	1.6
940.955	10.9
941.384	9.15
941.814	6.5
942.243	5.95
942.672	7.1
943.102	6.55
943.531	5.4
943.96	2.45
944.39	7.9
944.819	6
945.248	4.75
945.677	6.1
946.106	6.9
946.535	11.7
946.964	4.7
947.393	5.5
947.822	5.35
948.251	6.85
948.68	5.25
949.109	4.85
949.538	4.75
949.967	6.1
950.396	4.55
950.825	8.55
951.254	5.45
951.682	4.6
952.111	0.35
952.54	3.7
952.969	7.45
953.397	2.95
953.826	3.65
954.254	7.1
954.683	8.25
955.112	8.2
955.54	4.2
955.969	3.85
956.397	3.6
956.826	2.05
957.254	1.6
957.682	5.55
958.111	9.3
958.539	10.4
958.967	5.2
959.396	6.4
959.824	4.5
960.252	7.2
960.68	4.8
961.109	7.15
961.537	9.45
961.965	1.1
962.393	4.3
962.821	8.4
963.249	4.55
963.677	12.7
964.105	60.75
964.533	104.95
964.961	46.1
965.389	29.15
965.817	13.65
966.245	8.1
966.672	5.3
967.1	7.35
967.528	-3
967.956	5.75
968.383	7.9
968.811	3.05
969.239	2.6
969.666	2.85
970.094	1.75
970.522	-1.9
970.949	4.1
971.377	-4.85
971.804	0.25
972.232	4.6
972.659	4.45
973.087	9.5
973.514	0.8
973.941	1.3
974.369	1.15
974.796	2.45
975.223	2.55
975.651	3.1
976.078	5.35
976.505	7.8
976.932	20.55
977.359	31.85
977.786	22.6
978.214	12.7
978.641	3.35
979.068	4.9
979.495	2.9
979.922	5.2
980.349	3.7
980.776	3
981.202	3.6
981.629	4.55
982.056	6.3
982.483	-1.5
982.91	7.55
983.337	-4.9
983.763	3.7
984.19	3.7
984.617	0.25
985.043	0.4
985.47	3.4
985.897	0.1
986.323	4.2
986.75	3.5
987.176	3.85
987.603	0.4
988.029	0.65
988.456	9.65
988.882	-0.9
989.308	0.55
989.735	0.9
990.161	5.7
990.587	-1.9
991.014	2.35
991.44	5.35
991.866	3.65
992.292	0.6
992.719	4.3
993.145	4.1
993.571	2.05
993.997	9.35
994.423	8.7
994.849	1.2
995.275	3.05
995.701	0.25
996.127	1.25
996.553	2.8
996.979	1
997.405	4.25
997.83	2.3
998.256	4.6
998.682	1.25
999.108	2.5
999.534	-4.6
999.959	-0.75
1000.385	2.75
1000.811	-3.6
1001.236	-3.75
1001.662	3.55
1002.087	10.75
1002.513	-0.7
1002.938	1.1
1003.364	-0.2
1003.789	4.5
1004.215	2.15
1004.64	3.3
1005.066	4.7
1005.491	4.75
1005.916	0.7
1006.342	2.35
1006.767	3.65
1007.192	7.15
1007.617	4.4
1008.042	0.75
1008.468	1.3
1008.893	4.2
1009.318	6.25
1009.743	9.7
1010.168	19.05
1010.593	15.3
1011.018	5.85
1011.443	7.2
1011.868	9.85
1012.293	3.9
1012.718	-0.1
1013.143	0.1
1013.567	6.9
1013.992	7.15
1014.417	2.15
1014.842	-2.1
1015.267	0.3
1015.691	5.5
1016.116	0.35
1016.541	1.65
1016.965	5.05
1017.39	2.05
1017.814	-1
1018.239	-0.05
1018.663	-6.15
1019.088	-1.55
1019.512	6.7
1019.937	-2.85
1020.361	1.15
1020.785	-1.9
1021.21	-6.15
1021.634	1.65
1022.058	-0.4
1022.483	-1.55
1022.907	0.05
1023.331	2.6
1023.755	-3.75
1024.179	2.15
1024.604	5.4
1025.028	4.4
1025.452	0.25
1025.876	0.6
1026.3	2.7
1026.724	-1.3
1027.148	3
1027.572	-0.85
1027.996	4.45
1028.42	1.05
1028.843	3.4
1029.267	-1.55
1029.691	3.05
1030.115	-0.2
1030.539	-2.75
1030.962	-2.25
1031.386	1.75
1031.81	0.85
1032.233	-1.65
1032.657	-2.4
1033.08	-0.65
1033.504	-0.95
1033.927	0.3
1034.351	-0.6
1034.774	-0.35
1035.198	-0.25
1035.621	2.15
1036.045	2.1
1036.468	6.15
1036.891	-1.4
1037.315	0.25
1037.738	3.65
1038.161	6.05
1038.584	-4.4
1039.008	-1.15
1039.431	0
1039.854	-6
1040.277	3.8
1040.7	-3.95
1041.123	1.6
1041.546	-3.05
1041.969	-2.25
1042.392	5.15
1042.815	-4.35
1043.238	-0.6
1043.661	-5.7
1044.084	-4.55
1044.507	-0.8
1044.93	-0.8
1045.352	-1.1
1045.775	1.25
1046.198	2.5
1046.621	5.35
1047.043	-0.65
1047.466	5
1047.889	-2.65
1048.311	3.25
1048.734	-1.25
1049.156	-0.4
1049.579	-2.85
1050.001	-5.7
1050.424	0.15
1050.846	-2.95
1051.269	-4.4
1051.691	0.3
1052.113	-0.35
1052.536	0.1
1052.958	-1.05
1053.38	0.85
1053.802	1.45
1054.225	3.5
1054.647	4.15
1055.069	0.3
1055.491	4.45
1055.913	2.3
1056.335	-4.7
1056.757	-1.55
1057.179	1.5
1057.601	-3.15
1058.023	-0.15
1058.445	-2.65
1058.867	5.5
1059.289	0.05
1059.711	-4.85
1060.133	1.45
1060.555	-1.25
1060.976	2.1
1061.398	-0.9
1061.82	-0.7
1062.241	-3.65
1062.663	-1.3
1063.085	-3.05
1063.506	-2.25
1063.928	-1.7
1064.35	-0.2
1064.771	-0.1
1065.193	-3.1
1065.614	-0.85
1066.035	3.65
1066.457	3.25
1066.878	1.25
1067.3	-3.1
1067.721	4.15
1068.142	3.7
1068.564	-2
1068.985	-0.95
1069.406	-4
1069.827	-2.6
1070.248	-7.1
1070.67	-3.2
1071.091	-3.55
1071.512	-6.1
1071.933	-5.75
1072.354	-6.55
1072.775	-2.35
1073.196	-0.1
1073.617	-3.3
1074.038	-2.35
1074.459	-1.6
1074.88	-1.45
1075.3	-1.5
1075.721	1.15
1076.142	-4.55
1076.563	-6.35
1076.983	-2.15
1077.404	-4.2
1077.825	0
1078.246	-6.25
1078.666	-0.25
1079.087	-0.55
1079.507	-0.05
1079.928	0.95
1080.348	-1.5
1080.769	2.7
1081.189	2.3
1081.61	-6.7
1082.03	-1.25
1082.451	2.05
1082.871	-7.25
1083.291	-4
1083.711	-4.35
1084.132	-4.7
1084.552	-6.4
1084.972	-3.1
1085.392	-4.65
1085.813	3.5
1086.233	-4.7
1086.653	-1.8
1087.073	-5.2
1087.493	-4.85
1087.913	-7.6
1088.333	-3.1
1088.753	-2.15
1089.173	-3.45
1089.593	-0.45
1090.013	-4.75
1090.433	-2.8
1090.852	4.45
1091.272	-5.45
1091.692	2.45
1092.112	1.8
1092.531	-5.15
1092.951	-2.4
1093.371	-2.05
1093.79	-5.75
1094.21	-0.2
1094.63	0.6
1095.049	-0.25
1095.469	-8.05
1095.888	2.15
1096.308	-2.35
1096.727	-4.05
1097.146	-4.65
1097.566	1.25
1097.985	-0.1
1098.405	0.45
1098.824	-0.8
1099.243	-3.4
1099.662	-0.55
1100.082	-4.1
1100.501	-2.65
1100.92	5.6
1101.339	6.7
1101.758	1.4
