Data from MSPlasma+Separation6_Subt14_10-12-22-541.txt Node
Date: Fri Jul 21 10:12:22 EDT 2017
User: Ender
Spectrometer: HR+D1039
Trigger mode: 0
Integration Time (sec): 6.430000E-3
Scans to average: 20
Electric dark correction enabled: true
Nonlinearity correction enabled: false
Boxcar width: 0
XAxis mode: Wavelengths
Number of Pixels in Spectrum: 2048
>>>>>Begin Spectral Data<<<<<
187.836	1.38
188.309	1.38
188.782	1.38
189.255	0.88
189.728	-0.87
190.201	-3.82
190.674	2.03
191.147	-0.52
191.619	0.53
192.092	1.88
192.565	-4.52
193.038	1.53
193.511	1.33
193.984	1.83
194.456	2.48
194.929	-2.62
195.402	-3.47
195.874	1.88
196.347	0.18
196.82	2.33
197.292	-4.32
197.765	-1.52
198.237	-1.37
198.71	-3.97
199.182	1.93
199.655	2.23
200.127	-1.62
200.6	-0.22
201.072	0.58
201.544	-1.42
202.017	1.28
202.489	-0.97
202.961	-1.87
203.433	-1.47
203.906	1.68
204.378	1.28
204.85	2.38
205.322	2.38
205.794	3.83
206.266	-2.02
206.739	2.48
207.211	0.33
207.683	0.18
208.155	2.08
208.627	-0.37
209.099	4.03
209.57	2.88
210.042	2.08
210.514	1.43
210.986	1.38
211.458	-3.02
211.93	0.18
212.402	-0.67
212.873	-2.82
213.345	-7.17
213.817	2.73
214.288	-1.22
214.76	5.43
215.232	1.58
215.703	3.58
216.175	-0.27
216.646	3.63
217.118	0.78
217.589	-2.72
218.061	3.48
218.532	-3.07
219.004	4.58
219.475	0.98
219.946	0.43
220.418	5.73
220.889	0.43
221.36	6.13
221.832	5.58
222.303	5.13
222.774	1.98
223.245	-0.07
223.717	-2.82
224.188	4.78
224.659	3.08
225.13	1.28
225.601	1.43
226.072	3.23
226.543	4.63
227.014	-0.67
227.485	2.13
227.956	2.78
228.427	7.68
228.898	2.58
229.369	2.78
229.839	2.18
230.31	5.53
230.781	5.18
231.252	7.08
231.722	7.03
232.193	3.38
232.664	4.83
233.135	3.08
233.605	1.93
234.076	7.73
234.546	2.43
235.017	3.88
235.487	5.98
235.958	9.93
236.428	13.83
236.899	7.48
237.369	12.33
237.84	9.98
238.31	9.68
238.78	5.53
239.251	6.08
239.721	8.63
240.191	10.08
240.662	9.73
241.132	6.63
241.602	10.53
242.072	10.43
242.542	8.93
243.013	10.93
243.483	12.98
243.953	4.53
244.423	11.68
244.893	10.53
245.363	10.73
245.833	12.03
246.303	13.73
246.773	19.58
247.243	15.33
247.712	12.53
248.182	12.73
248.652	12.68
249.122	13.28
249.592	15.98
250.061	11.48
250.531	15.73
251.001	17.68
251.471	19.13
251.94	16.33
252.41	14.63
252.879	17.18
253.349	23.88
253.818	23.33
254.288	21.43
254.757	19.68
255.227	19.38
255.696	17.63
256.166	19.68
256.635	20.53
257.105	22.43
257.574	21.53
258.043	16.63
258.513	21.88
258.982	21.48
259.451	26.33
259.92	16.43
260.389	17.68
260.859	20.43
261.328	24.23
261.797	18.48
262.266	25.58
262.735	26.58
263.204	21.83
263.673	29.03
264.142	21.18
264.611	26.63
265.08	26.88
265.549	22.53
266.018	23.88
266.487	27.53
266.955	27.73
267.424	31.48
267.893	28.78
268.362	27.78
268.83	24.58
269.299	28.33
269.768	30.38
270.236	28.48
270.705	33.38
271.174	28.38
271.642	28.43
272.111	31.83
272.579	31.08
273.048	30.13
273.516	30.93
273.985	35.88
274.453	33.18
274.922	29.08
275.39	29.88
275.858	32.28
276.327	30.93
276.795	36.28
277.263	32.53
277.731	35.28
278.2	39.33
278.668	32.18
279.136	39.88
279.604	41.13
280.072	36.33
280.54	38.58
281.008	42.88
281.477	37.43
281.945	40.28
282.413	39.68
282.881	39.23
283.348	39.98
283.816	42.03
284.284	44.33
284.752	42.98
285.22	44.13
285.688	43.28
286.156	41.73
286.623	40.18
287.091	45.38
287.559	49.83
288.026	50.08
288.494	45.83
288.962	45.83
289.429	44.88
289.897	45.23
290.364	44.83
290.832	49.03
291.3	43.38
291.767	48.43
292.234	51.48
292.702	48.93
293.169	51.53
293.637	50.38
294.104	52.68
294.571	51.48
295.039	60.08
295.506	49.03
295.973	53.28
296.44	52.23
296.908	55.08
297.375	54.18
297.842	57.48
298.309	55.93
298.776	58.03
299.243	58.38
299.71	59.18
300.177	60.58
300.644	57.53
301.111	59.43
301.578	64.18
302.045	60.18
302.512	60.88
302.979	64.93
303.446	68.73
303.913	67.23
304.379	75.03
304.846	70.08
305.313	76.13
305.78	73.93
306.246	73.53
306.713	69.53
307.18	69.98
307.646	75.78
308.113	75.48
308.579	78.03
309.046	80.23
309.512	79.93
309.979	84.08
310.445	75.28
310.912	81.73
311.378	85.48
311.845	91.83
312.311	82.18
312.777	83.18
313.244	84.83
313.71	84.93
314.176	92.43
314.642	91.98
315.109	88.28
315.575	91.23
316.041	92.38
316.507	88.38
316.973	91.33
317.439	98.98
317.905	90.03
318.371	87.58
318.837	93.73
319.303	98.98
319.769	92.58
320.235	101.13
320.701	98.53
321.167	96.78
321.633	97.18
322.099	98.53
322.564	101.38
323.03	100.53
323.496	103.08
323.962	102.43
324.427	106.58
324.893	104.73
325.359	112.88
325.824	109.18
326.29	114.83
326.755	113.48
327.221	109.43
327.686	120.63
328.152	116.58
328.617	117.58
329.083	118.93
329.548	117.28
330.014	122.38
330.479	126.78
330.944	125.83
331.41	129.83
331.875	123.23
332.34	126.33
332.805	128.53
333.271	122.98
333.736	126.98
334.201	127.28
334.666	134.98
335.131	135.03
335.596	137.38
336.061	132.53
336.526	135.38
336.991	133.48
337.456	131.63
337.921	130.18
338.386	127.98
338.851	134.68
339.316	133.03
339.781	126.63
340.246	129.68
340.711	135.53
341.175	138.58
341.64	139.58
342.105	139.98
342.569	156.33
343.034	144.08
343.499	152.13
343.963	153.33
344.428	157.63
344.893	155.53
345.357	160.78
345.822	159.88
346.286	164.68
346.751	162.73
347.215	169.43
347.679	175.43
348.144	184.43
348.608	180.53
349.073	184.78
349.537	186.38
350.001	192.68
350.465	186.68
350.93	184.08
351.394	193.23
351.858	188.73
352.322	193.93
352.786	200.38
353.25	199.18
353.715	199.33
354.179	212.33
354.643	214.63
355.107	218.83
355.571	208.28
356.035	209.38
356.498	212.93
356.962	210.08
357.426	201.63
357.89	204.08
358.354	199.98
358.818	202.13
359.281	203.08
359.745	204.88
360.209	205.73
360.673	207.88
361.136	206.28
361.6	207.73
362.064	209.28
362.527	220.38
362.991	221.03
363.454	216.33
363.918	224.48
364.381	220.93
364.845	223.08
365.308	218.88
365.772	225.53
366.235	226.53
366.698	226.18
367.162	222.98
367.625	227.98
368.088	232.03
368.552	229.43
369.015	230.53
369.478	234.88
369.941	231.63
370.404	238.98
370.867	233.28
371.331	237.53
371.794	243.43
372.257	241.63
372.72	244.68
373.183	248.63
373.646	243.68
374.109	245.13
374.572	245.78
375.035	251.58
375.497	254.18
375.96	265.08
376.423	265.08
376.886	263.73
377.349	268.88
377.811	267.73
378.274	269.58
378.737	269.93
379.199	272.38
379.662	276.68
380.125	275.28
380.587	278.78
381.05	285.83
381.512	281.33
381.975	292.03
382.437	303.28
382.9	300.13
383.362	292.98
383.825	294.43
384.287	305.58
384.75	300.43
385.212	304.68
385.674	308.18
386.136	316.18
386.599	308.68
387.061	307.73
387.523	309.53
387.985	316.03
388.447	318.88
388.91	313.53
389.372	320.53
389.834	324.58
390.296	314.13
390.758	322.18
391.22	313.73
391.682	314.68
392.144	315.03
392.606	320.93
393.068	327.33
393.529	350.63
393.991	357.03
394.453	343.88
394.915	328.18
395.377	317.78
395.838	318.18
396.3	325.53
396.762	341.68
397.224	330.13
397.685	330.58
398.147	342.28
398.608	335.28
399.07	341.53
399.531	342.53
399.993	352.68
400.454	360.53
400.916	354.38
401.377	366.18
401.839	364.63
402.3	367.38
402.762	379.08
403.223	408.38
403.684	412.33
404.145	388.13
404.607	380.63
405.068	364.98
405.529	365.38
405.99	372.98
406.451	376.73
406.913	369.53
407.374	374.93
407.835	373.63
408.296	385.23
408.757	381.18
409.218	399.68
409.679	406.53
410.14	403.58
410.601	424.53
411.062	424.18
411.522	435.33
411.983	439.43
412.444	446.93
412.905	454.23
413.366	476.43
413.826	500.63
414.287	574.83
414.748	702.88
415.208	715.73
415.669	588.33
416.13	528.23
416.59	515.48
417.051	547.18
417.511	571.58
417.972	615.08
418.432	673.53
418.893	758.03
419.353	716.63
419.814	541.53
420.274	473.53
420.734	461.08
421.195	477.08
421.655	473.03
422.115	488.03
422.576	477.08
423.036	486.08
423.496	503.53
423.956	521.03
424.416	554.23
424.876	632.78
425.336	617.58
425.797	605.73
426.257	586.88
426.717	544.68
427.177	488.98
427.637	489.33
428.097	491.23
428.556	510.18
429.016	553.88
429.476	529.78
429.936	505.58
430.396	497.73
430.856	502.83
431.315	514.68
431.775	542.83
432.235	598.43
432.694	614.63
433.154	567.58
433.614	541.28
434.073	537.03
434.533	492.83
434.993	483.53
435.452	489.28
435.912	486.88
436.371	497.53
436.83	498.23
437.29	494.33
437.749	492.68
438.209	499.83
438.668	502.63
439.127	515.23
439.587	508.68
440.046	508.48
440.505	513.28
440.964	521.53
441.424	534.03
441.883	547.63
442.342	532.33
442.801	509.43
443.26	516.53
443.719	518.43
444.178	521.83
444.637	529.43
445.096	530.23
445.555	539.13
446.014	534.13
446.473	533.38
446.932	528.03
447.391	543.38
447.849	548.13
448.308	535.03
448.767	539.58
449.226	554.68
449.685	565.83
450.143	594.83
450.602	582.38
451.061	552.83
451.519	559.73
451.978	542.93
452.436	545.28
452.895	553.23
453.353	544.18
453.812	534.98
454.27	539.43
454.729	544.48
455.187	554.53
455.646	558.23
456.104	552.13
456.562	556.03
457.021	564.48
457.479	541.38
457.937	563.28
458.395	580.78
458.854	572.83
459.312	565.53
459.77	572.08
460.228	570.38
460.686	578.38
461.144	585.08
461.602	575.33
462.06	582.73
462.518	588.43
462.976	586.83
463.434	595.68
463.892	597.88
464.35	608.33
464.808	617.33
465.266	624.83
465.724	628.73
466.181	631.83
466.639	642.43
467.097	650.18
467.555	678.28
468.012	673.08
468.47	669.53
468.928	690.68
469.385	710.98
469.843	713.38
470.3	709.83
470.758	731.28
471.215	739.38
471.673	749.18
472.13	768.13
472.588	779.18
473.045	775.38
473.503	790.18
473.96	816.38
474.417	819.13
474.875	850.18
475.332	862.83
475.789	874.43
476.246	882.03
476.704	911.18
477.161	914.43
477.618	897.23
478.075	929.38
478.532	954.38
478.989	992.03
479.446	1025.58
479.903	1017.53
480.36	1037.58
480.817	1039.98
481.274	1050.88
481.731	1076.18
482.188	1092.28
482.645	1117.83
483.102	1129.98
483.558	1169.23
484.015	1187.78
484.472	1185.38
484.929	1202.18
485.385	1198.63
485.842	1202.78
486.299	1211.88
486.755	1203.33
487.212	1185.53
487.668	1158.78
488.125	1149.73
488.582	1138.73
489.038	1138.33
489.494	1155.68
489.951	1146.63
490.407	1154.38
490.864	1166.93
491.32	1152.43
491.776	1158.48
492.233	1178.23
492.689	1173.38
493.145	1162.98
493.602	1160.43
494.058	1181.03
494.514	1184.98
494.97	1181.83
495.426	1201.78
495.882	1210.98
496.338	1206.53
496.794	1223.38
497.251	1209.73
497.707	1243.18
498.163	1237.08
498.618	1238.83
499.074	1238.03
499.53	1259.73
499.986	1263.68
500.442	1249.98
500.898	1244.93
501.354	1258.38
501.809	1263.28
502.265	1264.58
502.721	1269.08
503.177	1277.03
503.632	1291.33
504.088	1300.98
504.543	1304.18
504.999	1308.23
505.455	1310.48
505.91	1293.53
506.366	1298.73
506.821	1304.48
507.277	1299.98
507.732	1303.68
508.187	1305.63
508.643	1307.68
509.098	1327.33
509.553	1331.83
510.009	1354.08
510.464	1368.53
510.919	1380.48
511.375	1397.83
511.83	1412.18
512.285	1438.43
512.74	1463.58
513.195	1491.78
513.65	1516.38
514.105	1525.18
514.56	1539.43
515.015	1573.68
515.47	1576.98
515.925	1538.68
516.38	1554.53
516.835	1558.03
517.29	1558.33
517.745	1568.83
518.2	1529.03
518.655	1489.28
519.109	1474.73
519.564	1445.73
520.019	1437.23
520.474	1428.13
520.928	1419.13
521.383	1404.68
521.838	1404.03
522.292	1390.18
522.747	1375.98
523.201	1378.48
523.656	1360.18
524.11	1358.58
524.565	1347.18
525.019	1349.48
525.474	1345.53
525.928	1338.83
526.382	1337.03
526.837	1341.63
527.291	1342.58
527.745	1329.13
528.2	1330.43
528.654	1315.63
529.108	1318.63
529.562	1319.38
530.016	1310.78
530.47	1318.18
530.925	1310.13
531.379	1307.38
531.833	1321.23
532.287	1324.43
532.741	1301.83
533.195	1314.48
533.649	1313.53
534.103	1316.23
534.556	1302.43
535.01	1319.78
535.464	1317.98
535.918	1305.43
536.372	1315.48
536.826	1316.38
537.279	1308.98
537.733	1305.88
538.187	1316.63
538.64	1313.33
539.094	1319.93
539.548	1337.43
540.001	1342.28
540.455	1347.33
540.908	1368.83
541.362	1375.98
541.815	1384.73
542.269	1410.18
542.722	1408.78
543.175	1427.88
543.629	1423.83
544.082	1448.18
544.536	1454.33
544.989	1468.63
545.442	1476.48
545.895	1474.53
546.349	1482.33
546.802	1475.58
547.255	1480.28
547.708	1492.48
548.161	1508.68
548.614	1510.33
549.067	1517.13
549.52	1497.58
549.973	1473.68
550.426	1477.63
550.879	1469.13
551.332	1465.93
551.785	1485.13
552.238	1493.73
552.691	1488.88
553.144	1514.88
553.596	1539.83
554.049	1559.38
554.502	1593.53
554.955	1632.78
555.407	1645.13
555.86	1624.58
556.313	1603.73
556.765	1588.43
557.218	1561.83
557.67	1554.43
558.123	1535.03
558.576	1528.23
559.028	1533.18
559.48	1558.28
559.933	1555.13
560.385	1484.03
560.838	1438.33
561.29	1391.93
561.742	1383.23
562.195	1352.63
562.647	1342.33
563.099	1335.38
563.551	1325.78
564.004	1355.93
564.456	1333.83
564.908	1290.38
565.36	1262.38
565.812	1236.48
566.264	1235.73
566.716	1211.18
567.168	1199.28
567.62	1200.33
568.072	1185.53
568.524	1178.03
568.976	1174.73
569.428	1164.73
569.88	1161.58
570.332	1161.53
570.784	1164.43
571.235	1165.68
571.687	1176.48
572.139	1172.63
572.59	1183.93
573.042	1194.18
573.494	1186.23
573.945	1165.28
574.397	1146.93
574.849	1138.03
575.3	1137.63
575.752	1120.63
576.203	1118.58
576.655	1122.43
577.106	1097.88
577.557	1102.73
578.009	1091.93
578.46	1096.63
578.912	1088.18
579.363	1091.33
579.814	1093.03
580.265	1086.88
580.717	1082.13
581.168	1076.48
581.619	1095.28
582.07	1106.98
582.521	1103.73
582.972	1101.43
583.423	1098.33
583.875	1101.08
584.326	1113.53
584.777	1131.03
585.227	1155.33
585.678	1166.28
586.129	1168.93
586.58	1190.78
587.031	1217.63
587.482	1256.78
587.933	1269.93
588.384	1262.88
588.834	1260.63
589.285	1245.63
589.736	1246.43
590.186	1255.68
590.637	1237.98
591.088	1196.03
591.538	1167.48
591.989	1161.43
592.439	1144.48
592.89	1132.68
593.34	1123.03
593.791	1121.73
594.241	1109.83
594.692	1102.48
595.142	1103.58
595.593	1104.28
596.043	1112.98
596.493	1123.83
596.943	1109.08
597.394	1155.03
597.844	1164.48
598.294	1195.83
598.744	1226.23
599.195	1298.68
599.645	1390.58
600.095	1469.93
600.545	1539.28
600.995	1617.13
601.445	1693.73
601.895	1777.08
602.345	1831.53
602.795	1806.38
603.245	1712.48
603.695	1601.33
604.145	1511.63
604.594	1421.93
605.044	1338.88
605.494	1250.28
605.944	1171.88
606.393	1144.73
606.843	1135.23
607.293	1129.83
607.743	1125.58
608.192	1141.33
608.642	1139.03
609.091	1146.53
609.541	1136.58
609.99	1141.63
610.44	1104.88
610.889	1094.48
611.339	1077.78
611.788	1064.18
612.238	1071.33
612.687	1078.33
613.136	1075.28
613.586	1086.08
614.035	1087.73
614.484	1096.78
614.933	1102.03
615.383	1077.78
615.832	1047.98
616.281	1041.38
616.73	1012.43
617.179	993.13
617.628	971.13
618.077	957.78
618.526	942.43
618.975	934.98
619.424	916.38
619.873	926.33
620.322	905.68
620.771	909.03
621.22	888.08
621.669	871.38
622.118	862.58
622.567	857.08
623.015	830.18
623.464	828.08
623.913	817.78
624.361	830.38
624.81	816.33
625.259	816.23
625.707	820.93
626.156	825.33
626.604	840.53
627.053	842.58
627.501	841.58
627.95	849.93
628.398	858.53
628.847	846.43
629.295	841.48
629.744	832.63
630.192	825.18
630.64	802.78
631.089	790.28
631.537	759.23
631.985	757.73
632.433	751.28
632.881	744.78
633.33	744.48
633.778	743.33
634.226	757.63
634.674	758.73
635.122	763.03
635.57	775.18
636.018	789.18
636.466	785.53
636.914	777.73
637.362	789.08
637.81	819.78
638.258	842.93
638.705	854.23
639.153	875.28
639.601	880.78
640.049	899.93
640.497	924.73
640.944	952.63
641.392	901.68
641.84	825.33
642.287	774.73
642.735	746.38
643.182	732.58
643.63	726.08
644.078	711.88
644.525	720.68
644.973	732.28
645.42	727.18
645.867	724.48
646.315	732.23
646.762	736.08
647.21	730.63
647.657	738.13
648.104	726.63
648.551	695.83
648.999	693.83
649.446	693.68
649.893	688.53
650.34	704.18
650.787	719.23
651.234	741.08
651.682	798.83
652.129	889.73
652.576	1017.08
653.023	1171.53
653.47	1272.38
653.917	1333.63
654.363	1359.93
654.81	1422.53
655.257	1471.03
655.704	1157.23
656.151	889.38
656.598	769.83
657.044	711.33
657.491	703.23
657.938	680.23
658.385	670.98
658.831	668.93
659.278	659.13
659.724	650.08
660.171	648.38
660.618	630.28
661.064	623.33
661.511	622.78
661.957	626.58
662.404	627.48
662.85	641.78
663.296	638.38
663.743	640.73
664.189	641.73
664.635	653.63
665.082	645.18
665.528	640.48
665.974	627.68
666.42	618.33
666.867	624.18
667.313	586.88
667.759	581.98
668.205	582.93
668.651	591.43
669.097	581.43
669.543	590.13
669.989	601.83
670.435	602.53
670.881	607.08
671.327	641.63
671.773	688.83
672.219	757.73
672.665	807.23
673.11	851.98
673.556	870.38
674.002	907.28
674.448	921.73
674.893	761.23
675.339	649.63
675.785	601.73
676.23	568.33
676.676	541.58
677.122	531.58
677.567	516.98
678.013	496.18
678.458	494.98
678.904	495.08
679.349	489.28
679.794	489.68
680.24	488.33
680.685	482.18
681.131	487.43
681.576	485.53
682.021	490.58
682.466	504.43
682.912	507.48
683.357	526.43
683.802	576.03
684.247	646.73
684.692	692.08
685.137	727.93
685.583	740.43
686.028	789.23
686.473	738.23
686.918	628.18
687.363	562.53
687.807	538.98
688.252	508.73
688.697	493.98
689.142	474.98
689.587	475.68
690.032	482.03
690.477	508.18
690.921	537.08
691.366	567.48
691.811	596.58
692.255	648.68
692.7	792.13
693.145	1152.13
693.589	1774.73
694.034	2154.78
694.478	2345.13
694.923	2167.23
695.367	3128.58
695.812	1879.78
696.256	753.43
696.701	533.48
697.145	483.43
697.59	474.38
698.034	462.73
698.478	456.58
698.922	462.13
699.367	476.88
699.811	499.78
700.255	556.18
700.699	606.33
701.143	670.68
701.588	708.33
702.032	747.13
702.476	768.23
702.92	798.23
703.364	1045.18
703.808	1624.03
704.252	2082.73
704.696	2234.43
705.14	2136.03
705.584	2973.23
706.027	1615.78
706.471	778.73
706.915	570.53
707.359	504.23
707.803	460.78
708.246	439.88
708.69	447.13
709.134	439.33
709.577	437.58
710.021	448.48
710.465	445.48
710.908	439.53
711.352	454.93
711.795	511.48
712.239	543.23
712.682	571.13
713.126	556.53
713.569	637.38
714.012	509.63
714.456	432.13
714.899	405.13
715.342	388.23
715.786	374.08
716.229	370.88
716.672	358.08
717.115	357.38
717.558	359.23
718.002	368.68
718.445	393.63
718.888	410.68
719.331	426.33
719.774	443.13
720.217	420.78
720.66	397.63
721.103	369.88
721.546	349.68
721.989	338.73
722.432	344.53
722.874	333.08
723.317	344.83
723.76	370.58
724.203	461.18
724.645	632.58
725.088	759.43
725.531	756.83
725.974	838.23
726.416	742.73
726.859	436.23
727.301	357.43
727.744	335.78
728.187	336.93
728.629	351.73
729.071	363.13
729.514	388.48
729.956	407.48
730.399	413.58
730.841	408.83
731.283	395.58
731.726	382.88
732.168	392.48
732.61	413.03
733.053	445.53
733.495	504.78
733.937	561.68
734.379	673.03
734.821	857.13
735.263	1346.93
735.705	2444.98
736.148	3637.63
736.59	3739.08
737.032	4130.03
737.474	3373.08
737.916	1261.13
738.357	643.03
738.799	485.18
739.241	442.53
739.683	447.98
740.125	452.88
740.567	458.18
741.008	487.98
741.45	511.83
741.892	537.88
742.334	539.23
742.775	545.83
743.217	514.93
743.658	432.08
744.1	431.93
744.542	503.58
744.983	523.83
745.425	548.03
745.866	536.98
746.307	456.08
746.749	483.23
747.19	715.38
747.632	1415.08
748.073	2677.63
748.514	3745.88
748.956	5102.18
749.397	6052.53
749.838	4125.03
750.279	4004.18
750.72	2024.83
751.162	835.78
751.603	464.13
752.044	367.08
752.485	325.73
752.926	307.03
753.367	293.18
753.808	280.03
754.249	281.68
754.69	270.58
755.131	267.58
755.572	272.13
756.013	270.48
756.453	265.68
756.894	273.53
757.335	275.38
757.776	277.23
758.216	285.33
758.657	306.33
759.098	338.98
759.538	416.38
759.979	600.23
760.42	1220.33
760.86	3148.28
761.301	6786.53
761.741	8231.13
762.182	9710.23
762.622	6175.73
763.063	2136.23
763.503	856.83
763.943	492.68
764.384	385.63
764.824	330.73
765.264	296.18
765.705	290.73
766.145	267.83
766.585	264.73
767.025	250.08
767.465	251.33
767.906	253.38
768.346	267.98
768.786	316.33
769.226	474.23
769.666	972.53
770.106	2232.13
770.546	3277.28
770.986	3804.43
771.426	2870.23
771.866	1164.28
772.306	505.38
772.745	304.83
773.185	252.73
773.625	240.48
774.065	254.43
774.505	353.48
774.944	610.43
775.384	896.08
775.824	1037.73
776.263	866.83
776.703	456.33
777.142	265.63
777.582	208.23
778.021	190.53
778.461	179.93
778.9	180.73
779.34	176.08
779.779	169.28
780.219	162.23
780.658	161.98
781.097	156.93
781.537	151.78
781.976	159.03
782.415	153.78
782.855	155.88
783.294	153.03
783.733	149.13
784.172	153.78
784.611	149.58
785.05	163.53
785.489	163.53
785.928	168.43
786.367	175.13
786.806	186.68
787.245	200.78
787.684	205.48
788.123	204.88
788.562	203.63
789.001	188.88
789.44	179.58
789.879	178.33
790.317	184.63
790.756	194.28
791.195	222.68
791.634	303.08
792.072	557.43
792.511	1397.43
792.95	2653.98
793.388	3310.33
793.827	2152.48
794.265	951.18
794.704	445.28
795.142	269.68
795.581	219.33
796.019	192.58
796.458	189.53
796.896	201.28
797.334	234.98
797.773	322.33
798.211	616.43
798.649	1323.38
799.087	2253.03
799.526	3200.73
799.964	3365.83
800.402	2336.08
800.84	1027.18
801.278	485.98
801.716	285.73
802.154	232.48
802.592	212.58
803.03	224.78
803.468	227.13
803.906	226.48
804.344	220.23
804.782	218.18
805.22	218.43
805.658	223.83
806.096	238.93
806.533	268.93
806.971	351.83
807.409	509.13
807.847	1011.18
808.284	2605.23
808.722	4721.18
809.16	6652.73
809.597	8943.78
810.035	11414.43
810.472	7461.23
810.91	3061.38
811.347	1354.33
811.785	632.08
812.222	390.93
812.66	300.88
813.097	254.13
813.535	217.68
813.972	200.03
814.409	178.48
814.846	173.98
815.284	167.58
815.721	162.43
816.158	183.08
816.595	236.53
817.032	305.68
817.47	277.83
817.907	199.68
818.344	177.33
818.781	169.68
819.218	202.48
819.655	313.43
820.092	420.18
820.529	375.98
820.966	291.88
821.403	206.38
821.839	172.08
822.276	192.18
822.713	233.13
823.15	221.48
823.587	229.48
824.023	423.98
824.46	1092.58
824.897	1974.73
825.333	1564.58
825.77	693.18
826.206	355.63
826.643	199.23
827.08	152.33
827.516	134.98
827.953	117.88
828.389	118.68
828.825	105.33
829.262	107.33
829.698	101.38
830.135	91.78
830.571	93.58
831.007	98.48
831.443	95.83
831.88	98.63
832.316	102.98
832.752	97.93
833.188	101.18
833.624	103.98
834.06	99.23
834.497	107.58
834.933	107.58
835.369	116.48
835.805	125.43
836.241	131.58
836.677	141.88
837.112	168.28
837.548	204.03
837.984	314.33
838.42	670.63
838.856	1897.83
839.292	3886.98
839.727	2924.18
840.163	1883.83
840.599	2849.58
841.034	4559.58
841.47	2295.93
841.906	1079.43
842.341	559.53
842.777	391.78
843.212	401.38
843.648	247.33
844.083	167.13
844.519	130.03
844.954	110.23
845.39	95.68
845.825	94.58
846.261	89.73
846.696	85.33
847.131	84.43
847.566	85.58
848.002	82.63
848.437	97.73
848.872	96.83
849.307	124.38
849.742	228.83
850.177	623.03
850.613	1383.88
851.048	1006.08
851.483	444.38
851.918	236.03
852.353	126.83
852.788	89.08
853.223	86.63
853.657	72.43
854.092	71.18
854.527	71.83
854.962	73.43
855.397	80.13
855.832	72.33
856.266	59.68
856.701	60.98
857.136	68.23
857.57	80.38
858.005	96.33
858.44	78.73
858.874	75.33
859.309	83.83
859.743	81.33
860.178	76.78
860.612	81.48
861.047	111.63
861.481	157.43
861.915	104.63
862.35	77.98
862.784	62.73
863.218	63.18
863.653	62.98
864.087	79.18
864.521	100.53
864.955	176.63
865.39	323.78
865.824	223.23
866.258	277.08
866.692	423.23
867.126	310.73
867.56	162.18
867.994	98.98
868.428	88.53
868.862	108.88
869.296	97.53
869.73	125.33
870.164	107.88
870.598	97.68
871.031	73.43
871.465	61.93
871.899	49.28
872.333	42.28
872.766	41.48
873.2	44.23
873.634	45.33
874.067	51.83
874.501	50.83
874.935	51.18
875.368	49.93
875.802	43.63
876.235	37.33
876.669	37.98
877.102	34.63
877.535	36.18
877.969	30.98
878.402	37.48
878.836	38.68
879.269	37.43
879.702	36.38
880.135	36.58
880.569	38.08
881.002	33.38
881.435	34.73
881.868	34.78
882.301	31.03
882.734	31.03
883.167	33.03
883.601	31.53
884.034	34.38
884.467	27.23
884.899	28.48
885.332	26.48
885.765	28.98
886.198	23.28
886.631	31.43
887.064	27.93
887.497	33.88
887.929	29.73
888.362	26.63
888.795	27.88
889.228	34.03
889.66	31.98
890.093	22.88
890.526	23.43
890.958	28.78
891.391	25.43
891.823	28.33
892.256	27.68
892.688	26.48
893.121	28.73
893.553	30.78
893.985	23.83
894.418	22.58
894.85	27.73
895.282	30.08
895.715	22.43
896.147	23.93
896.579	23.83
897.011	26.88
897.444	25.13
897.876	19.68
898.308	25.03
898.74	25.33
899.172	30.58
899.604	28.08
900.036	25.93
900.468	22.13
900.9	26.13
901.332	33.48
901.764	35.38
902.196	37.93
902.628	35.38
903.06	45.28
903.491	54.03
903.923	46.08
904.355	44.33
904.787	39.18
905.218	38.83
905.65	38.08
906.082	31.53
906.513	32.58
906.945	29.13
907.376	29.93
907.808	29.73
908.239	34.78
908.671	38.48
909.102	43.03
909.534	60.43
909.965	116.13
910.397	310.73
910.828	938.33
911.259	574.18
911.691	306.58
912.122	172.23
912.553	83.38
912.984	45.03
913.415	37.78
913.847	32.38
914.278	36.53
914.709	24.78
915.14	28.68
915.571	30.28
916.002	26.08
916.433	23.73
916.864	29.23
917.295	26.28
917.726	34.28
918.157	38.98
918.587	40.53
919.018	36.53
919.449	33.13
919.88	38.83
920.311	68.13
920.741	188.13
921.172	346.03
921.603	168.88
922.033	100.73
922.464	67.98
922.895	41.38
923.325	28.63
923.756	20.93
924.186	35.58
924.617	43.43
925.047	65.73
925.478	50.48
925.908	39.28
926.338	30.38
926.769	20.33
927.199	24.33
927.629	22.08
928.06	26.78
928.49	23.38
928.92	22.78
929.35	23.18
929.78	9.43
930.21	17.53
930.641	11.48
931.071	12.68
931.501	11.63
931.931	12.08
932.361	14.38
932.791	18.93
933.221	17.63
933.651	23.53
934.08	38.68
934.51	24.58
934.94	23.83
935.37	14.83
935.8	15.83
936.229	9.58
936.659	12.08
937.089	18.98
937.519	35.68
937.948	51.83
938.378	32.38
938.807	14.53
939.237	6.48
939.666	11.98
940.096	7.83
940.525	4.43
940.955	11.38
941.384	4.88
941.814	4.13
942.243	5.73
942.672	1.03
943.102	-0.02
943.531	4.93
943.96	3.13
944.39	3.28
944.819	8.58
945.248	5.43
945.677	9.03
946.106	7.58
946.535	6.43
946.964	5.33
947.393	4.53
947.822	7.88
948.251	11.33
948.68	9.33
949.109	5.08
949.538	7.68
949.967	8.03
950.396	2.33
950.825	3.88
951.254	4.38
951.682	-0.82
952.111	2.38
952.54	1.03
952.969	6.73
953.397	-1.37
953.826	5.08
954.254	9.38
954.683	4.03
955.112	9.38
955.54	4.48
955.969	7.38
956.397	5.18
956.826	2.38
957.254	2.58
957.682	3.48
958.111	6.73
958.539	6.23
958.967	5.53
959.396	6.43
959.824	2.73
960.252	4.83
960.68	3.48
961.109	6.03
961.537	5.58
961.965	-2.17
962.393	3.83
962.821	5.88
963.249	4.28
963.677	8.18
964.105	60.13
964.533	102.33
964.961	50.93
965.389	27.88
965.817	15.68
966.245	11.23
966.672	0.53
967.1	8.23
967.528	-2.47
967.956	3.43
968.383	5.63
968.811	2.68
969.239	6.53
969.666	1.48
970.094	6.68
970.522	-3.17
970.949	0.83
971.377	-0.42
971.804	3.23
972.232	2.78
972.659	0.83
973.087	4.53
973.514	3.68
973.941	-0.22
974.369	-1.07
974.796	1.03
975.223	-1.47
975.651	2.73
976.078	2.83
976.505	6.18
976.932	25.03
977.359	28.33
977.786	17.93
978.214	13.78
978.641	2.93
979.068	5.18
979.495	0.33
979.922	5.53
980.349	4.18
980.776	5.98
981.202	3.13
981.629	7.98
982.056	7.28
982.483	1.83
982.91	5.68
983.337	2.63
983.763	8.23
984.19	3.13
984.617	2.03
985.043	2.08
985.47	6.83
985.897	4.93
986.323	7.68
986.75	1.33
987.176	0.28
987.603	1.93
988.029	3.03
988.456	8.48
988.882	2.73
989.308	-1.02
989.735	-0.22
990.161	-1.52
990.587	-3.67
991.014	1.73
991.44	5.13
991.866	3.88
992.292	-0.82
992.719	2.03
993.145	4.38
993.571	5.43
993.997	7.83
994.423	2.58
994.849	-4.92
995.275	1.03
995.701	3.33
996.127	-4.12
996.553	3.48
996.979	-4.97
997.405	5.33
997.83	2.13
998.256	0.98
998.682	4.83
999.108	5.63
999.534	-3.07
999.959	2.23
1000.385	3.18
1000.811	2.18
1001.236	-2.42
1001.662	1.18
1002.087	8.68
1002.513	2.28
1002.938	0.23
1003.364	2.03
1003.789	1.03
1004.215	-5.07
1004.64	1.53
1005.066	6.03
1005.491	5.13
1005.916	8.33
1006.342	2.18
1006.767	0.78
1007.192	2.98
1007.617	2.33
1008.042	2.48
1008.468	1.83
1008.893	7.98
1009.318	8.73
1009.743	12.18
1010.168	17.53
1010.593	15.13
1011.018	7.88
1011.443	2.13
1011.868	5.88
1012.293	4.63
1012.718	-0.32
1013.143	4.33
1013.567	7.78
1013.992	2.83
1014.417	3.23
1014.842	-2.32
1015.267	1.68
1015.691	6.98
1016.116	3.18
1016.541	1.08
1016.965	1.88
1017.39	1.68
1017.814	-0.77
1018.239	-0.02
1018.663	-4.72
1019.088	-2.72
1019.512	3.68
1019.937	-1.22
1020.361	2.13
1020.785	3.53
1021.21	-2.82
1021.634	-2.27
1022.058	2.18
1022.483	-3.37
1022.907	-0.82
1023.331	2.13
1023.755	0.78
1024.179	-2.02
1024.604	2.48
1025.028	2.93
1025.452	1.23
1025.876	3.68
1026.3	1.48
1026.724	-2.67
1027.148	5.48
1027.572	4.13
1027.996	4.28
1028.42	0.58
1028.843	-3.17
1029.267	-1.97
1029.691	1.68
1030.115	2.53
1030.539	2.23
1030.962	-1.82
1031.386	0.68
1031.81	0.13
1032.233	0.03
1032.657	-3.22
1033.08	4.43
1033.504	-2.12
1033.927	-3.02
1034.351	-3.37
1034.774	-0.02
1035.198	-6.07
1035.621	-0.77
1036.045	0.43
1036.468	4.88
1036.891	-1.12
1037.315	4.18
1037.738	0.53
1038.161	2.08
1038.584	0.78
1039.008	0.28
1039.431	0.38
1039.854	-2.62
1040.277	3.93
1040.7	-1.72
1041.123	3.98
1041.546	-3.52
1041.969	3.38
1042.392	3.18
1042.815	-3.17
1043.238	0.58
1043.661	2.83
1044.084	0.93
1044.507	-4.37
1044.93	1.28
1045.352	-0.07
1045.775	1.48
1046.198	4.48
1046.621	3.03
1047.043	-4.57
1047.466	0.83
1047.889	-3.47
1048.311	1.23
1048.734	-3.52
1049.156	0.03
1049.579	-3.42
1050.001	-3.62
1050.424	1.13
1050.846	-3.92
1051.269	-4.92
1051.691	-1.17
1052.113	0.13
1052.536	-4.27
1052.958	-2.77
1053.38	-0.57
1053.802	-0.52
1054.225	1.18
1054.647	4.68
1055.069	-1.62
1055.491	1.73
1055.913	2.53
1056.335	-5.12
1056.757	-2.07
1057.179	-2.12
1057.601	-3.22
1058.023	-0.67
1058.445	-4.82
1058.867	-0.22
1059.289	-3.17
1059.711	-2.87
1060.133	-1.62
1060.555	-1.72
1060.976	2.18
1061.398	0.63
1061.82	1.48
1062.241	-2.67
1062.663	-0.92
1063.085	-5.17
1063.506	-5.57
1063.928	-2.37
1064.35	1.63
1064.771	4.63
1065.193	-3.22
1065.614	-2.27
1066.035	4.28
1066.457	3.23
1066.878	3.83
1067.3	-0.47
1067.721	0.28
1068.142	1.03
1068.564	1.83
1068.985	-1.22
1069.406	-3.17
1069.827	-0.82
1070.248	-8.32
1070.67	-4.57
1071.091	-4.77
1071.512	-3.82
1071.933	-2.42
1072.354	-4.17
1072.775	-2.02
1073.196	1.48
1073.617	-3.07
1074.038	0.08
1074.459	-1.97
1074.88	-2.87
1075.3	-1.02
1075.721	-0.47
1076.142	-3.12
1076.563	-5.57
1076.983	1.43
1077.404	-6.82
1077.825	-1.82
1078.246	-3.27
1078.666	-5.87
1079.087	0.23
1079.507	-5.82
1079.928	-1.67
1080.348	-1.72
1080.769	0.38
1081.189	-5.02
1081.61	-6.42
1082.03	5.08
1082.451	1.18
1082.871	-4.97
1083.291	-3.27
1083.711	-2.77
1084.132	-3.17
1084.552	-5.77
1084.972	-4.82
1085.392	-4.12
1085.813	0.23
1086.233	-2.87
1086.653	-1.22
1087.073	-0.42
1087.493	-2.37
1087.913	-3.07
1088.333	-1.82
1088.753	-0.52
1089.173	3.38
1089.593	0.58
1090.013	0.08
1090.433	-6.22
1090.852	1.03
1091.272	-4.92
1091.692	-0.82
1092.112	-3.37
1092.531	-0.12
1092.951	-3.77
1093.371	-0.62
1093.79	-2.52
1094.21	-3.27
1094.63	-2.12
1095.049	0.23
1095.469	-5.97
1095.888	4.33
1096.308	0.78
1096.727	-2.47
1097.146	-3.72
1097.566	-1.27
1097.985	-2.67
1098.405	-0.32
1098.824	0.18
1099.243	1.58
1099.662	1.83
1100.082	-5.37
1100.501	-6.62
1100.92	4.88
1101.339	-1.02
1101.758	2.78
