Data from MSPlasma+Separation6_Subt14_10-12-55-942.txt Node
Date: Fri Jul 21 10:12:55 EDT 2017
User: Ender
Spectrometer: HR+D1039
Trigger mode: 0
Integration Time (sec): 6.430000E-3
Scans to average: 20
Electric dark correction enabled: true
Nonlinearity correction enabled: false
Boxcar width: 0
XAxis mode: Wavelengths
Number of Pixels in Spectrum: 2048
>>>>>Begin Spectral Data<<<<<
187.836	1.24
188.309	1.24
188.782	1.24
189.255	-0.41
189.728	3.99
190.201	-0.76
190.674	0.09
191.147	-1.26
191.619	1.19
192.092	-1.96
192.565	-2.86
193.038	4.04
193.511	-0.51
193.984	-4.56
194.456	-0.71
194.929	0.49
195.402	-0.26
195.874	2.29
196.347	3.54
196.82	1.74
197.292	-2.11
197.765	1.79
198.237	-3.51
198.71	-2.11
199.182	4.09
199.655	2.69
200.127	1.74
200.6	-2.46
201.072	0.09
201.544	-3.46
202.017	3.34
202.489	1.79
202.961	-2.61
203.433	-4.96
203.906	-4.36
204.378	0.14
204.85	-0.46
205.322	-0.76
205.794	0.94
206.266	-3.21
206.739	2.54
207.211	-1.01
207.683	-2.56
208.155	5.84
208.627	-0.21
209.099	3.89
209.57	2.34
210.042	1.99
210.514	2.69
210.986	-0.76
211.458	-2.76
211.93	-0.41
212.402	3.54
212.873	-1.06
213.345	-4.76
213.817	5.39
214.288	-1.31
214.76	2.49
215.232	2.89
215.703	0.24
216.175	-3.81
216.646	3.54
217.118	1.79
217.589	-2.51
218.061	2.64
218.532	-0.71
219.004	-0.16
219.475	0.04
219.946	3.99
220.418	5.54
220.889	-0.26
221.36	5.04
221.832	4.94
222.303	5.84
222.774	4.34
223.245	0.04
223.717	-1.66
224.188	5.29
224.659	3.64
225.13	0.09
225.601	1.69
226.072	3.79
226.543	6.79
227.014	3.39
227.485	8.34
227.956	4.44
228.427	9.84
228.898	3.44
229.369	2.14
229.839	3.49
230.31	4.69
230.781	5.44
231.252	4.54
231.722	4.09
232.193	0.89
232.664	6.19
233.135	4.29
233.605	1.94
234.076	14.34
234.546	7.04
235.017	8.69
235.487	7.74
235.958	9.39
236.428	12.49
236.899	9.44
237.369	14.09
237.84	9.59
238.31	9.39
238.78	6.64
239.251	8.49
239.721	4.59
240.191	9.29
240.662	13.44
241.132	7.64
241.602	12.64
242.072	11.79
242.542	8.69
243.013	6.24
243.483	17.84
243.953	9.74
244.423	16.24
244.893	10.09
245.363	15.99
245.833	8.59
246.303	15.39
246.773	17.99
247.243	12.44
247.712	17.79
248.182	13.49
248.652	16.79
249.122	15.34
249.592	18.79
250.061	14.59
250.531	15.49
251.001	15.74
251.471	20.74
251.94	17.94
252.41	20.94
252.879	20.79
253.349	22.64
253.818	15.49
254.288	24.09
254.757	19.94
255.227	23.89
255.696	18.14
256.166	21.49
256.635	30.19
257.105	23.64
257.574	20.99
258.043	21.24
258.513	27.59
258.982	23.59
259.451	26.44
259.92	19.09
260.389	24.79
260.859	22.49
261.328	29.04
261.797	24.64
262.266	31.09
262.735	33.59
263.204	24.99
263.673	30.04
264.142	21.14
264.611	30.89
265.08	32.49
265.549	26.44
266.018	28.89
266.487	32.19
266.955	30.19
267.424	33.04
267.893	36.29
268.362	32.69
268.83	29.74
269.299	32.14
269.768	35.34
270.236	35.64
270.705	39.09
271.174	30.84
271.642	30.69
272.111	34.84
272.579	31.99
273.048	35.19
273.516	35.69
273.985	37.14
274.453	34.04
274.922	37.99
275.39	34.44
275.858	38.84
276.327	37.64
276.795	38.89
277.263	41.14
277.731	35.14
278.2	44.34
278.668	36.89
279.136	43.79
279.604	39.84
280.072	36.24
280.54	41.79
281.008	44.84
281.477	43.69
281.945	42.54
282.413	44.64
282.881	45.84
283.348	43.79
283.816	47.24
284.284	45.94
284.752	49.24
285.22	48.49
285.688	48.49
286.156	51.69
286.623	54.69
287.091	48.89
287.559	56.44
288.026	54.84
288.494	55.84
288.962	58.19
289.429	52.04
289.897	56.49
290.364	49.19
290.832	57.99
291.3	54.44
291.767	51.84
292.234	58.79
292.702	59.04
293.169	56.79
293.637	61.89
294.104	63.24
294.571	57.89
295.039	58.19
295.506	57.29
295.973	65.94
296.44	62.34
296.908	62.14
297.375	59.84
297.842	65.59
298.309	59.29
298.776	62.84
299.243	65.64
299.71	66.59
300.177	61.24
300.644	65.89
301.111	64.74
301.578	66.19
302.045	64.34
302.512	69.59
302.979	72.24
303.446	74.19
303.913	74.44
304.379	75.44
304.846	73.79
305.313	75.74
305.78	79.24
306.246	78.44
306.713	80.14
307.18	83.29
307.646	82.69
308.113	78.14
308.579	92.44
309.046	88.99
309.512	84.79
309.979	89.49
310.445	92.24
310.912	85.14
311.378	91.49
311.845	90.39
312.311	90.54
312.777	93.69
313.244	94.34
313.71	97.54
314.176	101.49
314.642	98.04
315.109	96.69
315.575	95.74
316.041	97.89
316.507	99.89
316.973	103.74
317.439	101.04
317.905	105.94
318.371	103.19
318.837	101.34
319.303	103.34
319.769	100.29
320.235	108.29
320.701	108.74
321.167	106.39
321.633	103.99
322.099	104.84
322.564	111.29
323.03	109.04
323.496	110.84
323.962	114.19
324.427	116.14
324.893	113.74
325.359	115.64
325.824	114.54
326.29	125.29
326.755	116.24
327.221	122.54
327.686	123.64
328.152	123.29
328.617	126.44
329.083	122.44
329.548	126.19
330.014	129.09
330.479	135.44
330.944	131.34
331.41	137.14
331.875	133.29
332.34	132.19
332.805	133.29
333.271	133.74
333.736	135.59
334.201	135.24
334.666	146.79
335.131	138.94
335.596	143.99
336.061	141.34
336.526	138.69
336.991	132.94
337.456	138.79
337.921	132.74
338.386	135.69
338.851	132.09
339.316	140.99
339.781	139.79
340.246	138.99
340.711	145.64
341.175	145.79
341.64	154.44
342.105	150.29
342.569	160.39
343.034	153.54
343.499	156.09
343.963	162.99
344.428	164.29
344.893	164.29
345.357	166.19
345.822	168.44
346.286	168.89
346.751	168.89
347.215	172.84
347.679	182.24
348.144	187.19
348.608	192.04
349.073	190.64
349.537	199.59
350.001	195.34
350.465	194.69
350.93	196.14
351.394	203.69
351.858	201.19
352.322	202.84
352.786	205.19
353.25	207.29
353.715	206.09
354.179	219.84
354.643	222.39
355.107	221.04
355.571	219.29
356.035	217.09
356.498	219.09
356.962	213.84
357.426	216.59
357.89	213.34
358.354	212.34
358.818	204.19
359.281	212.19
359.745	210.19
360.209	213.74
360.673	207.89
361.136	212.89
361.6	216.89
362.064	216.59
362.527	229.89
362.991	226.94
363.454	224.49
363.918	232.84
364.381	229.99
364.845	226.24
365.308	226.14
365.772	230.39
366.235	232.04
366.698	226.14
367.162	225.94
367.625	236.44
368.088	240.74
368.552	238.39
369.015	234.24
369.478	237.34
369.941	240.64
370.404	246.94
370.867	238.19
371.331	247.64
371.794	248.44
372.257	250.69
372.72	247.84
373.183	253.09
373.646	252.84
374.109	253.39
374.572	251.04
375.035	256.54
375.497	256.19
375.96	261.69
376.423	266.24
376.886	270.39
377.349	276.09
377.811	273.99
378.274	275.84
378.737	269.14
379.199	270.54
379.662	278.34
380.125	284.14
380.587	285.14
381.05	291.39
381.512	294.09
381.975	295.54
382.437	307.24
382.9	304.54
383.362	299.49
383.825	312.74
384.287	312.29
384.75	306.44
385.212	306.89
385.674	318.04
386.136	323.44
386.599	315.34
387.061	316.34
387.523	317.04
387.985	319.74
388.447	324.39
388.91	323.74
389.372	323.89
389.834	325.39
390.296	314.19
390.758	324.14
391.22	322.84
391.682	322.99
392.144	321.79
392.606	327.99
393.068	338.19
393.529	357.59
393.991	366.84
394.453	344.79
394.915	331.09
395.377	325.49
395.838	329.64
396.3	325.99
396.762	336.54
397.224	337.19
397.685	332.39
398.147	342.54
398.608	341.89
399.07	346.84
399.531	346.74
399.993	356.59
400.454	357.99
400.916	358.29
401.377	368.59
401.839	374.09
402.3	374.59
402.762	388.29
403.223	417.39
403.684	416.04
404.145	393.74
404.607	381.44
405.068	371.74
405.529	382.89
405.99	382.64
406.451	379.89
406.913	378.24
407.374	380.74
407.835	383.59
408.296	391.29
408.757	391.14
409.218	402.09
409.679	407.69
410.14	408.74
410.601	426.94
411.062	430.64
411.522	435.24
411.983	439.29
412.444	447.14
412.905	463.89
413.366	482.09
413.826	508.44
414.287	587.44
414.748	712.84
415.208	728.74
415.669	596.44
416.13	539.89
416.59	530.34
417.051	552.09
417.511	580.49
417.972	623.34
418.432	687.59
418.893	764.64
419.353	726.74
419.814	538.24
420.274	476.79
420.734	470.64
421.195	482.84
421.655	482.54
422.115	494.29
422.576	485.94
423.036	492.39
423.496	508.69
423.956	526.19
424.416	561.04
424.876	636.89
425.336	633.79
425.797	608.59
426.257	601.04
426.717	549.69
427.177	499.04
427.637	484.99
428.097	507.64
428.556	517.29
429.016	561.24
429.476	545.39
429.936	511.74
430.396	500.34
430.856	511.69
431.315	518.79
431.775	554.84
432.235	610.69
432.694	626.49
433.154	573.29
433.614	558.64
434.073	544.24
434.533	498.44
434.993	489.29
435.452	502.39
435.912	497.49
436.371	502.99
436.83	509.84
437.29	506.04
437.749	504.04
438.209	503.94
438.668	513.49
439.127	523.84
439.587	525.19
440.046	513.19
440.505	530.34
440.964	533.04
441.424	553.74
441.883	561.24
442.342	542.19
442.801	516.94
443.26	535.59
443.719	529.69
444.178	524.99
444.637	533.29
445.096	535.24
445.555	546.99
446.014	541.99
446.473	535.29
446.932	539.89
447.391	554.59
447.849	564.69
448.308	550.54
448.767	560.54
449.226	566.34
449.685	579.44
450.143	602.59
450.602	606.19
451.061	569.34
451.519	569.14
451.978	558.24
452.436	553.64
452.895	557.84
453.353	558.69
453.812	553.24
454.27	561.09
454.729	559.79
455.187	565.49
455.646	566.54
456.104	563.09
456.562	574.04
457.021	581.64
457.479	557.49
457.937	570.99
458.395	595.29
458.854	585.04
459.312	573.09
459.77	575.14
460.228	582.14
460.686	592.99
461.144	601.19
461.602	585.39
462.06	590.89
462.518	601.44
462.976	596.44
463.434	615.29
463.892	614.14
464.35	630.44
464.808	632.99
465.266	640.59
465.724	650.44
466.181	655.24
466.639	647.04
467.097	674.79
467.555	704.79
468.012	694.09
468.47	695.84
468.928	717.44
469.385	738.09
469.843	734.04
470.3	735.99
470.758	753.24
471.215	751.14
471.673	782.49
472.13	792.49
472.588	801.49
473.045	800.39
473.503	811.69
473.96	847.24
474.417	852.29
474.875	878.94
475.332	895.84
475.789	904.69
476.246	914.24
476.704	943.39
477.161	942.34
477.618	942.34
478.075	967.44
478.532	987.59
478.989	1012.24
479.446	1062.24
479.903	1057.69
480.36	1077.44
480.817	1072.99
481.274	1079.99
481.731	1117.44
482.188	1135.69
482.645	1163.54
483.102	1179.24
483.558	1208.54
484.015	1230.89
484.472	1227.24
484.929	1228.29
485.385	1236.34
485.842	1245.24
486.299	1251.69
486.755	1240.94
487.212	1231.69
487.668	1194.09
488.125	1193.49
488.582	1173.29
489.038	1179.44
489.494	1201.84
489.951	1197.29
490.407	1201.14
490.864	1197.39
491.32	1201.09
491.776	1202.99
492.233	1223.49
492.689	1214.94
493.145	1209.99
493.602	1197.09
494.058	1214.14
494.514	1237.19
494.97	1242.24
495.426	1257.14
495.882	1264.34
496.338	1264.84
496.794	1278.74
497.251	1283.84
497.707	1294.24
498.163	1298.54
498.618	1298.64
499.074	1304.29
499.53	1307.29
499.986	1319.69
500.442	1311.49
500.898	1304.24
501.354	1321.24
501.809	1320.99
502.265	1316.59
502.721	1323.89
503.177	1330.99
503.632	1337.44
504.088	1354.34
504.543	1366.19
504.999	1378.49
505.455	1373.34
505.91	1354.64
506.366	1363.39
506.821	1368.59
507.277	1356.04
507.732	1368.59
508.187	1368.39
508.643	1376.84
509.098	1381.99
509.553	1392.04
510.009	1402.39
510.464	1438.14
510.919	1443.74
511.375	1471.54
511.83	1484.39
512.285	1500.89
512.74	1537.44
513.195	1558.19
513.65	1586.49
514.105	1618.79
514.56	1616.69
515.015	1648.49
515.47	1672.39
515.925	1643.39
516.38	1633.99
516.835	1650.94
517.29	1631.79
517.745	1629.04
518.2	1616.39
518.655	1574.34
519.109	1554.59
519.564	1529.19
520.019	1512.59
520.474	1504.49
520.928	1493.44
521.383	1483.44
521.838	1476.09
522.292	1472.04
522.747	1455.19
523.201	1458.49
523.656	1432.39
524.11	1420.54
524.565	1424.09
525.019	1427.39
525.474	1416.94
525.928	1408.64
526.382	1408.59
526.837	1406.94
527.291	1417.34
527.745	1398.34
528.2	1403.59
528.654	1384.09
529.108	1390.19
529.562	1394.74
530.016	1390.59
530.47	1388.44
530.925	1386.09
531.379	1382.34
531.833	1405.34
532.287	1400.99
532.741	1389.19
533.195	1390.99
533.649	1396.44
534.103	1389.69
534.556	1383.69
535.01	1401.69
535.464	1390.59
535.918	1387.99
536.372	1405.74
536.826	1394.69
537.279	1386.69
537.733	1381.89
538.187	1395.64
538.64	1390.64
539.094	1406.94
539.548	1423.59
540.001	1419.84
540.455	1429.04
540.908	1436.34
541.362	1450.29
541.815	1447.84
542.269	1489.24
542.722	1482.64
543.175	1504.24
543.629	1505.64
544.082	1527.34
544.536	1543.49
544.989	1537.69
545.442	1564.54
545.895	1566.54
546.349	1549.09
546.802	1566.54
547.255	1566.29
547.708	1576.29
548.161	1592.14
548.614	1603.14
549.067	1609.14
549.52	1593.79
549.973	1568.49
550.426	1560.64
550.879	1549.34
551.332	1537.24
551.785	1554.54
552.238	1577.89
552.691	1572.44
553.144	1599.69
553.596	1633.44
554.049	1649.04
554.502	1690.14
554.955	1722.89
555.407	1753.09
555.86	1716.79
556.313	1691.99
556.765	1680.09
557.218	1665.44
557.67	1661.44
558.123	1633.19
558.576	1616.99
559.028	1627.14
559.48	1646.49
559.933	1639.79
560.385	1582.34
560.838	1527.14
561.29	1472.74
561.742	1462.89
562.195	1439.94
562.647	1426.24
563.099	1425.74
563.551	1415.44
564.004	1428.69
564.456	1421.89
564.908	1375.54
565.36	1346.79
565.812	1325.14
566.264	1309.14
566.716	1288.74
567.168	1267.14
567.62	1270.69
568.072	1263.44
568.524	1246.49
568.976	1251.24
569.428	1232.74
569.88	1228.09
570.332	1243.29
570.784	1242.34
571.235	1239.94
571.687	1251.49
572.139	1257.24
572.59	1266.59
573.042	1278.04
573.494	1268.34
573.945	1255.34
574.397	1229.19
574.849	1218.44
575.3	1222.69
575.752	1197.24
576.203	1187.39
576.655	1196.74
577.106	1178.39
577.557	1172.49
578.009	1174.09
578.46	1166.44
578.912	1154.79
579.363	1171.94
579.814	1170.74
580.265	1164.89
580.717	1167.24
581.168	1164.89
581.619	1167.54
582.07	1182.34
582.521	1180.54
582.972	1174.99
583.423	1176.19
583.875	1175.54
584.326	1193.29
584.777	1208.49
585.227	1230.69
585.678	1236.39
586.129	1246.44
586.58	1271.69
587.031	1292.89
587.482	1329.79
587.933	1345.09
588.384	1347.99
588.834	1334.89
589.285	1324.79
589.736	1329.04
590.186	1330.99
590.637	1316.74
591.088	1283.84
591.538	1260.69
591.989	1233.74
592.439	1227.34
592.89	1209.24
593.34	1197.54
593.791	1192.04
594.241	1183.14
594.692	1170.79
595.142	1185.74
595.593	1175.54
596.043	1188.99
596.493	1195.04
596.943	1195.09
597.394	1227.54
597.844	1244.19
598.294	1272.69
598.744	1317.89
599.195	1388.19
599.645	1474.44
600.095	1557.54
600.545	1633.19
600.995	1706.79
601.445	1785.64
601.895	1891.34
602.345	1944.99
602.795	1923.89
603.245	1835.44
603.695	1712.89
604.145	1605.84
604.594	1522.09
605.044	1436.14
605.494	1334.89
605.944	1263.04
606.393	1228.24
606.843	1214.64
607.293	1213.24
607.743	1201.29
608.192	1209.64
608.642	1214.69
609.091	1212.79
609.541	1214.04
609.99	1216.54
610.44	1177.54
610.889	1173.29
611.339	1158.29
611.788	1144.44
612.238	1150.54
612.687	1145.94
613.136	1150.09
613.586	1167.29
614.035	1166.44
614.484	1169.89
614.933	1172.84
615.383	1143.94
615.832	1121.99
616.281	1111.99
616.73	1091.54
617.179	1052.64
617.628	1038.89
618.077	1024.74
618.526	1007.19
618.975	1006.14
619.424	976.99
619.873	980.04
620.322	971.14
620.771	969.09
621.22	954.74
621.669	930.19
622.118	927.29
622.567	909.14
623.015	890.19
623.464	897.54
623.913	874.64
624.361	885.24
624.81	877.69
625.259	885.74
625.707	875.59
626.156	885.14
626.604	898.99
627.053	908.99
627.501	895.89
627.95	912.44
628.398	917.64
628.847	909.49
629.295	905.84
629.744	901.49
630.192	884.09
630.64	864.54
631.089	851.79
631.537	824.64
631.985	812.29
632.433	807.69
632.881	792.59
633.33	804.59
633.778	800.99
634.226	805.09
634.674	816.64
635.122	818.64
635.57	831.19
636.018	847.19
636.466	846.19
636.914	837.24
637.362	852.24
637.81	864.49
638.258	899.29
638.705	905.49
639.153	938.44
639.601	946.39
640.049	966.49
640.497	990.29
640.944	1022.04
641.392	955.89
641.84	887.54
642.287	834.49
642.735	802.04
643.182	792.44
643.63	782.74
644.078	773.54
644.525	767.39
644.973	782.19
645.42	786.79
645.867	784.19
646.315	777.49
646.762	788.24
647.21	784.09
647.657	788.64
648.104	774.04
648.551	755.69
648.999	745.69
649.446	741.94
649.893	741.94
650.34	746.59
650.787	766.69
651.234	796.74
651.682	857.54
652.129	941.09
652.576	1079.84
653.023	1227.89
653.47	1318.74
653.917	1386.29
654.363	1429.74
654.81	1496.69
655.257	1532.54
655.704	1216.44
656.151	946.84
656.598	833.94
657.044	768.34
657.491	745.84
657.938	727.54
658.385	718.14
658.831	712.09
659.278	708.99
659.724	697.59
660.171	697.89
660.618	675.19
661.064	660.99
661.511	667.94
661.957	666.74
662.404	678.19
662.85	676.99
663.296	685.59
663.743	690.29
664.189	691.14
664.635	697.19
665.082	687.24
665.528	695.09
665.974	670.14
666.42	667.99
666.867	662.39
667.313	629.99
667.759	629.49
668.205	627.94
668.651	631.34
669.097	640.19
669.543	635.49
669.989	642.79
670.435	648.79
670.881	654.74
671.327	693.09
671.773	741.49
672.219	802.94
672.665	859.04
673.11	903.19
673.556	926.49
674.002	961.59
674.448	983.89
674.893	828.44
675.339	697.79
675.785	647.44
676.23	610.24
676.676	586.89
677.122	573.89
677.567	561.49
678.013	535.89
678.458	534.44
678.904	536.29
679.349	525.59
679.794	527.19
680.24	528.09
680.685	516.19
681.131	521.74
681.576	521.69
682.021	529.04
682.466	533.44
682.912	538.19
683.357	561.89
683.802	618.34
684.247	688.19
684.692	736.29
685.137	772.49
685.583	795.09
686.028	851.49
686.473	799.79
686.918	679.24
687.363	616.19
687.807	576.34
688.252	548.44
688.697	530.99
689.142	508.99
689.587	517.49
690.032	523.89
690.477	544.89
690.921	573.39
691.366	612.34
691.811	636.39
692.255	695.79
692.7	846.49
693.145	1215.94
693.589	1876.69
694.034	2278.79
694.478	2487.29
694.923	2314.19
695.367	3389.99
695.812	1998.49
696.256	805.14
696.701	574.74
697.145	527.19
697.59	509.49
698.034	500.19
698.478	498.19
698.922	503.49
699.367	513.24
699.811	540.04
700.255	589.44
700.699	651.54
701.143	710.69
701.588	763.14
702.032	793.49
702.476	817.59
702.92	851.74
703.364	1116.79
703.808	1721.74
704.252	2174.64
704.696	2359.34
705.14	2286.44
705.584	3197.59
706.027	1726.44
706.471	841.04
706.915	613.69
707.359	541.24
707.803	502.79
708.246	477.19
708.69	473.79
709.134	467.99
709.577	474.04
710.021	477.89
710.465	472.09
710.908	467.89
711.352	490.74
711.795	541.29
712.239	593.24
712.682	606.24
713.126	603.54
713.569	682.04
714.012	544.69
714.456	462.59
714.899	440.59
715.342	418.19
715.786	407.29
716.229	387.64
716.672	379.04
717.115	385.39
717.558	383.49
718.002	400.89
718.445	415.54
718.888	445.24
719.331	453.44
719.774	468.69
720.217	456.39
720.66	427.29
721.103	398.54
721.546	379.39
721.989	368.29
722.432	358.44
722.874	358.34
723.317	365.89
723.76	401.39
724.203	491.79
724.645	674.09
725.088	810.14
725.531	802.74
725.974	905.09
726.416	794.79
726.859	469.79
727.301	384.54
727.744	362.39
728.187	366.84
728.629	372.19
729.071	396.24
729.514	412.94
729.956	427.69
730.399	441.94
730.841	441.19
731.283	422.54
731.726	413.19
732.168	416.79
732.61	440.44
733.053	477.09
733.495	531.24
733.937	599.09
734.379	711.29
734.821	893.94
735.263	1427.99
735.705	2565.79
736.148	3876.89
736.59	3971.94
737.032	4451.54
737.474	3616.19
737.916	1344.69
738.357	685.34
738.799	519.54
739.241	483.69
739.683	476.89
740.125	487.29
740.567	491.54
741.008	523.64
741.45	553.14
741.892	573.49
742.334	579.84
742.775	585.99
743.217	555.09
743.658	461.29
744.1	471.69
744.542	536.54
744.983	559.34
745.425	600.24
745.866	586.64
746.307	490.99
746.749	523.34
747.19	755.14
747.632	1493.94
748.073	2807.84
748.514	3967.59
748.956	5450.54
749.397	6432.29
749.838	4399.34
750.279	4327.09
750.72	2160.29
751.162	893.14
751.603	506.59
752.044	395.44
752.485	348.59
752.926	331.64
753.367	310.74
753.808	299.39
754.249	294.94
754.69	293.94
755.131	294.14
755.572	287.64
756.013	283.94
756.453	293.04
756.894	296.94
757.335	292.99
757.776	302.84
758.216	304.54
758.657	326.19
759.098	368.14
759.538	439.89
759.979	644.54
760.42	1298.39
760.86	3334.94
761.301	7122.34
761.741	8721.44
762.182	10482.39
762.622	6643.99
763.063	2290.64
763.503	911.39
763.943	526.64
764.384	410.99
764.824	353.14
765.264	325.29
765.705	305.79
766.145	285.84
766.585	276.34
767.025	273.09
767.465	272.49
767.906	273.04
768.346	294.84
768.786	342.79
769.226	500.79
769.666	1031.74
770.106	2357.99
770.546	3462.39
770.986	4087.79
771.426	3095.74
771.866	1237.59
772.306	546.49
772.745	327.64
773.185	270.94
773.625	265.49
774.065	270.39
774.505	380.94
774.944	664.19
775.384	969.94
775.824	1125.69
776.263	946.09
776.703	492.04
777.142	289.79
777.582	213.59
778.021	200.74
778.461	200.84
778.9	196.29
779.34	185.99
779.779	180.84
780.219	180.84
780.658	176.69
781.097	176.69
781.537	167.89
781.976	169.74
782.415	163.14
782.855	162.79
783.294	166.04
783.733	161.24
784.172	165.89
784.611	166.64
785.05	172.64
785.489	175.14
785.928	183.64
786.367	188.74
786.806	196.79
787.245	216.54
787.684	218.89
788.123	216.39
788.562	210.89
789.001	203.64
789.44	195.34
789.879	197.59
790.317	195.34
790.756	209.44
791.195	243.59
791.634	328.44
792.072	597.74
792.511	1495.44
792.95	2803.49
793.388	3562.04
793.827	2308.64
794.265	1020.94
794.704	479.54
795.142	291.29
795.581	242.04
796.019	211.44
796.458	213.39
796.896	216.54
797.334	253.94
797.773	332.14
798.211	655.04
798.649	1405.29
799.087	2408.59
799.526	3429.59
799.964	3607.49
800.402	2513.04
800.84	1100.89
801.278	522.19
801.716	314.44
802.154	244.99
802.592	242.39
803.03	238.04
803.468	243.39
803.906	243.89
804.344	236.24
804.782	230.94
805.22	234.04
805.658	239.39
806.096	256.69
806.533	288.64
806.971	370.94
807.409	537.19
807.847	1074.79
808.284	2775.29
808.722	5028.39
809.16	7097.74
809.597	9495.04
810.035	12247.34
810.472	8011.24
810.91	3276.89
811.347	1456.29
811.785	676.29
812.222	423.54
812.66	324.19
813.097	271.09
813.535	235.24
813.972	214.04
814.409	201.59
814.846	191.89
815.284	178.19
815.721	182.59
816.158	195.69
816.595	256.04
817.032	333.74
817.47	302.39
817.907	221.09
818.344	188.89
818.781	187.74
819.218	222.99
819.655	340.69
820.092	452.99
820.529	409.94
820.966	320.79
821.403	218.29
821.839	191.74
822.276	209.34
822.713	253.39
823.15	239.24
823.587	250.49
824.023	454.74
824.46	1159.64
824.897	2108.79
825.333	1676.94
825.77	742.44
826.206	372.94
826.643	215.04
827.08	163.64
827.516	140.64
827.953	137.59
828.389	122.74
828.825	120.09
829.262	113.94
829.698	111.14
830.135	103.49
830.571	103.84
831.007	106.64
831.443	103.54
831.88	107.79
832.316	110.59
832.752	105.29
833.188	106.44
833.624	108.19
834.06	110.99
834.497	109.79
834.933	115.29
835.369	125.84
835.805	134.14
836.241	139.94
836.677	156.39
837.112	177.59
837.548	221.94
837.984	336.04
838.42	711.94
838.856	2044.94
839.292	4164.74
839.727	3133.39
840.163	2010.84
840.599	3045.74
841.034	4905.19
841.47	2454.19
841.906	1143.14
842.341	592.14
842.777	416.24
843.212	429.59
843.648	267.59
844.083	190.09
844.519	137.09
844.954	118.74
845.39	104.39
845.825	102.44
846.261	97.24
846.696	91.89
847.131	93.74
847.566	94.09
848.002	93.99
848.437	102.84
848.872	103.39
849.307	134.64
849.742	247.74
850.177	666.14
850.613	1486.89
851.048	1074.79
851.483	477.59
851.918	257.89
852.353	139.64
852.788	98.24
853.223	90.79
853.657	80.59
854.092	77.04
854.527	74.14
854.962	80.44
855.397	91.74
855.832	75.54
856.266	67.09
856.701	68.74
857.136	67.14
857.57	83.34
858.005	102.19
858.44	84.34
858.874	84.84
859.309	91.59
859.743	83.59
860.178	81.79
860.612	90.79
861.047	116.44
861.481	172.39
861.915	110.89
862.35	80.24
862.784	68.49
863.218	68.09
863.653	73.04
864.087	93.29
864.521	112.59
864.955	192.09
865.39	351.09
865.824	249.69
866.258	302.19
866.692	461.14
867.126	339.34
867.56	176.64
867.994	116.54
868.428	99.69
868.862	122.14
869.296	111.04
869.73	138.39
870.164	121.79
870.598	104.14
871.031	72.19
871.465	65.39
871.899	53.09
872.333	47.09
872.766	51.14
873.2	50.39
873.634	46.69
874.067	52.24
874.501	52.59
874.935	54.54
875.368	56.79
875.802	47.54
876.235	41.59
876.669	41.99
877.102	41.79
877.535	43.49
877.969	39.39
878.402	39.09
878.836	39.39
879.269	36.24
879.702	42.64
880.135	38.59
880.569	40.39
881.002	38.24
881.435	36.49
881.868	37.79
882.301	36.04
882.734	33.79
883.167	38.24
883.601	34.09
884.034	34.04
884.467	28.54
884.899	37.69
885.332	30.99
885.765	36.29
886.198	32.19
886.631	31.79
887.064	29.29
887.497	32.69
887.929	29.94
888.362	26.84
888.795	29.29
889.228	33.54
889.66	27.94
890.093	30.29
890.526	34.79
890.958	28.84
891.391	32.39
891.823	30.59
892.256	34.34
892.688	31.09
893.121	27.99
893.553	31.79
893.985	29.19
894.418	27.59
894.85	28.59
895.282	25.59
895.715	25.59
896.147	25.64
896.579	30.29
897.011	29.24
897.444	26.44
897.876	22.09
898.308	25.09
898.74	30.59
899.172	31.94
899.604	25.54
900.036	29.69
900.468	28.49
900.9	33.24
901.332	39.64
901.764	38.74
902.196	37.54
902.628	37.54
903.06	54.89
903.491	57.14
903.923	46.24
904.355	49.24
904.787	51.29
905.218	37.59
905.65	38.09
906.082	35.19
906.513	37.04
906.945	37.49
907.376	37.04
907.808	34.74
908.239	37.04
908.671	38.29
909.102	49.94
909.534	67.24
909.965	128.99
910.397	338.39
910.828	1010.34
911.259	618.19
911.691	319.79
912.122	182.54
912.553	92.29
912.984	51.59
913.415	38.44
913.847	39.19
914.278	38.29
914.709	27.19
915.14	31.54
915.571	31.59
916.002	31.44
916.433	27.79
916.864	28.44
917.295	32.74
917.726	36.44
918.157	42.39
918.587	46.49
919.018	40.59
919.449	34.94
919.88	41.99
920.311	73.04
920.741	203.34
921.172	375.49
921.603	177.59
922.033	106.89
922.464	68.64
922.895	47.24
923.325	28.89
923.756	28.44
924.186	37.24
924.617	52.54
925.047	72.24
925.478	61.09
925.908	47.24
926.338	33.14
926.769	26.04
927.199	28.54
927.629	31.54
928.06	27.79
928.49	25.44
928.92	22.74
929.35	22.99
929.78	18.99
930.21	19.29
930.641	12.99
931.071	14.64
931.501	12.94
931.931	13.34
932.361	15.14
932.791	21.29
933.221	19.49
933.651	28.59
934.08	48.19
934.51	27.19
934.94	24.39
935.37	23.49
935.8	15.09
936.229	14.04
936.659	12.84
937.089	24.34
937.519	36.79
937.948	53.64
938.378	32.34
938.807	15.74
939.237	11.09
939.666	12.09
940.096	7.49
940.525	4.44
940.955	5.14
941.384	7.79
941.814	8.99
942.243	7.34
942.672	6.09
943.102	3.89
943.531	4.34
943.96	9.49
944.39	10.99
944.819	11.69
945.248	5.84
945.677	9.24
946.106	8.34
946.535	7.59
946.964	8.29
947.393	5.19
947.822	8.19
948.251	5.84
948.68	3.79
949.109	5.69
949.538	4.74
949.967	8.99
950.396	6.84
950.825	6.24
951.254	6.39
951.682	3.49
952.111	2.59
952.54	4.99
952.969	5.24
953.397	-0.56
953.826	-0.91
954.254	8.99
954.683	3.09
955.112	7.49
955.54	6.84
955.969	4.94
956.397	8.09
956.826	6.04
957.254	4.39
957.682	3.49
958.111	4.44
958.539	11.64
958.967	6.59
959.396	9.64
959.824	3.64
960.252	7.84
960.68	9.64
961.109	5.14
961.537	9.39
961.965	-0.96
962.393	5.34
962.821	4.49
963.249	5.19
963.677	10.14
964.105	60.74
964.533	110.64
964.961	51.89
965.389	29.44
965.817	14.84
966.245	6.99
966.672	6.84
967.1	7.79
967.528	-1.91
967.956	7.04
968.383	7.99
968.811	3.49
969.239	5.99
969.666	5.04
970.094	3.74
970.522	-1.31
970.949	4.09
971.377	-4.66
971.804	-0.51
972.232	-0.36
972.659	1.49
973.087	2.99
973.514	1.69
973.941	0.24
974.369	-0.66
974.796	5.44
975.223	7.49
975.651	5.99
976.078	7.04
976.505	7.69
976.932	27.29
977.359	28.14
977.786	24.19
978.214	12.14
978.641	1.79
979.068	6.79
979.495	3.54
979.922	2.59
980.349	4.99
980.776	5.79
981.202	1.79
981.629	8.99
982.056	3.29
982.483	-8.01
982.91	5.49
983.337	0.74
983.763	6.14
984.19	7.89
984.617	3.64
985.043	4.14
985.47	8.19
985.897	1.34
986.323	7.89
986.75	3.04
987.176	4.54
987.603	1.59
988.029	5.34
988.456	3.59
988.882	-0.76
989.308	-2.16
989.735	3.99
990.161	0.39
990.587	-1.71
991.014	2.04
991.44	5.54
991.866	-0.96
992.292	3.19
992.719	1.44
993.145	3.79
993.571	2.89
993.997	5.24
994.423	7.44
994.849	-2.86
995.275	4.29
995.701	5.94
996.127	0.44
996.553	5.49
996.979	-3.11
997.405	8.09
997.83	3.54
998.256	4.19
998.682	3.64
999.108	5.49
999.534	-4.51
999.959	1.84
1000.385	4.19
1000.811	-2.56
1001.236	-0.51
1001.662	0.09
1002.087	6.44
1002.513	-0.21
1002.938	-1.96
1003.364	4.29
1003.789	1.69
1004.215	2.94
1004.64	2.54
1005.066	4.69
1005.491	3.29
1005.916	5.09
1006.342	1.14
1006.767	5.99
1007.192	3.84
1007.617	1.59
1008.042	5.29
1008.468	4.74
1008.893	3.14
1009.318	9.54
1009.743	10.54
1010.168	16.89
1010.593	17.84
1011.018	12.89
1011.443	6.19
1011.868	9.94
1012.293	5.49
1012.718	0.64
1013.143	-0.66
1013.567	3.04
1013.992	1.89
1014.417	0.29
1014.842	-0.86
1015.267	-1.11
1015.691	-0.06
1016.116	2.24
1016.541	4.29
1016.965	-2.41
1017.39	4.69
1017.814	-1.56
1018.239	-1.36
1018.663	-3.96
1019.088	3.14
1019.512	6.09
1019.937	-2.61
1020.361	2.69
1020.785	-0.11
1021.21	0.24
1021.634	5.29
1022.058	3.74
1022.483	-2.81
1022.907	-1.01
1023.331	-3.06
1023.755	-1.41
1024.179	2.94
1024.604	-1.31
1025.028	2.04
1025.452	3.89
1025.876	3.79
1026.3	0.54
1026.724	-5.06
1027.148	4.39
1027.572	1.94
1027.996	7.19
1028.42	0.39
1028.843	4.39
1029.267	0.74
1029.691	5.09
1030.115	-1.41
1030.539	2.69
1030.962	0.09
1031.386	2.49
1031.81	1.34
1032.233	-5.61
1032.657	-4.76
1033.08	3.49
1033.504	4.54
1033.927	-1.81
1034.351	-1.26
1034.774	-0.76
1035.198	-0.06
1035.621	2.94
1036.045	-1.21
1036.468	4.29
1036.891	3.79
1037.315	2.04
1037.738	1.79
1038.161	3.24
1038.584	-0.71
1039.008	-1.21
1039.431	-2.16
1039.854	-6.66
1040.277	3.39
1040.7	-2.46
1041.123	1.39
1041.546	-0.01
1041.969	-0.21
1042.392	1.99
1042.815	-4.66
1043.238	3.09
1043.661	-1.71
1044.084	-2.66
1044.507	-0.61
1044.93	-1.71
1045.352	0.29
1045.775	7.19
1046.198	8.84
1046.621	2.94
1047.043	0.89
1047.466	-0.91
1047.889	-0.51
1048.311	3.74
1048.734	-3.71
1049.156	-1.66
1049.579	-0.61
1050.001	-1.51
1050.424	0.49
1050.846	-2.51
1051.269	-4.26
1051.691	0.94
1052.113	4.09
1052.536	-0.66
1052.958	-4.01
1053.38	-0.26
1053.802	0.64
1054.225	2.89
1054.647	2.74
1055.069	-1.96
1055.491	-0.36
1055.913	-1.51
1056.335	-7.51
1056.757	-5.11
1057.179	-0.91
1057.601	-0.76
1058.023	-3.46
1058.445	-0.16
1058.867	3.24
1059.289	-1.01
1059.711	0.44
1060.133	1.54
1060.555	-1.41
1060.976	4.04
1061.398	6.24
1061.82	3.69
1062.241	-2.31
1062.663	-1.41
1063.085	-5.31
1063.506	-5.21
1063.928	-2.46
1064.35	-1.06
1064.771	-2.66
1065.193	-2.66
1065.614	-1.11
1066.035	4.24
1066.457	0.54
1066.878	1.74
1067.3	2.04
1067.721	0.34
1068.142	2.69
1068.564	1.29
1068.985	1.44
1069.406	-6.16
1069.827	-1.51
1070.248	-1.16
1070.67	-1.11
1071.091	-7.01
1071.512	-3.66
1071.933	-1.81
1072.354	-7.76
1072.775	-4.51
1073.196	3.49
1073.617	-6.01
1074.038	0.99
1074.459	-4.11
1074.88	0.54
1075.3	0.09
1075.721	0.84
1076.142	-1.46
1076.563	-2.01
1076.983	5.24
1077.404	-3.41
1077.825	4.84
1078.246	-1.21
1078.666	-2.41
1079.087	1.14
1079.507	0.04
1079.928	0.29
1080.348	-1.06
1080.769	2.84
1081.189	0.84
1081.61	-4.21
1082.03	4.29
1082.451	2.44
1082.871	-5.56
1083.291	0.09
1083.711	-0.56
1084.132	-1.56
1084.552	-3.56
1084.972	-6.06
1085.392	-6.81
1085.813	2.69
1086.233	-0.56
1086.653	0.39
1087.073	-4.26
1087.493	-2.31
1087.913	-2.51
1088.333	-0.81
1088.753	0.69
1089.173	3.19
1089.593	-1.51
1090.013	0.44
1090.433	-5.11
1090.852	0.94
1091.272	-5.41
1091.692	-0.46
1092.112	-0.31
1092.531	-0.61
1092.951	2.74
1093.371	-5.46
1093.79	0.09
1094.21	-4.06
1094.63	-0.81
1095.049	-2.71
1095.469	-7.41
1095.888	0.39
1096.308	0.29
1096.727	-0.11
1097.146	-2.46
1097.566	-2.16
1097.985	-5.06
1098.405	-0.81
1098.824	-0.86
1099.243	-3.36
1099.662	-2.71
1100.082	0.49
1100.501	1.69
1100.92	6.54
1101.339	4.29
1101.758	3.54
