Data from MSPlasma+Separation6_Subt14_10-13-01-086.txt Node
Date: Fri Jul 21 10:13:01 EDT 2017
User: Ender
Spectrometer: HR+D1039
Trigger mode: 0
Integration Time (sec): 6.430000E-3
Scans to average: 20
Electric dark correction enabled: true
Nonlinearity correction enabled: false
Boxcar width: 0
XAxis mode: Wavelengths
Number of Pixels in Spectrum: 2048
>>>>>Begin Spectral Data<<<<<
187.836	0.56
188.309	0.56
188.782	0.56
189.255	-0.64
189.728	0.66
190.201	-0.59
190.674	-0.69
191.147	-1.54
191.619	-0.69
192.092	-3.39
192.565	-0.19
193.038	2.71
193.511	1.51
193.984	1.26
194.456	1.46
194.929	1.51
195.402	-1.44
195.874	-0.54
196.347	-1.24
196.82	0.16
197.292	-5.44
197.765	0.61
198.237	-5.79
198.71	-4.64
199.182	3.06
199.655	1.36
200.127	-0.04
200.6	-0.64
201.072	1.81
201.544	-4.94
202.017	1.36
202.489	-1.94
202.961	1.36
203.433	-5.99
203.906	3.21
204.378	3.61
204.85	-0.89
205.322	-0.84
205.794	0.66
206.266	-1.19
206.739	5.51
207.211	-1.39
207.683	-5.04
208.155	1.96
208.627	3.06
209.099	2.71
209.57	3.51
210.042	3.11
210.514	0.26
210.986	1.26
211.458	-3.04
211.93	4.46
212.402	-1.09
212.873	-3.69
213.345	-6.69
213.817	2.91
214.288	-1.99
214.76	3.41
215.232	-0.64
215.703	-1.14
216.175	3.16
216.646	3.31
217.118	0.71
217.589	-3.64
218.061	2.96
218.532	-1.04
219.004	0.06
219.475	2.31
219.946	3.96
220.418	7.06
220.889	5.76
221.36	2.71
221.832	4.31
222.303	5.06
222.774	2.11
223.245	-0.54
223.717	2.71
224.188	-1.14
224.659	2.66
225.13	-1.39
225.601	1.26
226.072	2.21
226.543	6.21
227.014	-0.54
227.485	9.06
227.956	2.01
228.427	9.96
228.898	10.16
229.369	2.21
229.839	7.06
230.31	7.21
230.781	8.16
231.252	4.51
231.722	5.16
232.193	3.56
232.664	5.36
233.135	3.71
233.605	11.36
234.076	12.11
234.546	6.81
235.017	6.46
235.487	7.76
235.958	4.81
236.428	10.36
236.899	4.06
237.369	12.71
237.84	11.81
238.31	17.26
238.78	8.51
239.251	7.26
239.721	4.21
240.191	7.56
240.662	11.26
241.132	6.11
241.602	13.76
242.072	9.81
242.542	7.41
243.013	10.11
243.483	13.56
243.953	14.56
244.423	12.81
244.893	11.66
245.363	12.76
245.833	13.66
246.303	12.06
246.773	17.36
247.243	10.66
247.712	14.66
248.182	16.46
248.652	15.31
249.122	18.66
249.592	16.16
250.061	16.51
250.531	13.61
251.001	19.71
251.471	19.01
251.94	22.41
252.41	18.56
252.879	15.11
253.349	25.31
253.818	18.66
254.288	26.41
254.757	19.91
255.227	21.31
255.696	23.86
256.166	26.11
256.635	21.41
257.105	20.56
257.574	24.66
258.043	23.81
258.513	27.21
258.982	22.86
259.451	26.16
259.92	18.76
260.389	27.96
260.859	26.86
261.328	29.11
261.797	28.06
262.266	25.31
262.735	30.61
263.204	23.71
263.673	24.66
264.142	21.41
264.611	26.76
265.08	30.06
265.549	25.86
266.018	30.81
266.487	28.31
266.955	28.41
267.424	33.06
267.893	33.31
268.362	31.26
268.83	31.76
269.299	34.91
269.768	33.36
270.236	35.31
270.705	37.31
271.174	36.46
271.642	38.51
272.111	37.11
272.579	32.96
273.048	34.01
273.516	41.36
273.985	33.76
274.453	39.26
274.922	34.71
275.39	36.61
275.858	38.96
276.327	35.26
276.795	38.26
277.263	38.71
277.731	40.56
278.2	47.71
278.668	39.76
279.136	40.91
279.604	43.31
280.072	41.26
280.54	45.61
281.008	49.86
281.477	39.86
281.945	40.01
282.413	42.81
282.881	43.86
283.348	45.46
283.816	46.71
284.284	45.76
284.752	44.81
285.22	48.66
285.688	48.46
286.156	49.66
286.623	49.11
287.091	50.41
287.559	49.06
288.026	51.01
288.494	51.41
288.962	54.21
289.429	51.41
289.897	51.96
290.364	51.46
290.832	52.01
291.3	53.31
291.767	52.96
292.234	56.06
292.702	58.26
293.169	63.56
293.637	65.81
294.104	61.41
294.571	59.56
295.039	61.41
295.506	61.86
295.973	61.71
296.44	59.11
296.908	67.66
297.375	62.81
297.842	62.96
298.309	61.11
298.776	64.96
299.243	65.26
299.71	65.06
300.177	65.61
300.644	66.11
301.111	62.21
301.578	64.76
302.045	65.81
302.512	65.01
302.979	72.56
303.446	68.96
303.913	77.41
304.379	76.36
304.846	77.86
305.313	82.11
305.78	81.36
306.246	78.71
306.713	78.51
307.18	83.31
307.646	83.26
308.113	84.26
308.579	88.11
309.046	85.76
309.512	85.26
309.979	91.76
310.445	84.51
310.912	91.76
311.378	97.36
311.845	93.21
312.311	89.36
312.777	91.01
313.244	98.51
313.71	94.46
314.176	98.21
314.642	96.96
315.109	98.61
315.575	96.36
316.041	94.01
316.507	96.76
316.973	100.01
317.439	105.36
317.905	109.36
318.371	101.01
318.837	98.86
319.303	99.06
319.769	101.81
320.235	110.06
320.701	111.61
321.167	107.31
321.633	109.11
322.099	101.81
322.564	108.36
323.03	112.96
323.496	108.36
323.962	111.36
324.427	114.66
324.893	114.21
325.359	122.31
325.824	123.21
326.29	124.51
326.755	114.91
327.221	116.36
327.686	127.06
328.152	129.86
328.617	127.36
329.083	126.71
329.548	126.06
330.014	129.96
330.479	136.81
330.944	136.96
331.41	135.51
331.875	131.26
332.34	133.01
332.805	136.71
333.271	135.91
333.736	134.76
334.201	138.01
334.666	146.66
335.131	145.16
335.596	143.41
336.061	142.31
336.526	144.01
336.991	136.11
337.456	137.76
337.921	136.36
338.386	137.76
338.851	137.56
339.316	143.66
339.781	139.81
340.246	140.61
340.711	144.61
341.175	146.81
341.64	148.71
342.105	153.51
342.569	160.66
343.034	150.66
343.499	159.66
343.963	162.56
344.428	162.36
344.893	161.81
345.357	167.76
345.822	164.26
346.286	170.26
346.751	170.76
347.215	176.36
347.679	180.61
348.144	189.86
348.608	191.41
349.073	193.11
349.537	195.31
350.001	195.01
350.465	194.36
350.93	191.71
351.394	202.26
351.858	202.86
352.322	206.86
352.786	204.31
353.25	206.41
353.715	209.31
354.179	222.56
354.643	219.96
355.107	223.46
355.571	222.66
356.035	219.96
356.498	220.31
356.962	219.71
357.426	216.21
357.89	210.96
358.354	217.81
358.818	211.81
359.281	212.76
359.745	217.71
360.209	213.31
360.673	217.76
361.136	213.96
361.6	216.96
362.064	221.01
362.527	227.91
362.991	225.56
363.454	226.86
363.918	228.66
364.381	230.41
364.845	229.11
365.308	229.76
365.772	232.11
366.235	236.46
366.698	228.81
367.162	226.71
367.625	234.11
368.088	239.51
368.552	230.26
369.015	233.51
369.478	239.36
369.941	238.36
370.404	245.26
370.867	242.16
371.331	240.56
371.794	246.46
372.257	247.71
372.72	254.71
373.183	258.16
373.646	256.96
374.109	249.56
374.572	253.26
375.035	258.11
375.497	258.01
375.96	259.96
376.423	270.51
376.886	268.56
377.349	275.11
377.811	273.26
378.274	278.66
378.737	266.71
379.199	273.51
379.662	275.96
380.125	282.71
380.587	282.96
381.05	285.66
381.512	291.26
381.975	291.66
382.437	304.41
382.9	299.06
383.362	302.21
383.825	303.76
384.287	310.16
384.75	312.76
385.212	311.51
385.674	314.21
386.136	320.71
386.599	314.26
387.061	315.66
387.523	316.51
387.985	324.01
388.447	324.71
388.91	321.31
389.372	321.01
389.834	325.51
390.296	317.01
390.758	320.91
391.22	318.86
391.682	321.66
392.144	324.16
392.606	324.26
393.068	337.96
393.529	356.11
393.991	364.41
394.453	340.61
394.915	326.01
395.377	323.21
395.838	320.86
396.3	331.11
396.762	343.31
397.224	332.16
397.685	330.01
398.147	337.26
398.608	342.11
399.07	349.36
399.531	348.76
399.993	357.81
400.454	358.46
400.916	356.16
401.377	366.71
401.839	371.71
402.3	365.11
402.762	383.16
403.223	418.86
403.684	418.16
404.145	389.16
404.607	378.41
405.068	371.76
405.529	376.31
405.99	380.96
406.451	386.11
406.913	374.26
407.374	382.76
407.835	381.31
408.296	395.36
408.757	390.36
409.218	402.16
409.679	405.41
410.14	417.66
410.601	432.61
411.062	429.36
411.522	435.86
411.983	440.61
412.444	442.76
412.905	466.61
413.366	483.56
413.826	503.66
414.287	578.46
414.748	713.66
415.208	727.96
415.669	595.76
416.13	534.06
416.59	523.56
417.051	552.06
417.511	575.16
417.972	627.26
418.432	684.66
418.893	768.56
419.353	722.96
419.814	539.36
420.274	478.91
420.734	466.61
421.195	484.51
421.655	477.96
422.115	485.61
422.576	488.91
423.036	488.81
423.496	504.51
423.956	526.41
424.416	564.66
424.876	638.11
425.336	640.16
425.797	616.91
426.257	593.71
426.717	544.21
427.177	493.26
427.637	489.66
428.097	498.31
428.556	515.31
429.016	554.06
429.476	542.46
429.936	512.31
430.396	503.06
430.856	513.01
431.315	515.21
431.775	557.86
432.235	611.01
432.694	624.01
433.154	566.46
433.614	558.41
434.073	540.21
434.533	497.01
434.993	490.01
435.452	500.91
435.912	502.11
436.371	514.41
436.83	512.66
437.29	509.11
437.749	499.01
438.209	503.31
438.668	515.86
439.127	526.91
439.587	523.81
440.046	512.76
440.505	537.81
440.964	537.51
441.424	552.76
441.883	570.76
442.342	534.96
442.801	514.31
443.26	532.56
443.719	524.56
444.178	522.71
444.637	536.81
445.096	534.36
445.555	545.06
446.014	544.66
446.473	540.81
446.932	537.91
447.391	554.61
447.849	557.76
448.308	552.56
448.767	556.26
449.226	559.91
449.685	569.61
450.143	605.31
450.602	600.36
451.061	574.06
451.519	574.06
451.978	559.31
452.436	555.41
452.895	571.21
453.353	567.11
453.812	551.36
454.27	560.31
454.729	558.66
455.187	570.11
455.646	560.41
456.104	561.71
456.562	571.76
457.021	579.46
457.479	561.61
457.937	575.31
458.395	597.31
458.854	582.81
459.312	574.16
459.77	578.71
460.228	592.16
460.686	592.06
461.144	598.61
461.602	586.66
462.06	590.21
462.518	606.46
462.976	607.21
463.434	608.96
463.892	619.16
464.35	626.76
464.808	639.61
465.266	646.36
465.724	652.51
466.181	650.46
466.639	648.21
467.097	674.71
467.555	696.21
468.012	691.56
468.47	695.06
468.928	722.81
469.385	743.21
469.843	743.06
470.3	732.41
470.758	753.06
471.215	758.21
471.673	770.06
472.13	792.26
472.588	799.41
473.045	803.11
473.503	814.61
473.96	845.51
474.417	846.56
474.875	877.96
475.332	894.86
475.789	901.01
476.246	919.66
476.704	943.11
477.161	940.26
477.618	939.06
478.075	967.11
478.532	991.06
478.989	1021.56
479.446	1068.01
479.903	1053.81
480.36	1080.71
480.817	1083.46
481.274	1087.81
481.731	1118.96
482.188	1142.21
482.645	1165.16
483.102	1177.06
483.558	1208.96
484.015	1238.16
484.472	1232.21
484.929	1240.61
485.385	1239.56
485.842	1244.71
486.299	1254.21
486.755	1241.96
487.212	1223.71
487.668	1191.56
488.125	1189.66
488.582	1173.26
489.038	1186.56
489.494	1203.06
489.951	1193.36
490.407	1199.21
490.864	1206.56
491.32	1196.11
491.776	1213.76
492.233	1227.51
492.689	1226.26
493.145	1208.46
493.602	1203.71
494.058	1218.46
494.514	1239.81
494.97	1233.06
495.426	1257.51
495.882	1263.01
496.338	1268.31
496.794	1280.51
497.251	1276.06
497.707	1296.06
498.163	1298.86
498.618	1296.36
499.074	1298.01
499.53	1313.16
499.986	1327.81
500.442	1330.96
500.898	1303.01
501.354	1318.56
501.809	1327.86
502.265	1330.76
502.721	1338.86
503.177	1344.91
503.632	1333.31
504.088	1351.66
504.543	1361.51
504.999	1386.61
505.455	1376.21
505.91	1364.66
506.366	1360.76
506.821	1366.86
507.277	1357.26
507.732	1366.21
508.187	1368.86
508.643	1384.06
509.098	1385.66
509.553	1394.56
510.009	1416.26
510.464	1443.71
510.919	1450.91
511.375	1472.91
511.83	1489.46
512.285	1504.01
512.74	1540.26
513.195	1570.56
513.65	1584.76
514.105	1614.36
514.56	1620.51
515.015	1655.81
515.47	1664.51
515.925	1638.46
516.38	1640.36
516.835	1647.11
517.29	1641.51
517.745	1631.51
518.2	1616.66
518.655	1568.91
519.109	1553.86
519.564	1530.16
520.019	1520.56
520.474	1502.56
520.928	1494.31
521.383	1480.86
521.838	1481.46
522.292	1463.56
522.747	1452.31
523.201	1452.81
523.656	1425.11
524.11	1430.46
524.565	1421.76
525.019	1429.61
525.474	1423.31
525.928	1410.41
526.382	1417.01
526.837	1408.81
527.291	1414.16
527.745	1414.51
528.2	1408.06
528.654	1387.41
529.108	1383.91
529.562	1394.71
530.016	1393.01
530.47	1393.46
530.925	1388.51
531.379	1380.51
531.833	1410.06
532.287	1395.86
532.741	1390.71
533.195	1390.86
533.649	1389.86
534.103	1409.96
534.556	1390.41
535.01	1407.16
535.464	1395.21
535.918	1400.11
536.372	1406.21
536.826	1399.26
537.279	1388.21
537.733	1388.81
538.187	1403.86
538.64	1398.26
539.094	1404.51
539.548	1423.71
540.001	1420.21
540.455	1426.26
540.908	1444.56
541.362	1448.66
541.815	1466.11
542.269	1489.71
542.722	1492.96
543.175	1506.96
543.629	1510.41
544.082	1532.56
544.536	1553.66
544.989	1556.66
545.442	1556.86
545.895	1562.71
546.349	1567.81
546.802	1568.41
547.255	1571.86
547.708	1584.26
548.161	1587.06
548.614	1593.71
549.067	1611.71
549.52	1589.96
549.973	1570.51
550.426	1559.66
550.879	1556.81
551.332	1538.01
551.785	1566.56
552.238	1589.61
552.691	1577.81
553.144	1611.46
553.596	1635.01
554.049	1667.21
554.502	1695.11
554.955	1732.06
555.407	1752.66
555.86	1742.86
556.313	1704.41
556.765	1689.11
557.218	1668.31
557.67	1659.61
558.123	1639.76
558.576	1626.51
559.028	1630.46
559.48	1660.66
559.933	1649.96
560.385	1585.16
560.838	1528.11
561.29	1480.01
561.742	1481.71
562.195	1441.06
562.647	1433.76
563.099	1420.71
563.551	1412.16
564.004	1437.96
564.456	1419.41
564.908	1372.91
565.36	1353.61
565.812	1323.61
566.264	1307.76
566.716	1289.81
567.168	1272.31
567.62	1269.76
568.072	1262.71
568.524	1247.76
568.976	1248.61
569.428	1238.11
569.88	1238.06
570.332	1242.86
570.784	1245.21
571.235	1230.66
571.687	1261.16
572.139	1257.06
572.59	1261.66
573.042	1275.66
573.494	1271.81
573.945	1248.11
574.397	1220.31
574.849	1218.26
575.3	1224.01
575.752	1204.86
576.203	1199.71
576.655	1200.31
577.106	1179.26
577.557	1172.41
578.009	1166.21
578.46	1169.06
578.912	1159.01
579.363	1167.06
579.814	1167.61
580.265	1171.01
580.717	1179.01
581.168	1163.66
581.619	1168.31
582.07	1183.56
582.521	1177.86
582.972	1173.81
583.423	1174.01
583.875	1178.91
584.326	1187.61
584.777	1214.56
585.227	1229.76
585.678	1235.86
586.129	1257.61
586.58	1265.76
587.031	1305.66
587.482	1335.51
587.933	1352.86
588.384	1352.31
588.834	1343.51
589.285	1335.46
589.736	1334.26
590.186	1331.01
590.637	1323.36
591.088	1274.36
591.538	1248.61
591.989	1240.76
592.439	1214.91
592.89	1210.36
593.34	1214.71
593.791	1196.51
594.241	1183.76
594.692	1179.36
595.142	1189.11
595.593	1188.21
596.043	1183.01
596.493	1199.06
596.943	1197.91
597.394	1228.46
597.844	1237.86
598.294	1272.01
598.744	1323.31
599.195	1391.96
599.645	1474.36
600.095	1563.26
600.545	1634.06
600.995	1719.11
601.445	1795.46
601.895	1895.06
602.345	1961.31
602.795	1942.01
603.245	1841.86
603.695	1720.26
604.145	1620.21
604.594	1529.31
605.044	1450.41
605.494	1353.01
605.944	1275.56
606.393	1238.26
606.843	1217.41
607.293	1212.11
607.743	1212.96
608.192	1222.61
608.642	1215.86
609.091	1219.71
609.541	1227.11
609.99	1214.41
610.44	1186.86
610.889	1173.41
611.339	1155.66
611.788	1137.46
612.238	1147.36
612.687	1144.86
613.136	1151.86
613.586	1161.66
614.035	1168.46
614.484	1171.31
614.933	1177.91
615.383	1151.71
615.832	1125.11
616.281	1110.46
616.73	1085.51
617.179	1062.96
617.628	1039.06
618.077	1019.01
618.526	1008.91
618.975	1008.86
619.424	980.51
619.873	994.31
620.322	978.46
620.771	975.41
621.22	952.26
621.669	932.81
622.118	917.71
622.567	914.21
623.015	900.46
623.464	889.66
623.913	879.21
624.361	884.76
624.81	876.06
625.259	879.91
625.707	875.06
626.156	890.41
626.604	895.36
627.053	900.81
627.501	893.86
627.95	912.51
628.398	922.81
628.847	910.06
629.295	906.36
629.744	899.76
630.192	882.71
630.64	870.26
631.089	842.56
631.537	820.71
631.985	809.46
632.433	812.01
632.881	796.26
633.33	802.96
633.778	798.71
634.226	808.16
634.674	806.56
635.122	823.86
635.57	841.11
636.018	850.36
636.466	847.76
636.914	844.81
637.362	864.06
637.81	872.46
638.258	894.71
638.705	901.66
639.153	929.21
639.601	947.51
640.049	965.01
640.497	997.21
640.944	1020.36
641.392	965.46
641.84	894.11
642.287	833.61
642.735	801.36
643.182	782.61
643.63	786.41
644.078	765.61
644.525	766.51
644.973	778.26
645.42	777.36
645.867	786.96
646.315	785.11
646.762	784.96
647.21	785.01
647.657	795.46
648.104	784.01
648.551	749.26
648.999	746.06
649.446	743.01
649.893	738.61
650.34	753.51
650.787	768.41
651.234	798.41
651.682	856.16
652.129	938.91
652.576	1075.31
653.023	1226.76
653.47	1329.86
653.917	1388.71
654.363	1421.16
654.81	1500.56
655.257	1537.96
655.704	1221.46
656.151	948.16
656.598	822.31
657.044	765.41
657.491	748.66
657.938	727.66
658.385	721.06
658.831	723.21
659.278	710.66
659.724	701.06
660.171	696.06
660.618	679.91
661.064	661.76
661.511	666.56
661.957	670.41
662.404	674.66
662.85	687.61
663.296	691.46
663.743	691.96
664.189	698.06
664.635	701.66
665.082	692.56
665.528	690.51
665.974	667.71
666.42	662.56
666.867	668.11
667.313	630.96
667.759	624.91
668.205	630.16
668.651	634.66
669.097	628.41
669.543	638.91
669.989	655.86
670.435	647.86
670.881	655.46
671.327	689.56
671.773	735.26
672.219	806.46
672.665	867.16
673.11	911.06
673.556	929.56
674.002	968.36
674.448	983.71
674.893	826.66
675.339	703.61
675.785	651.56
676.23	619.16
676.676	593.76
677.122	573.01
677.567	560.61
678.013	541.06
678.458	534.11
678.904	533.66
679.349	525.91
679.794	529.01
680.24	531.41
680.685	516.21
681.131	527.81
681.576	529.51
682.021	526.21
682.466	538.26
682.912	536.61
683.357	569.91
683.802	624.21
684.247	684.26
684.692	735.66
685.137	776.46
685.583	796.21
686.028	854.86
686.473	801.21
686.918	680.91
687.363	621.96
687.807	590.01
688.252	552.81
688.697	533.36
689.142	515.76
689.587	514.61
690.032	525.81
690.477	550.21
690.921	575.01
691.366	609.71
691.811	637.96
692.255	690.91
692.7	838.31
693.145	1218.06
693.589	1871.61
694.034	2282.51
694.478	2494.11
694.923	2326.81
695.367	3412.71
695.812	2017.56
696.256	816.26
696.701	575.26
697.145	532.61
697.59	514.51
698.034	498.96
698.478	497.61
698.922	499.06
699.367	508.71
699.811	538.01
700.255	594.06
700.699	655.56
701.143	712.81
701.588	757.36
702.032	801.86
702.476	813.06
702.92	868.56
703.364	1118.81
703.808	1704.81
704.252	2177.36
704.696	2369.86
705.14	2281.86
705.584	3226.56
706.027	1740.81
706.471	840.61
706.915	615.21
707.359	534.11
707.803	500.26
708.246	476.66
708.69	482.91
709.134	476.06
709.577	471.76
710.021	478.36
710.465	473.86
710.908	468.96
711.352	486.51
711.795	542.56
712.239	590.21
712.682	611.96
713.126	596.21
713.569	681.16
714.012	545.41
714.456	461.76
714.899	440.21
715.342	422.01
715.786	404.46
716.229	389.41
716.672	379.41
717.115	383.86
717.558	392.66
718.002	398.26
718.445	420.11
718.888	441.16
719.331	454.76
719.774	472.06
720.217	460.06
720.66	432.06
721.103	400.21
721.546	379.86
721.989	370.61
722.432	369.66
722.874	365.01
723.317	362.31
723.76	397.46
724.203	495.96
724.645	677.46
725.088	815.96
725.531	806.61
725.974	908.66
726.416	798.96
726.859	472.16
727.301	381.26
727.744	364.06
728.187	360.86
728.629	374.61
729.071	399.91
729.514	413.41
729.956	435.56
730.399	437.71
730.841	441.76
731.283	427.41
731.726	415.91
732.168	421.46
732.61	446.26
733.053	474.76
733.495	530.61
733.937	600.96
734.379	713.41
734.821	902.41
735.263	1418.11
735.705	2576.86
736.148	3863.16
736.59	4000.06
737.032	4485.06
737.474	3664.51
737.916	1350.11
738.357	684.36
738.799	519.36
739.241	480.76
739.683	478.26
740.125	487.91
740.567	498.76
741.008	534.46
741.45	546.51
741.892	572.66
742.334	586.76
742.775	592.86
743.217	561.46
743.658	462.76
744.1	469.01
744.542	535.86
744.983	565.51
745.425	597.66
745.866	581.86
746.307	488.96
746.749	519.91
747.19	761.11
747.632	1488.16
748.073	2832.36
748.514	4002.01
748.956	5479.41
749.397	6477.46
749.838	4427.91
750.279	4350.36
750.72	2184.61
751.162	889.06
751.603	502.26
752.044	400.56
752.485	350.71
752.926	332.51
753.367	316.61
753.808	304.96
754.249	295.21
754.69	292.76
755.131	290.36
755.572	288.36
756.013	294.96
756.453	288.66
756.894	296.26
757.335	296.76
757.776	302.41
758.216	311.31
758.657	329.01
759.098	361.71
759.538	445.61
759.979	649.06
760.42	1302.46
760.86	3349.16
761.301	7182.91
761.741	8783.11
762.182	10575.86
762.622	6682.41
763.063	2306.36
763.503	916.51
763.943	529.31
764.384	413.86
764.824	356.01
765.264	321.56
765.705	308.91
766.145	296.31
766.585	277.36
767.025	270.86
767.465	271.41
767.906	274.91
768.346	301.56
768.786	342.56
769.226	504.16
769.666	1036.96
770.106	2359.26
770.546	3489.51
770.986	4130.16
771.426	3105.71
771.866	1247.26
772.306	543.01
772.745	327.01
773.185	276.91
773.625	260.31
774.065	273.71
774.505	378.01
774.944	662.06
775.384	962.56
775.824	1121.81
776.263	947.46
776.703	494.01
777.142	289.91
777.582	220.96
778.021	199.91
778.461	192.06
778.9	194.26
779.34	185.31
779.779	186.41
780.219	176.96
780.658	178.16
781.097	174.11
781.537	165.96
781.976	163.76
782.415	162.76
782.855	167.86
783.294	165.16
783.733	168.16
784.172	163.11
784.611	159.41
785.05	173.11
785.489	181.11
785.928	180.16
786.367	188.96
786.806	202.61
787.245	213.96
787.684	226.16
788.123	218.46
788.562	209.66
789.001	202.66
789.44	196.86
789.879	192.76
790.317	197.76
790.756	212.56
791.195	239.21
791.634	329.21
792.072	589.81
792.511	1482.86
792.95	2845.01
793.388	3613.96
793.827	2322.61
794.265	1025.51
794.704	482.46
795.142	285.61
795.581	238.71
796.019	215.96
796.458	210.71
796.896	216.51
797.334	255.86
797.773	340.16
798.211	660.36
798.649	1410.41
799.087	2415.21
799.526	3427.21
799.964	3633.96
800.402	2538.36
800.84	1103.96
801.278	520.86
801.716	316.01
802.154	246.11
802.592	234.76
803.03	232.81
803.468	245.11
803.906	243.06
804.344	235.61
804.782	233.91
805.22	227.11
805.658	238.76
806.096	256.31
806.533	288.96
806.971	374.06
807.409	540.46
807.847	1075.91
808.284	2771.46
808.722	5097.51
809.16	7147.01
809.597	9585.96
810.035	12337.26
810.472	8098.41
810.91	3294.46
811.347	1453.96
811.785	677.51
812.222	428.51
812.66	321.36
813.097	273.96
813.535	243.76
813.972	216.91
814.409	196.26
814.846	188.81
815.284	177.56
815.721	185.16
816.158	193.76
816.595	256.21
817.032	328.31
817.47	299.06
817.907	215.76
818.344	185.71
818.781	186.66
819.218	222.36
819.655	341.36
820.092	448.71
820.529	411.11
820.966	320.91
821.403	220.51
821.839	190.56
822.276	208.96
822.713	251.56
823.15	240.21
823.587	246.06
824.023	446.81
824.46	1166.71
824.897	2109.76
825.333	1684.71
825.77	744.71
826.206	382.61
826.643	216.86
827.08	168.26
827.516	142.16
827.953	128.21
828.389	126.51
828.825	118.01
829.262	110.91
829.698	109.61
830.135	103.36
830.571	95.46
831.007	103.16
831.443	106.01
831.88	107.51
832.316	110.41
832.752	104.46
833.188	109.86
833.624	111.11
834.06	115.66
834.497	113.56
834.933	111.21
835.369	125.31
835.805	133.16
836.241	141.06
836.677	155.31
837.112	176.86
837.548	227.31
837.984	339.56
838.42	724.26
838.856	2047.16
839.292	4221.76
839.727	3153.21
840.163	2026.86
840.599	3066.16
841.034	4952.56
841.47	2478.41
841.906	1155.56
842.341	593.41
842.777	421.16
843.212	430.11
843.648	271.61
844.083	183.01
844.519	142.36
844.954	115.96
845.39	102.16
845.825	100.66
846.261	98.21
846.696	92.76
847.131	91.71
847.566	93.36
848.002	92.46
848.437	101.51
848.872	103.76
849.307	137.16
849.742	249.56
850.177	668.01
850.613	1494.56
851.048	1088.56
851.483	475.81
851.918	256.26
852.353	137.11
852.788	96.66
853.223	91.66
853.657	78.96
854.092	80.06
854.527	77.76
854.962	82.96
855.397	92.01
855.832	76.26
856.266	67.11
856.701	64.56
857.136	67.61
857.57	86.31
858.005	104.71
858.44	86.61
858.874	83.06
859.309	85.91
859.743	84.71
860.178	81.01
860.612	88.91
861.047	116.51
861.481	172.36
861.915	110.01
862.35	87.61
862.784	66.91
863.218	71.81
863.653	75.16
864.087	84.51
864.521	110.36
864.955	196.11
865.39	352.61
865.824	251.46
866.258	306.61
866.692	466.81
867.126	344.41
867.56	180.66
867.994	111.71
868.428	96.06
868.862	117.81
869.296	108.31
869.73	132.41
870.164	115.41
870.598	106.06
871.031	75.56
871.465	69.91
871.899	56.76
872.333	46.61
872.766	47.81
873.2	52.36
873.634	48.96
874.067	56.46
874.501	51.91
874.935	52.81
875.368	57.76
875.802	47.56
876.235	42.21
876.669	43.66
877.102	34.96
877.535	39.41
877.969	39.71
878.402	41.06
878.836	42.81
879.269	35.91
879.702	33.81
880.135	40.96
880.569	43.61
881.002	33.36
881.435	39.71
881.868	37.51
882.301	35.41
882.734	36.31
883.167	41.16
883.601	35.36
884.034	38.06
884.467	29.31
884.899	32.81
885.332	25.31
885.765	29.16
886.198	30.71
886.631	29.66
887.064	29.91
887.497	33.26
887.929	35.81
888.362	31.36
888.795	30.56
889.228	32.21
889.66	31.66
890.093	31.46
890.526	30.91
890.958	29.01
891.391	35.16
891.823	29.51
892.256	29.36
892.688	32.16
893.121	25.21
893.553	33.56
893.985	27.01
894.418	27.36
894.85	28.06
895.282	30.51
895.715	21.31
896.147	19.71
896.579	22.86
897.011	32.66
897.444	28.41
897.876	19.21
898.308	23.96
898.74	24.96
899.172	31.66
899.604	31.86
900.036	30.96
900.468	23.61
900.9	30.61
901.332	37.01
901.764	40.21
902.196	37.01
902.628	39.46
903.06	54.21
903.491	60.86
903.923	48.16
904.355	47.86
904.787	44.86
905.218	39.56
905.65	38.86
906.082	34.81
906.513	32.91
906.945	34.91
907.376	32.51
907.808	31.76
908.239	39.76
908.671	42.21
909.102	44.71
909.534	68.91
909.965	130.21
910.397	333.66
910.828	1017.01
911.259	615.36
911.691	319.01
912.122	185.46
912.553	92.46
912.984	50.46
913.415	43.66
913.847	34.36
914.278	34.91
914.709	28.46
915.14	31.26
915.571	32.91
916.002	32.56
916.433	28.21
916.864	28.51
917.295	33.71
917.726	36.51
918.157	45.56
918.587	43.11
919.018	43.41
919.449	36.61
919.88	41.36
920.311	70.91
920.741	207.61
921.172	382.46
921.603	182.16
922.033	111.36
922.464	72.91
922.895	45.76
923.325	31.46
923.756	24.31
924.186	35.11
924.617	48.36
925.047	75.31
925.478	60.11
925.908	44.51
926.338	34.96
926.769	27.76
927.199	29.61
927.629	25.06
928.06	31.66
928.49	27.06
928.92	25.21
929.35	27.11
929.78	17.36
930.21	17.91
930.641	9.91
931.071	17.11
931.501	14.16
931.931	11.36
932.361	16.66
932.791	18.96
933.221	19.96
933.651	27.41
934.08	44.76
934.51	27.06
934.94	17.56
935.37	14.81
935.8	13.81
936.229	12.41
936.659	15.71
937.089	23.61
937.519	37.31
937.948	50.41
938.378	31.26
938.807	17.46
939.237	12.71
939.666	15.26
940.096	8.76
940.525	4.21
940.955	8.91
941.384	5.86
941.814	4.91
942.243	11.61
942.672	6.21
943.102	5.46
943.531	6.06
943.96	7.06
944.39	7.36
944.819	10.51
945.248	8.06
945.677	7.41
946.106	11.06
946.535	11.06
946.964	8.51
947.393	6.06
947.822	1.76
948.251	8.56
948.68	4.91
949.109	5.01
949.538	4.01
949.967	5.16
950.396	5.96
950.825	8.61
951.254	5.31
951.682	-0.24
952.111	5.31
952.54	1.86
952.969	4.96
953.397	0.56
953.826	2.21
954.254	10.16
954.683	3.81
955.112	10.06
955.54	1.81
955.969	3.11
956.397	3.36
956.826	2.91
957.254	4.16
957.682	6.11
958.111	5.66
958.539	4.76
958.967	6.76
959.396	7.91
959.824	4.06
960.252	3.21
960.68	3.01
961.109	10.26
961.537	10.56
961.965	2.56
962.393	5.36
962.821	7.11
963.249	7.26
963.677	9.21
964.105	61.41
964.533	105.21
964.961	48.86
965.389	24.21
965.817	13.91
966.245	7.11
966.672	8.91
967.1	5.61
967.528	0.41
967.956	5.26
968.383	5.71
968.811	4.21
969.239	1.21
969.666	6.56
970.094	5.36
970.522	1.31
970.949	3.61
971.377	-0.94
971.804	1.46
972.232	2.76
972.659	1.41
973.087	4.41
973.514	0.81
973.941	2.06
974.369	6.11
974.796	-0.99
975.223	6.41
975.651	4.86
976.078	5.16
976.505	8.46
976.932	25.16
977.359	33.01
977.786	18.81
978.214	12.71
978.641	1.71
979.068	7.96
979.495	-1.29
979.922	2.51
980.349	5.46
980.776	3.46
981.202	5.26
981.629	6.86
982.056	8.01
982.483	1.31
982.91	8.01
983.337	0.46
983.763	4.81
984.19	6.31
984.617	4.51
985.043	0.71
985.47	5.66
985.897	2.76
986.323	4.31
986.75	-1.79
987.176	-0.69
987.603	7.51
988.029	1.51
988.456	5.46
988.882	1.16
989.308	-2.34
989.735	-0.49
990.161	0.61
990.587	-0.49
991.014	3.86
991.44	6.36
991.866	5.46
992.292	2.21
992.719	1.51
993.145	1.56
993.571	-1.14
993.997	7.96
994.423	4.86
994.849	1.31
995.275	2.61
995.701	4.26
996.127	-1.89
996.553	-3.19
996.979	-0.94
997.405	4.31
997.83	-3.99
998.256	4.11
998.682	2.26
999.108	2.81
999.534	0.26
999.959	-4.14
1000.385	1.11
1000.811	-1.09
1001.236	-2.99
1001.662	-0.69
1002.087	7.06
1002.513	3.06
1002.938	-3.04
1003.364	-1.49
1003.789	0.61
1004.215	-0.14
1004.64	2.56
1005.066	2.31
1005.491	3.56
1005.916	4.76
1006.342	5.51
1006.767	4.41
1007.192	6.56
1007.617	2.16
1008.042	0.76
1008.468	1.51
1008.893	6.41
1009.318	5.21
1009.743	10.91
1010.168	20.96
1010.593	16.01
1011.018	7.01
1011.443	3.86
1011.868	5.61
1012.293	5.91
1012.718	0.21
1013.143	-1.34
1013.567	4.36
1013.992	3.61
1014.417	4.76
1014.842	2.91
1015.267	1.41
1015.691	7.56
1016.116	4.11
1016.541	3.41
1016.965	5.41
1017.39	2.51
1017.814	1.51
1018.239	-2.39
1018.663	-2.04
1019.088	-0.94
1019.512	7.71
1019.937	-3.19
1020.361	1.16
1020.785	0.01
1021.21	-1.34
1021.634	1.91
1022.058	3.56
1022.483	-1.39
1022.907	-4.49
1023.331	0.81
1023.755	-1.89
1024.179	-0.49
1024.604	2.71
1025.028	-0.29
1025.452	0.86
1025.876	1.41
1026.3	0.81
1026.724	-1.79
1027.148	3.91
1027.572	-0.24
1027.996	4.11
1028.42	2.41
1028.843	-2.44
1029.267	-1.34
1029.691	6.56
1030.115	2.16
1030.539	3.01
1030.962	-1.44
1031.386	-0.79
1031.81	1.76
1032.233	0.06
1032.657	-5.29
1033.08	2.96
1033.504	-1.14
1033.927	-0.49
1034.351	-3.04
1034.774	-0.89
1035.198	-1.44
1035.621	0.31
1036.045	0.96
1036.468	3.26
1036.891	-0.84
1037.315	3.66
1037.738	1.41
1038.161	-0.04
1038.584	1.26
1039.008	2.86
1039.431	-0.84
1039.854	-4.34
1040.277	0.46
1040.7	-2.09
1041.123	-2.04
1041.546	-3.49
1041.969	0.61
1042.392	4.31
1042.815	-7.99
1043.238	0.11
1043.661	3.21
1044.084	-2.99
1044.507	1.76
1044.93	0.21
1045.352	0.36
1045.775	3.86
1046.198	1.21
1046.621	3.91
1047.043	-3.34
1047.466	0.71
1047.889	-4.09
1048.311	2.61
1048.734	-1.99
1049.156	-2.44
1049.579	0.86
1050.001	2.21
1050.424	0.86
1050.846	1.96
1051.269	-0.64
1051.691	-3.64
1052.113	0.76
1052.536	0.46
1052.958	-4.19
1053.38	-2.04
1053.802	3.16
1054.225	2.26
1054.647	5.01
1055.069	-2.69
1055.491	-0.64
1055.913	-0.69
1056.335	-8.44
1056.757	-2.89
1057.179	-4.69
1057.601	-1.04
1058.023	-0.34
1058.445	-5.04
1058.867	2.46
1059.289	1.56
1059.711	-2.94
1060.133	1.96
1060.555	-0.99
1060.976	-2.14
1061.398	-1.89
1061.82	0.96
1062.241	-2.19
1062.663	-0.84
1063.085	-1.99
1063.506	-3.64
1063.928	-1.64
1064.35	-3.54
1064.771	-1.84
1065.193	-4.04
1065.614	-0.44
1066.035	5.91
1066.457	5.11
1066.878	-0.19
1067.3	0.61
1067.721	0.01
1068.142	1.51
1068.564	-0.24
1068.985	0.66
1069.406	-4.09
1069.827	0.21
1070.248	-0.79
1070.67	-4.74
1071.091	-5.09
1071.512	-3.69
1071.933	-2.69
1072.354	-8.34
1072.775	-3.14
1073.196	-0.94
1073.617	-5.84
1074.038	0.36
1074.459	-0.79
1074.88	2.16
1075.3	-0.09
1075.721	1.16
1076.142	0.86
1076.563	-4.84
1076.983	0.76
1077.404	-8.39
1077.825	1.01
1078.246	-2.49
1078.666	-1.79
1079.087	0.56
1079.507	-4.84
1079.928	-0.54
1080.348	-0.49
1080.769	2.41
1081.189	-3.29
1081.61	-6.04
1082.03	2.31
1082.451	-0.74
1082.871	-4.54
1083.291	-4.44
1083.711	-0.89
1084.132	-4.39
1084.552	-5.54
1084.972	-5.59
1085.392	-2.14
1085.813	1.16
1086.233	-2.14
1086.653	-1.84
1087.073	-3.49
1087.493	-1.44
1087.913	-7.89
1088.333	-1.74
1088.753	1.31
1089.173	-1.04
1089.593	-1.89
1090.013	-4.89
1090.433	-7.59
1090.852	0.71
1091.272	-1.24
1091.692	1.51
1092.112	-2.14
1092.531	-4.09
1092.951	0.41
1093.371	-0.84
1093.79	-4.94
1094.21	0.11
1094.63	-0.39
1095.049	-3.39
1095.469	-10.04
1095.888	-1.04
1096.308	0.71
1096.727	-0.99
1097.146	-2.59
1097.566	-3.64
1097.985	-2.19
1098.405	-2.39
1098.824	1.06
1099.243	-0.19
1099.662	-3.44
1100.082	-0.99
1100.501	-0.39
1100.92	5.01
1101.339	-2.89
1101.758	3.71
