Data from MSPlasma+Separation6_Subt14_10-12-51-828.txt Node
Date: Fri Jul 21 10:12:51 EDT 2017
User: Ender
Spectrometer: HR+D1039
Trigger mode: 0
Integration Time (sec): 6.430000E-3
Scans to average: 20
Electric dark correction enabled: true
Nonlinearity correction enabled: false
Boxcar width: 0
XAxis mode: Wavelengths
Number of Pixels in Spectrum: 2048
>>>>>Begin Spectral Data<<<<<
187.836	-0.05
188.309	-0.05
188.782	-0.05
189.255	1.55
189.728	5.8
190.201	-1.25
190.674	1.2
191.147	-2.5
191.619	-1.7
192.092	-2.1
192.565	-0.1
193.038	3.4
193.511	0.8
193.984	-1.45
194.456	0.1
194.929	-2.4
195.402	-1.3
195.874	-0.05
196.347	-1.4
196.82	1
197.292	-3.5
197.765	-1.15
198.237	-1.1
198.71	-2.05
199.182	1.4
199.655	3.1
200.127	1.2
200.6	-0.55
201.072	3
201.544	1.45
202.017	0.75
202.489	1.8
202.961	0.75
203.433	-1.8
203.906	-1.15
204.378	-2.9
204.85	-3.5
205.322	2.05
205.794	2.6
206.266	-2.25
206.739	-0.1
207.211	-0.1
207.683	0.9
208.155	-2.2
208.627	2.25
209.099	3.2
209.57	2.5
210.042	-1.6
210.514	-3.05
210.986	-3.05
211.458	-3.55
211.93	1.4
212.402	1.25
212.873	-2.05
213.345	-2.5
213.817	1.25
214.288	-5
214.76	1
215.232	-0.05
215.703	-1.15
216.175	-0.8
216.646	2.2
217.118	3.7
217.589	-5
218.061	-1.6
218.532	-0.7
219.004	1.65
219.475	2.9
219.946	-0.4
220.418	7.65
220.889	-2.25
221.36	5.8
221.832	2.2
222.303	4.1
222.774	2.1
223.245	-4.05
223.717	0.75
224.188	4.1
224.659	1.55
225.13	0.6
225.601	2.95
226.072	1.5
226.543	6.15
227.014	-1.15
227.485	3.5
227.956	3.85
228.427	12.75
228.898	5.95
229.369	5
229.839	2
230.31	6.15
230.781	3.1
231.252	7.95
231.722	5.7
232.193	4.35
232.664	2
233.135	6
233.605	8.15
234.076	12.3
234.546	4.6
235.017	10.85
235.487	7.75
235.958	6.85
236.428	9.8
236.899	5.15
237.369	10.7
237.84	14.6
238.31	13.95
238.78	6
239.251	8.75
239.721	7.65
240.191	5.95
240.662	15.15
241.132	8.2
241.602	13.35
242.072	9.6
242.542	9.45
243.013	11.25
243.483	17.2
243.953	11.15
244.423	13
244.893	10.25
245.363	12.35
245.833	16.55
246.303	14.5
246.773	16.35
247.243	12.55
247.712	14.75
248.182	18.9
248.652	19.8
249.122	19.1
249.592	18.75
250.061	12.95
250.531	14
251.001	17.85
251.471	20.8
251.94	16.5
252.41	18.65
252.879	19.15
253.349	25.25
253.818	16.9
254.288	25.65
254.757	21.15
255.227	22.2
255.696	18.9
256.166	26.3
256.635	21.6
257.105	24.15
257.574	24.2
258.043	22.55
258.513	25.8
258.982	21.8
259.451	26.2
259.92	21.65
260.389	24.5
260.859	23.2
261.328	27.05
261.797	25.95
262.266	26.25
262.735	33
263.204	23.05
263.673	29.2
264.142	27.55
264.611	27.95
265.08	31.85
265.549	28.65
266.018	32.2
266.487	31.45
266.955	30.2
267.424	33.05
267.893	33.35
268.362	32.2
268.83	29.75
269.299	30.35
269.768	31.15
270.236	35.75
270.705	38.2
271.174	35.6
271.642	33.55
272.111	38.45
272.579	38.5
273.048	31.9
273.516	41.3
273.985	37.15
274.453	37.75
274.922	36.2
275.39	40
275.858	38.15
276.327	44.3
276.795	43.1
277.263	41.8
277.731	43.05
278.2	41.3
278.668	46.75
279.136	45.3
279.604	44.45
280.072	42.9
280.54	43.3
281.008	53.05
281.477	44.6
281.945	46.35
282.413	44.55
282.881	46.2
283.348	47.5
283.816	48.75
284.284	46.25
284.752	48.05
285.22	51.25
285.688	48.95
286.156	51
286.623	52.35
287.091	52
287.559	59.05
288.026	56.45
288.494	52.9
288.962	51.15
289.429	54.35
289.897	56.7
290.364	57.5
290.832	61.05
291.3	54.55
291.767	55.55
292.234	59.7
292.702	57.65
293.169	59.2
293.637	61.65
294.104	63
294.571	62.9
295.039	63.4
295.506	58.4
295.973	64.1
296.44	61.85
296.908	69.6
297.375	65.55
297.842	66.35
298.309	66.15
298.776	58.7
299.243	71.35
299.71	70.05
300.177	69.3
300.644	67.65
301.111	68.35
301.578	71
302.045	67.3
302.512	69.35
302.979	75.5
303.446	74.4
303.913	78.65
304.379	78.15
304.846	80.55
305.313	86.35
305.78	86.3
306.246	83.35
306.713	85.05
307.18	82.1
307.646	84.95
308.113	83.45
308.579	89.45
309.046	91.5
309.512	91.6
309.979	93.1
310.445	94
310.912	95.85
311.378	101.35
311.845	94.7
312.311	90.15
312.777	98.1
313.244	97.55
313.71	103.25
314.176	104.85
314.642	101.25
315.109	101.45
315.575	99.45
316.041	101.6
316.507	103.3
316.973	108.3
317.439	113
317.905	109.9
318.371	103.8
318.837	106.05
319.303	107.2
319.769	105.85
320.235	113.35
320.701	116.5
321.167	111.45
321.633	110.7
322.099	108.5
322.564	117.6
323.03	114.4
323.496	110.4
323.962	120.65
324.427	120.9
324.893	118.7
325.359	125.95
325.824	121.2
326.29	129.05
326.755	123.4
327.221	124.9
327.686	131.2
328.152	131.45
328.617	133.95
329.083	134.4
329.548	135.9
330.014	136.65
330.479	140.45
330.944	134
331.41	145.45
331.875	137.1
332.34	137.9
332.805	144.2
333.271	137.85
333.736	138.7
334.201	143.65
334.666	150.8
335.131	153.1
335.596	151.6
336.061	148.1
336.526	148.05
336.991	138.05
337.456	140.3
337.921	146.95
338.386	144.8
338.851	146.7
339.316	141.85
339.781	142.3
340.246	147.95
340.711	150.95
341.175	150.7
341.64	154.05
342.105	161.5
342.569	168.1
343.034	162.9
343.499	162.8
343.963	168.6
344.428	173.7
344.893	169.55
345.357	174.25
345.822	179.8
346.286	177
346.751	181.25
347.215	186.15
347.679	188.45
348.144	204.7
348.608	202.8
349.073	202.25
349.537	202.75
350.001	205
350.465	205.4
350.93	208.75
351.394	209.7
351.858	209.75
352.322	215.35
352.786	211.1
353.25	212.05
353.715	208.6
354.179	228.4
354.643	238.2
355.107	233.8
355.571	234.1
356.035	232.3
356.498	225.7
356.962	223.9
357.426	218.1
357.89	219.7
358.354	215.95
358.818	216
359.281	222.85
359.745	229.25
360.209	224.55
360.673	223.45
361.136	223.65
361.6	230.75
362.064	227.4
362.527	236.4
362.991	236.6
363.454	231.95
363.918	239.3
364.381	245.8
364.845	242.25
365.308	234
365.772	244.45
366.235	243.7
366.698	239.4
367.162	238.1
367.625	245
368.088	255.15
368.552	244.65
369.015	245.35
369.478	247.15
369.941	249.05
370.404	259.15
370.867	245.6
371.331	253.75
371.794	259.8
372.257	262
372.72	260.65
373.183	267.15
373.646	263.15
374.109	257.6
374.572	264.15
375.035	270.5
375.497	270
375.96	272.65
376.423	275.85
376.886	280.45
377.349	290.45
377.811	284.1
378.274	290.15
378.737	281.55
379.199	291.3
379.662	285.75
380.125	292.55
380.587	299.55
381.05	301.75
381.512	302.5
381.975	309
382.437	317.05
382.9	318
383.362	316.7
383.825	322.8
384.287	327.6
384.75	316.1
385.212	324.1
385.674	326.45
386.136	337.2
386.599	332.1
387.061	327.7
387.523	326.75
387.985	334.75
388.447	338.2
388.91	336.05
389.372	340.05
389.834	343.25
390.296	333
390.758	338.3
391.22	335.8
391.682	335.6
392.144	336.25
392.606	339.55
393.068	351.8
393.529	375.9
393.991	378.7
394.453	363.7
394.915	342.6
395.377	338.45
395.838	348.5
396.3	342.65
396.762	351.85
397.224	345.95
397.685	346.2
398.147	352.35
398.608	356.4
399.07	362.55
399.531	365.55
399.993	370.2
400.454	378
400.916	370.75
401.377	381.7
401.839	388.9
402.3	386.25
402.762	402.15
403.223	436.15
403.684	434.35
404.145	405.3
404.607	400.2
405.068	385.4
405.529	392.75
405.99	396.35
406.451	404.65
406.913	391.6
407.374	394.45
407.835	394.15
408.296	406.75
408.757	409.4
409.218	416.2
409.679	422.4
410.14	425.2
410.601	445.1
411.062	453.8
411.522	455.3
411.983	457.15
412.444	461.1
412.905	476.25
413.366	505.55
413.826	532.55
414.287	606.5
414.748	738.05
415.208	759.5
415.669	620.9
416.13	562.3
416.59	546.65
417.051	576.85
417.511	609.9
417.972	652.3
418.432	715.5
418.893	802.75
419.353	770.9
419.814	571.1
420.274	497.65
420.734	482.2
421.195	504.7
421.655	497.7
422.115	509.2
422.576	508.85
423.036	512.45
423.496	527.05
423.956	553.7
424.416	587.6
424.876	665
425.336	663.8
425.797	635.55
426.257	626.15
426.717	564.7
427.177	508.85
427.637	505.35
428.097	518.45
428.556	540.45
429.016	576
429.476	559.1
429.936	535.3
430.396	521.9
430.856	526.8
431.315	536.7
431.775	584.65
432.235	640.3
432.694	655.55
433.154	595.85
433.614	580.25
434.073	569.05
434.533	519.35
434.993	507.15
435.452	522.15
435.912	517.8
436.371	524.05
436.83	536.45
437.29	526.6
437.749	524.4
438.209	525.15
438.668	530.5
439.127	552.8
439.587	544.85
440.046	536.25
440.505	552.6
440.964	560.55
441.424	571.5
441.883	584.7
442.342	559.35
442.801	535.25
443.26	546.6
443.719	543.6
444.178	545.35
444.637	554.75
445.096	564.55
445.555	569.45
446.014	565.15
446.473	560.6
446.932	562.95
447.391	571.65
447.849	584.15
448.308	582.35
448.767	577.1
449.226	593.8
449.685	605.75
450.143	639
450.602	627.25
451.061	596.9
451.519	590.2
451.978	585.4
452.436	578.85
452.895	584.95
453.353	582.55
453.812	570
454.27	576.75
454.729	580.1
455.187	589.75
455.646	587.75
456.104	591.6
456.562	599
457.021	606.1
457.479	579.35
457.937	602.6
458.395	619.65
458.854	607.85
459.312	600.9
459.77	608.25
460.228	615.75
460.686	619.6
461.144	625
461.602	618.05
462.06	613.7
462.518	621.75
462.976	629.95
463.434	635.3
463.892	649.4
464.35	652.8
464.808	659.8
465.266	663.7
465.724	680.95
466.181	675.5
466.639	670.85
467.097	701.25
467.555	716.55
468.012	716.3
468.47	714.9
468.928	746.15
469.385	758.6
469.843	761.4
470.3	754.55
470.758	782.05
471.215	790.25
471.673	798.35
472.13	831.35
472.588	831.6
473.045	830.65
473.503	845.15
473.96	881.55
474.417	890.9
474.875	906.85
475.332	925.05
475.789	931.1
476.246	941.95
476.704	975.8
477.161	981.9
477.618	975.5
478.075	1000
478.532	1023.75
478.989	1058.3
479.446	1108.1
479.903	1098.65
480.36	1120.75
480.817	1116.7
481.274	1125.85
481.731	1163.85
482.188	1187.3
482.645	1208.2
483.102	1215.8
483.558	1250.65
484.015	1275.55
484.472	1282.15
484.929	1291
485.385	1281.95
485.842	1293.45
486.299	1289.1
486.755	1298.4
487.212	1272.15
487.668	1236.65
488.125	1238.45
488.582	1218.25
489.038	1235.1
489.494	1240
489.951	1234.4
490.407	1242.55
490.864	1253.85
491.32	1245.1
491.776	1248.95
492.233	1273.9
492.689	1270.05
493.145	1255.4
493.602	1241.25
494.058	1266.4
494.514	1278.5
494.97	1278.95
495.426	1298.5
495.882	1302.95
496.338	1312.95
496.794	1327.05
497.251	1321.4
497.707	1343.8
498.163	1351.4
498.618	1350.8
499.074	1350.15
499.53	1362.45
499.986	1374.05
500.442	1360.35
500.898	1349.25
501.354	1362.25
501.809	1367.7
502.265	1376.55
502.721	1377.45
503.177	1380.2
503.632	1388.65
504.088	1407.35
504.543	1417.35
504.999	1431.05
505.455	1427.2
505.91	1412.5
506.366	1418.9
506.821	1422.35
507.277	1413.15
507.732	1412.7
508.187	1413.75
508.643	1427.2
509.098	1430.25
509.553	1440
510.009	1461.45
510.464	1496.85
510.919	1504.6
511.375	1522
511.83	1538
512.285	1566.25
512.74	1588.95
513.195	1613.7
513.65	1653.25
514.105	1673.95
514.56	1682.8
515.015	1718.75
515.47	1715.7
515.925	1697.8
516.38	1703.4
516.835	1707.55
517.29	1704.1
517.745	1703.35
518.2	1665.45
518.655	1630.05
519.109	1610.85
519.564	1588.5
520.019	1576.05
520.474	1561.65
520.928	1559.4
521.383	1544.65
521.838	1535.55
522.292	1517.95
522.747	1509.85
523.201	1509.3
523.656	1486.9
524.11	1488.2
524.565	1459.8
525.019	1480.1
525.474	1472.75
525.928	1458
526.382	1462.3
526.837	1468.2
527.291	1467.6
527.745	1457.15
528.2	1463.75
528.654	1438.95
529.108	1434.85
529.562	1443.85
530.016	1444
530.47	1438.8
530.925	1434.7
531.379	1434.15
531.833	1451.4
532.287	1447.9
532.741	1447.9
533.195	1441.15
533.649	1447
534.103	1445.75
534.556	1437.5
535.01	1445.55
535.464	1439.4
535.918	1442.55
536.372	1460.65
536.826	1443
537.279	1436.1
537.733	1437.1
538.187	1449.1
538.64	1444.6
539.094	1458.05
539.548	1465.8
540.001	1468.8
540.455	1471.05
540.908	1493.6
541.362	1500.35
541.815	1503.7
542.269	1541.4
542.722	1535.65
543.175	1561.45
543.629	1569.35
544.082	1584.4
544.536	1604.45
544.989	1605.8
545.442	1616.85
545.895	1612.1
546.349	1616.35
546.802	1632.55
547.255	1620.45
547.708	1629.3
548.161	1656.85
548.614	1654.25
549.067	1660.35
549.52	1643.9
549.973	1624.95
550.426	1617.05
550.879	1609.75
551.332	1611.9
551.785	1625.95
552.238	1636.65
552.691	1624.9
553.144	1656.65
553.596	1688.1
554.049	1721.4
554.502	1767.75
554.955	1797.45
555.407	1820.25
555.86	1791.55
556.313	1768.8
556.765	1757
557.218	1728.3
557.67	1723.9
558.123	1690.55
558.576	1694.2
559.028	1683.8
559.48	1711.2
559.933	1713
560.385	1647.8
560.838	1582.6
561.29	1542.9
561.742	1515.1
562.195	1481.75
562.647	1481.05
563.099	1474.2
563.551	1462.15
564.004	1484.35
564.456	1472.2
564.908	1431.15
565.36	1397.2
565.812	1369.4
566.264	1355.95
566.716	1326.1
567.168	1308.25
567.62	1319.65
568.072	1305.55
568.524	1296.55
568.976	1290
569.428	1278.2
569.88	1271.25
570.332	1286.2
570.784	1281.1
571.235	1276.4
571.687	1293.95
572.139	1288.65
572.59	1308.1
573.042	1319.35
573.494	1315.05
573.945	1296.5
574.397	1258.25
574.849	1259.35
575.3	1256.75
575.752	1248.05
576.203	1232.85
576.655	1243.4
577.106	1218.75
577.557	1207.8
578.009	1207.65
578.46	1208.1
578.912	1202.45
579.363	1208.6
579.814	1200.15
580.265	1202.7
580.717	1201.05
581.168	1205.2
581.619	1208
582.07	1222.8
582.521	1215.05
582.972	1201.75
583.423	1217.7
583.875	1219.85
584.326	1224.2
584.777	1249.45
585.227	1272.5
585.678	1288.8
586.129	1302.85
586.58	1312.9
587.031	1343.1
587.482	1374.6
587.933	1399.4
588.384	1401
588.834	1378.75
589.285	1367.1
589.736	1378.9
590.186	1374.55
590.637	1366.9
591.088	1337.7
591.538	1297.7
591.989	1290.2
592.439	1263.1
592.89	1249.35
593.34	1249.75
593.791	1234.1
594.241	1225.85
594.692	1228.75
595.142	1215.15
595.593	1210.95
596.043	1227
596.493	1237.45
596.943	1228.5
597.394	1271.15
597.844	1283.6
598.294	1307.95
598.744	1361.4
599.195	1428
599.645	1526.4
600.095	1616.15
600.545	1696.7
600.995	1785.25
601.445	1854.95
601.895	1945.95
602.345	2031.25
602.795	2003.6
603.245	1902.35
603.695	1788.55
604.145	1672.25
604.594	1578.6
605.044	1498.6
605.494	1391.25
605.944	1310.8
606.393	1271.15
606.843	1253.05
607.293	1253.9
607.743	1243.25
608.192	1258.85
608.642	1266.8
609.091	1269.2
609.541	1261.95
609.99	1256.25
610.44	1230.25
610.889	1211.85
611.339	1202
611.788	1176.45
612.238	1181.25
612.687	1185.2
613.136	1196.5
613.586	1209.55
614.035	1210.65
614.484	1209.9
614.933	1202.9
615.383	1184.9
615.832	1158.35
616.281	1142.75
616.73	1117.5
617.179	1094.25
617.628	1070.4
618.077	1055.75
618.526	1040.05
618.975	1032
619.424	1017.1
619.873	1020.15
620.322	1007.2
620.771	1003.6
621.22	989.45
621.669	966.65
622.118	956
622.567	939.9
623.015	924.5
623.464	919.5
623.913	913.65
624.361	912.25
624.81	910.7
625.259	915.85
625.707	899.3
626.156	911.6
626.604	926.05
627.053	930.35
627.501	922.65
627.95	940.15
628.398	945.75
628.847	937.35
629.295	939.7
629.744	929.35
630.192	905
630.64	890.95
631.089	878.75
631.537	850.75
631.985	838.2
632.433	836.8
632.881	833.8
633.33	830.3
633.778	827.95
634.226	830.6
634.674	837.95
635.122	847
635.57	867.7
636.018	877.3
636.466	874.65
636.914	864.15
637.362	886.35
637.81	907
638.258	926.15
638.705	934.8
639.153	965.65
639.601	978.2
640.049	997.3
640.497	1024.1
640.944	1056.25
641.392	993.85
641.84	913.3
642.287	853.85
642.735	833.55
643.182	814.65
643.63	803.2
644.078	797.8
644.525	794.35
644.973	808.35
645.42	808.05
645.867	806.05
646.315	797.25
646.762	814.25
647.21	807.3
647.657	822.4
648.104	813.55
648.551	779.9
648.999	768
649.446	761.6
649.893	759.4
650.34	771.2
650.787	790.4
651.234	819.75
651.682	888.7
652.129	956.8
652.576	1101.1
653.023	1261.75
653.47	1367.75
653.917	1428.45
654.363	1475.1
654.81	1555.6
655.257	1583.6
655.704	1255.25
656.151	978.2
656.598	857.25
657.044	793.85
657.491	780.75
657.938	754.9
658.385	736.95
658.831	746.35
659.278	734.3
659.724	729.75
660.171	714.45
660.618	699.4
661.064	686.3
661.511	690.75
661.957	684.85
662.404	702.35
662.85	707.1
663.296	712.45
663.743	715.6
664.189	716.35
664.635	719.65
665.082	715.55
665.528	709.7
665.974	694.25
666.42	689.2
666.867	681.9
667.313	648.2
667.759	651.35
668.205	648.65
668.651	652.95
669.097	651.85
669.543	660.15
669.989	666.75
670.435	671.15
670.881	671.6
671.327	708.2
671.773	762.45
672.219	824.1
672.665	894.3
673.11	937.45
673.556	960.4
674.002	1004.05
674.448	1018.25
674.893	853.9
675.339	729.75
675.785	663.35
676.23	631.6
676.676	603
677.122	583.45
677.567	572.2
678.013	554.4
678.458	554.3
678.904	555.15
679.349	540.45
679.794	540.05
680.24	546.3
680.685	543.3
681.131	541.95
681.576	542.75
682.021	547.5
682.466	548.8
682.912	558.3
683.357	590.75
683.802	639.65
684.247	709.4
684.692	761.35
685.137	794.05
685.583	819.65
686.028	888.2
686.473	829.35
686.918	704.95
687.363	638.2
687.807	608.05
688.252	573.05
688.697	544.15
689.142	536.65
689.587	533.5
690.032	543.1
690.477	565.05
690.921	599.7
691.366	626.9
691.811	659.9
692.255	719.15
692.7	872.25
693.145	1252.2
693.589	1939.1
694.034	2351.05
694.478	2571.55
694.923	2420.75
695.367	3532.6
695.812	2082.65
696.256	838.5
696.701	593.3
697.145	550.1
697.59	521.65
698.034	520.2
698.478	512.8
698.922	519.6
699.367	531.75
699.811	558.7
700.255	610.15
700.699	670.5
701.143	731.1
701.588	786.65
702.032	822.25
702.476	852.3
702.92	888.6
703.364	1151.6
703.808	1767.3
704.252	2260.45
704.696	2452.55
705.14	2380.8
705.584	3355.95
706.027	1791.2
706.471	874.1
706.915	635.8
707.359	559.3
707.803	515.3
708.246	493.95
708.69	490.55
709.134	486.45
709.577	487.9
710.021	495.5
710.465	494.45
710.908	485.05
711.352	505.9
711.795	566.35
712.239	609.3
712.682	629.95
713.126	618.7
713.569	703.6
714.012	568.65
714.456	478.95
714.899	453.6
715.342	430.95
715.786	413.9
716.229	402.05
716.672	397.45
717.115	398.05
717.558	398.75
718.002	409.55
718.445	430.05
718.888	465.3
719.331	472.55
719.774	480
720.217	471.35
720.66	442.55
721.103	421.8
721.546	388.8
721.989	383.2
722.432	376.5
722.874	376.5
723.317	371.95
723.76	415.35
724.203	512.3
724.645	699.3
725.088	841.4
725.531	835.65
725.974	943.6
726.416	829.75
726.859	486.4
727.301	396.3
727.744	373.35
728.187	371.9
728.629	381.1
729.071	401.65
729.514	426.1
729.956	451.75
730.399	456.4
730.841	456.7
731.283	444.55
731.726	428.6
732.168	435.35
732.61	452.7
733.053	493.55
733.495	555.85
733.937	621.4
734.379	726.6
734.821	928.05
735.263	1470.3
735.705	2651.3
736.148	3989.2
736.59	4137.8
737.032	4672.5
737.474	3818.9
737.916	1404.1
738.357	709.45
738.799	535.2
739.241	492.3
739.683	489.25
740.125	507.6
740.567	506.55
741.008	545.15
741.45	568.5
741.892	593.65
742.334	607.7
742.775	607.55
743.217	582.1
743.658	474.85
744.1	478.8
744.542	548.4
744.983	575.45
745.425	610
745.866	598.5
746.307	498.9
746.749	536
747.19	782.6
747.632	1540.75
748.073	2924.1
748.514	4137.05
748.956	5676.45
749.397	6701.8
749.838	4594.55
750.279	4526.55
750.72	2261.9
751.162	916.35
751.603	518.4
752.044	408.6
752.485	364.6
752.926	342.65
753.367	328.6
753.808	316.65
754.249	304.3
754.69	303.2
755.131	295.2
755.572	294.55
756.013	297.7
756.453	293.65
756.894	304.55
757.335	307.85
757.776	309.45
758.216	323.2
758.657	346.1
759.098	376.8
759.538	454.4
759.979	661.9
760.42	1344.95
760.86	3454.65
761.301	7391.65
761.741	9100.9
762.182	10962.2
762.622	6908.3
763.063	2369.25
763.503	951.45
763.943	551.1
764.384	433.2
764.824	367.8
765.264	333.55
765.705	322.65
766.145	298.5
766.585	293.1
767.025	278.3
767.465	280.7
767.906	284.9
768.346	297.05
768.786	355.05
769.226	524.2
769.666	1065.5
770.106	2438.2
770.546	3616.45
770.986	4293.3
771.426	3229.8
771.866	1295.75
772.306	568.35
772.745	340.2
773.185	279.45
773.625	271.35
774.065	281.45
774.505	387.95
774.944	677.7
775.384	988.15
775.824	1166.6
776.263	979.65
776.703	500.5
777.142	292.1
777.582	222.4
778.021	211.15
778.461	200.45
778.9	202.65
779.34	191
779.779	186.05
780.219	186.75
780.658	180.25
781.097	177.25
781.537	177.05
781.976	172.4
782.415	165.1
782.855	180.1
783.294	171.5
783.733	170.7
784.172	169.75
784.611	169.75
785.05	178.85
785.489	182
785.928	188.25
786.367	190.7
786.806	205.1
787.245	222.25
787.684	231.2
788.123	230.25
788.562	221.3
789.001	202.9
789.44	197.7
789.879	203.6
790.317	206.35
790.756	218.55
791.195	245.6
791.634	336.65
792.072	614.1
792.511	1533.5
792.95	2935.05
793.388	3727.55
793.827	2413.2
794.265	1057.15
794.704	495.05
795.142	296
795.581	246.2
796.019	217.5
796.458	219.7
796.896	227.95
797.334	260.55
797.773	351.15
798.211	685.25
798.649	1459.25
799.087	2502.6
799.526	3559.4
799.964	3770.6
800.402	2627.75
800.84	1140.4
801.278	540.15
801.716	320.5
802.154	258.15
802.592	246.9
803.03	240.6
803.468	249.65
803.906	250.95
804.344	242.25
804.782	237.25
805.22	236.9
805.658	248.05
806.096	263.6
806.533	297.4
806.971	384.05
807.409	554.65
807.847	1111.7
808.284	2878.9
808.722	5262.25
809.16	7394.25
809.597	9864.7
810.035	12740.95
810.472	8373.75
810.91	3406.8
811.347	1504.1
811.785	701.25
812.222	443.25
812.66	334
813.097	283.7
813.535	244.5
813.972	219.2
814.409	202.05
814.846	192.7
815.284	178.8
815.721	188.55
816.158	199.4
816.595	264.25
817.032	342.2
817.47	316.45
817.907	221.3
818.344	196.25
818.781	190
819.218	229.9
819.655	346.1
820.092	467.25
820.529	421.2
820.966	332.1
821.403	222.6
821.839	196.2
822.276	212.15
822.713	263.05
823.15	246.3
823.587	257.95
824.023	459.2
824.46	1195.55
824.897	2197.85
825.333	1748.55
825.77	769.7
826.206	391.4
826.643	222.15
827.08	165.1
827.516	143.85
827.953	135.05
828.389	125.5
828.825	119
829.262	112.8
829.698	112.85
830.135	108.4
830.571	105.9
831.007	110.65
831.443	111.2
831.88	110.55
832.316	111.75
832.752	114
833.188	113.6
833.624	111.95
834.06	120.6
834.497	116.55
834.933	119.55
835.369	133.2
835.805	142.8
836.241	147
836.677	161.25
837.112	185.8
837.548	231.9
837.984	343.65
838.42	735.5
838.856	2098.05
839.292	4371.7
839.727	3272.7
840.163	2085.45
840.599	3158.35
841.034	5149.15
841.47	2557
841.906	1192.35
842.341	622.25
842.777	438
843.212	443.2
843.648	280.95
844.083	193.55
844.519	140.5
844.954	126.35
845.39	106.95
845.825	101.3
846.261	102.2
846.696	97.4
847.131	92.4
847.566	96.35
848.002	99.45
848.437	106.15
848.872	108.9
849.307	140.2
849.742	257.65
850.177	690.05
850.613	1547.95
851.048	1134.75
851.483	493.9
851.918	264.75
852.353	140.9
852.788	99.55
853.223	90.1
853.657	79.3
854.092	75.95
854.527	79.4
854.962	81.05
855.397	88.9
855.832	81.55
856.266	70.15
856.701	67.6
857.136	71.2
857.57	90.3
858.005	105.25
858.44	91.3
858.874	88.4
859.309	92.3
859.743	88
860.178	79.15
860.612	93.1
861.047	127.05
861.481	177.4
861.915	119.1
862.35	88.25
862.784	71.35
863.218	63.85
863.653	74.7
864.087	89
864.521	114.25
864.955	195.35
865.39	357.05
865.824	258.05
866.258	310.35
866.692	474.55
867.126	342.7
867.56	186.2
867.994	114.4
868.428	95.6
868.862	124.05
869.296	110.65
869.73	141.35
870.164	120.8
870.598	106.75
871.031	77.1
871.465	73.5
871.899	57.8
872.333	41.5
872.766	47.05
873.2	55.85
873.634	49.1
874.067	57.35
874.501	52.35
874.935	52.9
875.368	56.35
875.802	48.85
876.235	46
876.669	40.95
877.102	35.6
877.535	39.95
877.969	39.6
878.402	41.75
878.836	39.65
879.269	37.7
879.702	37.6
880.135	40.7
880.569	40.5
881.002	39.9
881.435	37.65
881.868	41.2
882.301	38.5
882.734	33.55
883.167	41.75
883.601	39.95
884.034	37.5
884.467	34.6
884.899	34.05
885.332	29.7
885.765	29.2
886.198	27.55
886.631	30.8
887.064	32.35
887.497	32.85
887.929	34.25
888.362	27.6
888.795	31.4
889.228	36
889.66	30.5
890.093	32.85
890.526	30.7
890.958	32.85
891.391	32.6
891.823	32.55
892.256	31.05
892.688	35.45
893.121	35.75
893.553	34.15
893.985	32.8
894.418	23.8
894.85	37.55
895.282	32.95
895.715	27.15
896.147	24.3
896.579	27.7
897.011	32.1
897.444	31.45
897.876	20.85
898.308	23.65
898.74	28.7
899.172	29.05
899.604	31.9
900.036	29.7
900.468	28
900.9	36.6
901.332	44.45
901.764	39.95
902.196	40.35
902.628	40.9
903.06	59.6
903.491	61.9
903.923	46
904.355	45.5
904.787	53.1
905.218	40.9
905.65	41.6
906.082	32.4
906.513	33.65
906.945	35.95
907.376	40.45
907.808	34.2
908.239	40.2
908.671	46.5
909.102	47.6
909.534	72.3
909.965	134.8
910.397	345.9
910.828	1059.6
911.259	645.85
911.691	331.05
912.122	189
912.553	96.3
912.984	51.9
913.415	44.2
913.847	40.8
914.278	41
914.709	33.55
915.14	30.15
915.571	29.15
916.002	28.65
916.433	30.5
916.864	29.95
917.295	28.9
917.726	34.25
918.157	43.4
918.587	44.9
919.018	43.55
919.449	40.35
919.88	45.35
920.311	70.05
920.741	214.2
921.172	396.65
921.603	186.25
922.033	112.05
922.464	71.1
922.895	44.75
923.325	32.7
923.756	25.8
924.186	35.1
924.617	52.15
925.047	77.5
925.478	62.65
925.908	48.35
926.338	36.2
926.769	21.75
927.199	28.3
927.629	24.15
928.06	31.35
928.49	27.8
928.92	25
929.35	22.15
929.78	16.55
930.21	20.5
930.641	16.9
931.071	19.6
931.501	16.95
931.931	14.2
932.361	12.5
932.791	16.2
933.221	17.45
933.651	26.4
934.08	55.4
934.51	33.1
934.94	26.4
935.37	17.6
935.8	14.8
936.229	12.3
936.659	15.7
937.089	24.15
937.519	39.95
937.948	52.9
938.378	34.45
938.807	20.5
939.237	12.2
939.666	15.35
940.096	3.45
940.525	2.1
940.955	10.3
941.384	5.5
941.814	9.95
942.243	5.4
942.672	9.95
943.102	5.35
943.531	6.8
943.96	6.45
944.39	3.95
944.819	9.5
945.248	7.85
945.677	9.1
946.106	4.4
946.535	7.55
946.964	8.3
947.393	2.6
947.822	4.75
948.251	9.6
948.68	7.25
949.109	8.6
949.538	5.4
949.967	6.4
950.396	6.25
950.825	10.05
951.254	7
951.682	3.4
952.111	1.1
952.54	4.7
952.969	3.5
953.397	5.85
953.826	2.35
954.254	10.2
954.683	5.6
955.112	9.5
955.54	3.55
955.969	2.3
956.397	7.35
956.826	0.1
957.254	5.4
957.682	3.2
958.111	8.3
958.539	7.25
958.967	5.15
959.396	5.75
959.824	4
960.252	7.6
960.68	5.95
961.109	7.35
961.537	11.75
961.965	1.75
962.393	1.5
962.821	2.35
963.249	7.5
963.677	10
964.105	67.3
964.533	112.75
964.961	51.5
965.389	28.5
965.817	17.45
966.245	7.7
966.672	7.05
967.1	9.1
967.528	-0.8
967.956	0.15
968.383	0.3
968.811	0.7
969.239	2.35
969.666	6.75
970.094	4.35
970.522	0.35
970.949	4.2
971.377	-4.2
971.804	3.8
972.232	3.25
972.659	4.25
973.087	7.55
973.514	0.85
973.941	-2.85
974.369	0.65
974.796	0.45
975.223	0.2
975.651	6.35
976.078	4.65
976.505	8.05
976.932	24.4
977.359	33.3
977.786	23.25
978.214	14.15
978.641	2.75
979.068	2.95
979.495	3.1
979.922	2
980.349	7.6
980.776	5.8
981.202	5.5
981.629	3.5
982.056	4.95
982.483	-1.65
982.91	10
983.337	2.05
983.763	1.15
984.19	7.75
984.617	0.15
985.043	4.45
985.47	6.9
985.897	3.9
986.323	4.85
986.75	2.65
987.176	2.75
987.603	0.6
988.029	2.5
988.456	1.9
988.882	0.25
989.308	-3.8
989.735	1.25
990.161	4.25
990.587	4.2
991.014	2.65
991.44	2.45
991.866	5.45
992.292	-0.4
992.719	-0.55
993.145	2.15
993.571	5.1
993.997	6.25
994.423	5.5
994.849	-8.25
995.275	3.65
995.701	4.1
996.127	-7.05
996.553	0.55
996.979	0.1
997.405	5.7
997.83	0.05
998.256	4.95
998.682	3.05
999.108	4.6
999.534	-3.15
999.959	-0.9
1000.385	4.3
1000.811	0.45
1001.236	-5.5
1001.662	-1
1002.087	7.1
1002.513	2.4
1002.938	2.25
1003.364	2.05
1003.789	2.1
1004.215	2.35
1004.64	6.25
1005.066	6.9
1005.491	6.2
1005.916	3.4
1006.342	4.45
1006.767	5.35
1007.192	3.1
1007.617	1.75
1008.042	1.8
1008.468	4.95
1008.893	6.65
1009.318	7.7
1009.743	10.1
1010.168	23.05
1010.593	16.05
1011.018	12.35
1011.443	4.9
1011.868	5.3
1012.293	2.95
1012.718	-1.7
1013.143	0.4
1013.567	9.5
1013.992	5.9
1014.417	-0.15
1014.842	2.6
1015.267	0.35
1015.691	3.95
1016.116	-0.75
1016.541	5.6
1016.965	3.85
1017.39	3.3
1017.814	-1.95
1018.239	-1.2
1018.663	-6.6
1019.088	-0.45
1019.512	4.5
1019.937	-2.4
1020.361	2
1020.785	-1.95
1021.21	-2.5
1021.634	-0.4
1022.058	4.4
1022.483	-1.9
1022.907	-0.55
1023.331	-0.45
1023.755	-0.8
1024.179	1.1
1024.604	-1.25
1025.028	3.7
1025.452	4.45
1025.876	0.95
1026.3	2.75
1026.724	0.2
1027.148	2.7
1027.572	-0.45
1027.996	4.2
1028.42	-1
1028.843	-0.2
1029.267	5
1029.691	3.25
1030.115	4.5
1030.539	3.15
1030.962	-2.75
1031.386	0.25
1031.81	2.5
1032.233	-4
1032.657	-9.6
1033.08	0.6
1033.504	1.85
1033.927	0.45
1034.351	-1
1034.774	-3.15
1035.198	-1.45
1035.621	1.85
1036.045	0.1
1036.468	2.55
1036.891	-1.1
1037.315	2.1
1037.738	-0.05
1038.161	-0.4
1038.584	1
1039.008	-1.05
1039.431	0.85
1039.854	-5.45
1040.277	3.1
1040.7	-0.8
1041.123	1.4
1041.546	-4.85
1041.969	4.35
1042.392	4.2
1042.815	-1.65
1043.238	-1.05
1043.661	-0.6
1044.084	-2.85
1044.507	-3.25
1044.93	1.95
1045.352	-3.4
1045.775	2.4
1046.198	1.15
1046.621	4.25
1047.043	-0.15
1047.466	3.5
1047.889	-0.35
1048.311	4.65
1048.734	-0.8
1049.156	-0.65
1049.579	1.1
1050.001	-2.7
1050.424	-0.4
1050.846	-0.45
1051.269	-4.8
1051.691	-2.85
1052.113	-1.35
1052.536	-2.65
1052.958	-4.6
1053.38	-0.9
1053.802	-1.75
1054.225	5.5
1054.647	2
1055.069	0.85
1055.491	-3.35
1055.913	0.45
1056.335	-9.5
1056.757	-5.5
1057.179	-2.75
1057.601	0.6
1058.023	0.15
1058.445	-4.2
1058.867	-0.65
1059.289	1.85
1059.711	-3.5
1060.133	-0.55
1060.555	1.8
1060.976	-0.45
1061.398	-2.5
1061.82	1.7
1062.241	0.05
1062.663	-2
1063.085	-5.25
1063.506	-5.35
1063.928	-4
1064.35	-3.75
1064.771	0.15
1065.193	0.25
1065.614	-0.8
1066.035	4.85
1066.457	3.5
1066.878	1.35
1067.3	-3
1067.721	1.2
1068.142	2.5
1068.564	4.55
1068.985	-1.45
1069.406	-6.15
1069.827	0.05
1070.248	-6.1
1070.67	-3.15
1071.091	-5.85
1071.512	-4.05
1071.933	-5.15
1072.354	-5.5
1072.775	-3.65
1073.196	-3.45
1073.617	-4.25
1074.038	-2.4
1074.459	-4.85
1074.88	-1.2
1075.3	-1.65
1075.721	-1.9
1076.142	-4.5
1076.563	-4.25
1076.983	1.35
1077.404	-3.55
1077.825	2.2
1078.246	-7.8
1078.666	-2.8
1079.087	-2.85
1079.507	-3.6
1079.928	-0.1
1080.348	-3.5
1080.769	-1.25
1081.189	-4.75
1081.61	-6.3
1082.03	1.65
1082.451	-0.3
1082.871	-5.8
1083.291	-0.85
1083.711	-5.3
1084.132	-6.8
1084.552	-3.05
1084.972	-4.45
1085.392	-3.75
1085.813	-1.9
1086.233	-3.6
1086.653	2.9
1087.073	-1.5
1087.493	-2.45
1087.913	-6.25
1088.333	-4.8
1088.753	-1.1
1089.173	2.55
1089.593	-0.6
1090.013	0.9
1090.433	-1.9
1090.852	0.4
1091.272	-1.25
1091.692	-0.45
1092.112	-1.5
1092.531	-5.7
1092.951	-2.75
1093.371	1.15
1093.79	-2.6
1094.21	-3.6
1094.63	0.65
1095.049	-1.95
1095.469	-9.95
1095.888	1.45
1096.308	2.25
1096.727	-3.5
1097.146	-5.65
1097.566	3.15
1097.985	-1.95
1098.405	-0.6
1098.824	2.6
1099.243	-2.4
1099.662	-2.35
1100.082	-3.8
1100.501	-0.8
1100.92	3.45
1101.339	3.6
1101.758	5.35
