Data from MSPlasma+Separation6_Subt14_10-12-38-455.txt Node
Date: Fri Jul 21 10:12:38 EDT 2017
User: Ender
Spectrometer: HR+D1039
Trigger mode: 0
Integration Time (sec): 6.430000E-3
Scans to average: 20
Electric dark correction enabled: true
Nonlinearity correction enabled: false
Boxcar width: 0
XAxis mode: Wavelengths
Number of Pixels in Spectrum: 2048
>>>>>Begin Spectral Data<<<<<
187.836	0.86
188.309	0.86
188.782	0.86
189.255	4.06
189.728	1.91
190.201	0.16
190.674	0.66
191.147	-1.94
191.619	-1.49
192.092	-0.54
192.565	1.61
193.038	0.81
193.511	2.96
193.984	-4.14
194.456	-3.39
194.929	0.36
195.402	-2.09
195.874	0.16
196.347	-0.84
196.82	2.91
197.292	3.06
197.765	-3.14
198.237	-4.89
198.71	-5.84
199.182	0.71
199.655	2.91
200.127	-0.59
200.6	0.31
201.072	-0.54
201.544	-5.39
202.017	-0.64
202.489	1.31
202.961	-1.94
203.433	-1.49
203.906	-1.44
204.378	-2.04
204.85	1.56
205.322	1.06
205.794	2.16
206.266	-3.79
206.739	1.36
207.211	-2.39
207.683	-1.64
208.155	2.16
208.627	-1.74
209.099	4.41
209.57	4.36
210.042	2.01
210.514	1.16
210.986	-0.74
211.458	-2.24
211.93	-1.59
212.402	-0.59
212.873	-4.59
213.345	-5.19
213.817	3.66
214.288	-4.99
214.76	2.01
215.232	-0.59
215.703	1.06
216.175	5.01
216.646	2.26
217.118	0.91
217.589	-5.19
218.061	0.71
218.532	-0.69
219.004	3.11
219.475	3.26
219.946	3.16
220.418	5.16
220.889	1.71
221.36	4.61
221.832	6.26
222.303	1.26
222.774	1.46
223.245	4.41
223.717	-4.34
224.188	5.61
224.659	2.31
225.13	2.66
225.601	3.06
226.072	5.01
226.543	6.61
227.014	-0.89
227.485	3.86
227.956	6.31
228.427	6.56
228.898	8.61
229.369	2.31
229.839	6.06
230.31	4.86
230.781	8.81
231.252	5.71
231.722	5.31
232.193	6.36
232.664	6.16
233.135	4.56
233.605	4.21
234.076	9.56
234.546	5.41
235.017	6.86
235.487	7.66
235.958	6.61
236.428	15.36
236.899	3.81
237.369	15.41
237.84	6.91
238.31	9.71
238.78	7.21
239.251	7.76
239.721	5.71
240.191	10.01
240.662	11.16
241.132	4.06
241.602	15.96
242.072	10.36
242.542	5.86
243.013	7.36
243.483	9.36
243.953	10.76
244.423	12.06
244.893	13.86
245.363	16.01
245.833	9.46
246.303	12.61
246.773	13.91
247.243	10.66
247.712	16.51
248.182	17.31
248.652	17.51
249.122	14.81
249.592	14.36
250.061	11.66
250.531	12.81
251.001	16.91
251.471	19.26
251.94	18.46
252.41	16.21
252.879	16.11
253.349	21.71
253.818	16.11
254.288	22.36
254.757	16.31
255.227	23.01
255.696	20.81
256.166	22.91
256.635	20.31
257.105	20.01
257.574	27.41
258.043	20.91
258.513	22.66
258.982	20.86
259.451	25.06
259.92	16.26
260.389	21.91
260.859	23.21
261.328	22.01
261.797	22.76
262.266	27.56
262.735	23.81
263.204	19.71
263.673	23.56
264.142	24.86
264.611	27.06
265.08	23.11
265.549	25.76
266.018	28.76
266.487	26.61
266.955	25.16
267.424	35.06
267.893	30.21
268.362	27.11
268.83	29.61
269.299	31.91
269.768	32.26
270.236	31.31
270.705	34.01
271.174	34.76
271.642	26.11
272.111	31.26
272.579	33.71
273.048	36.26
273.516	38.01
273.985	33.91
274.453	33.76
274.922	32.11
275.39	33.16
275.858	35.01
276.327	38.41
276.795	34.76
277.263	36.71
277.731	36.31
278.2	35.06
278.668	35.16
279.136	41.36
279.604	41.41
280.072	37.56
280.54	39.41
281.008	45.11
281.477	42.51
281.945	41.91
282.413	40.26
282.881	46.76
283.348	43.31
283.816	42.11
284.284	46.06
284.752	45.91
285.22	45.46
285.688	47.06
286.156	42.36
286.623	45.61
287.091	48.06
287.559	47.16
288.026	49.71
288.494	53.66
288.962	51.11
289.429	52.41
289.897	52.06
290.364	46.61
290.832	52.31
291.3	55.41
291.767	50.71
292.234	52.96
292.702	49.06
293.169	56.51
293.637	56.36
294.104	55.51
294.571	54.71
295.039	58.11
295.506	51.86
295.973	56.31
296.44	56.71
296.908	60.81
297.375	59.71
297.842	62.06
298.309	52.61
298.776	62.86
299.243	63.36
299.71	60.96
300.177	63.81
300.644	61.36
301.111	62.16
301.578	64.86
302.045	66.76
302.512	62.01
302.979	70.61
303.446	69.61
303.913	70.16
304.379	78.21
304.846	69.31
305.313	75.21
305.78	78.91
306.246	75.66
306.713	77.86
307.18	78.56
307.646	79.56
308.113	77.91
308.579	84.66
309.046	81.46
309.512	82.56
309.979	87.31
310.445	79.96
310.912	83.56
311.378	91.21
311.845	90.86
312.311	82.56
312.777	83.16
313.244	89.06
313.71	91.56
314.176	89.21
314.642	93.11
315.109	93.06
315.575	89.46
316.041	90.81
316.507	92.91
316.973	98.11
317.439	97.01
317.905	94.56
318.371	98.16
318.837	96.21
319.303	98.16
319.769	97.66
320.235	102.11
320.701	104.06
321.167	105.01
321.633	103.61
322.099	93.41
322.564	102.41
323.03	105.86
323.496	102.81
323.962	104.01
324.427	109.91
324.893	105.36
325.359	111.16
325.824	113.86
326.29	112.66
326.755	109.11
327.221	114.36
327.686	120.01
328.152	121.46
328.617	122.06
329.083	123.21
329.548	128.91
330.014	123.21
330.479	130.51
330.944	128.86
331.41	130.21
331.875	121.51
332.34	127.36
332.805	130.16
333.271	130.31
333.736	130.26
334.201	128.36
334.666	140.41
335.131	138.16
335.596	141.21
336.061	135.96
336.526	143.26
336.991	135.76
337.456	130.51
337.921	130.66
338.386	134.81
338.851	135.86
339.316	134.76
339.781	132.11
340.246	137.71
340.711	136.96
341.175	138.81
341.64	144.66
342.105	148.16
342.569	157.06
343.034	144.11
343.499	151.36
343.963	156.91
344.428	156.06
344.893	155.91
345.357	161.96
345.822	166.01
346.286	167.11
346.751	162.26
347.215	173.21
347.679	176.31
348.144	186.11
348.608	188.26
349.073	190.26
349.537	195.56
350.001	189.31
350.465	192.06
350.93	191.36
351.394	195.91
351.858	195.06
352.322	198.71
352.786	196.31
353.25	199.86
353.715	204.56
354.179	214.31
354.643	221.61
355.107	221.71
355.571	218.06
356.035	211.56
356.498	213.76
356.962	209.11
357.426	212.16
357.89	205.46
358.354	205.76
358.818	202.11
359.281	208.41
359.745	209.26
360.209	209.61
360.673	208.01
361.136	206.71
361.6	214.16
362.064	218.11
362.527	219.61
362.991	219.26
363.454	214.66
363.918	224.81
364.381	231.51
364.845	222.21
365.308	224.01
365.772	227.66
366.235	225.61
366.698	223.26
367.162	226.11
367.625	234.61
368.088	234.66
368.552	230.21
369.015	231.36
369.478	234.66
369.941	237.46
370.404	242.16
370.867	241.46
371.331	244.56
371.794	245.76
372.257	249.31
372.72	244.41
373.183	246.51
373.646	246.46
374.109	247.46
374.572	246.56
375.035	254.26
375.497	253.51
375.96	261.31
376.423	260.46
376.886	265.41
377.349	266.61
377.811	270.81
378.274	273.16
378.737	266.16
379.199	270.56
379.662	273.91
380.125	275.41
380.587	286.41
381.05	284.61
381.512	282.71
381.975	292.36
382.437	301.36
382.9	301.26
383.362	297.51
383.825	300.36
384.287	305.41
384.75	306.06
385.212	307.11
385.674	307.71
386.136	312.96
386.599	311.91
387.061	303.36
387.523	315.51
387.985	313.46
388.447	318.56
388.91	320.46
389.372	320.76
389.834	319.51
390.296	310.46
390.758	319.91
391.22	313.61
391.682	311.96
392.144	316.21
392.606	324.16
393.068	328.51
393.529	351.21
393.991	358.56
394.453	337.21
394.915	328.06
395.377	318.41
395.838	317.51
396.3	323.41
396.762	328.46
397.224	330.01
397.685	330.46
398.147	331.06
398.608	341.91
399.07	345.36
399.531	339.96
399.993	350.26
400.454	355.31
400.916	355.71
401.377	368.16
401.839	363.06
402.3	360.96
402.762	382.46
403.223	415.41
403.684	410.71
404.145	388.41
404.607	378.86
405.068	363.96
405.529	368.71
405.99	371.91
406.451	380.46
406.913	371.06
407.374	378.76
407.835	376.71
408.296	382.36
408.757	386.16
409.218	400.11
409.679	404.61
410.14	409.31
410.601	416.76
411.062	427.81
411.522	432.26
411.983	435.91
412.444	437.86
412.905	456.41
413.366	471.01
413.826	499.91
414.287	578.86
414.748	702.41
415.208	708.76
415.669	590.46
416.13	526.06
416.59	519.21
417.051	539.11
417.511	567.21
417.972	618.96
418.432	668.31
418.893	752.91
419.353	717.11
419.814	531.41
420.274	470.86
420.734	465.86
421.195	475.51
421.655	471.46
422.115	487.61
422.576	480.21
423.036	483.71
423.496	502.21
423.956	520.56
424.416	555.31
424.876	623.96
425.336	620.41
425.797	609.26
426.257	595.06
426.717	539.26
427.177	489.26
427.637	483.86
428.097	493.76
428.556	506.86
429.016	547.86
429.476	529.66
429.936	510.41
430.396	495.16
430.856	504.21
431.315	508.21
431.775	545.61
432.235	599.21
432.694	615.81
433.154	564.81
433.614	550.96
434.073	531.91
434.533	496.26
434.993	483.96
435.452	491.91
435.912	493.11
436.371	498.06
436.83	502.56
437.29	498.36
437.749	490.61
438.209	492.66
438.668	505.01
439.127	514.76
439.587	514.51
440.046	512.76
440.505	523.86
440.964	527.76
441.424	542.86
441.883	553.71
442.342	532.26
442.801	510.76
443.26	517.96
443.719	518.16
444.178	516.61
444.637	529.06
445.096	535.16
445.555	535.41
446.014	540.96
446.473	526.51
446.932	532.66
447.391	537.06
447.849	554.61
448.308	545.91
448.767	546.76
449.226	560.91
449.685	569.01
450.143	596.31
450.602	583.86
451.061	553.76
451.519	555.96
451.978	546.16
452.436	544.56
452.895	548.96
453.353	550.36
453.812	537.46
454.27	550.96
454.729	551.61
455.187	554.46
455.646	552.61
456.104	557.46
456.562	564.46
457.021	572.41
457.479	544.01
457.937	558.21
458.395	586.96
458.854	576.26
459.312	568.91
459.77	572.06
460.228	579.91
460.686	587.21
461.144	593.81
461.602	579.21
462.06	575.66
462.518	597.36
462.976	593.51
463.434	600.06
463.892	598.76
464.35	615.71
464.808	621.06
465.266	628.56
465.724	636.81
466.181	631.51
466.639	638.01
467.097	657.46
467.555	684.16
468.012	675.76
468.47	678.11
468.928	701.06
469.385	714.91
469.843	723.41
470.3	715.76
470.758	735.21
471.215	746.41
471.673	758.36
472.13	773.11
472.588	792.66
473.045	789.66
473.503	799.06
473.96	825.66
474.417	821.46
474.875	854.01
475.332	876.61
475.789	882.66
476.246	892.21
476.704	915.71
477.161	925.91
477.618	917.46
478.075	944.01
478.532	970.36
478.989	990.76
479.446	1050.41
479.903	1026.21
480.36	1050.91
480.817	1048.26
481.274	1047.21
481.731	1088.46
482.188	1109.11
482.645	1136.96
483.102	1155.01
483.558	1183.06
484.015	1200.66
484.472	1200.56
484.929	1209.21
485.385	1207.91
485.842	1210.01
486.299	1226.76
486.755	1207.41
487.212	1192.21
487.668	1162.76
488.125	1162.86
488.582	1146.76
489.038	1157.86
489.494	1168.71
489.951	1164.51
490.407	1167.66
490.864	1171.96
491.32	1173.86
491.776	1177.96
492.233	1198.86
492.689	1192.96
493.145	1184.81
493.602	1176.46
494.058	1195.56
494.514	1204.76
494.97	1211.06
495.426	1218.01
495.882	1224.96
496.338	1238.21
496.794	1241.71
497.251	1239.81
497.707	1256.66
498.163	1257.21
498.618	1265.91
499.074	1263.71
499.53	1277.16
499.986	1285.86
500.442	1278.66
500.898	1267.41
501.354	1284.76
501.809	1292.76
502.265	1280.26
502.721	1296.66
503.177	1298.96
503.632	1314.96
504.088	1312.76
504.543	1331.71
504.999	1344.61
505.455	1336.96
505.91	1318.76
506.366	1320.46
506.821	1335.46
507.277	1326.36
507.732	1329.26
508.187	1322.46
508.643	1342.51
509.098	1347.06
509.553	1354.56
510.009	1368.36
510.464	1399.36
510.919	1409.51
511.375	1437.36
511.83	1442.36
512.285	1463.61
512.74	1487.16
513.195	1509.56
513.65	1540.06
514.105	1564.11
514.56	1566.81
515.015	1593.51
515.47	1600.36
515.925	1588.96
516.38	1591.96
516.835	1599.06
517.29	1585.51
517.745	1590.91
518.2	1549.51
518.655	1526.86
519.109	1506.36
519.564	1476.46
520.019	1470.46
520.474	1464.46
520.928	1457.11
521.383	1440.11
521.838	1431.81
522.292	1419.71
522.747	1416.76
523.201	1412.56
523.656	1395.71
524.11	1383.26
524.565	1374.36
525.019	1383.46
525.474	1376.16
525.928	1363.71
526.382	1373.06
526.837	1365.81
527.291	1372.36
527.745	1354.81
528.2	1359.71
528.654	1343.81
529.108	1349.81
529.562	1351.86
530.016	1346.01
530.47	1347.81
530.925	1342.46
531.379	1345.76
531.833	1356.61
532.287	1351.01
532.741	1349.81
533.195	1345.01
533.649	1349.11
534.103	1340.81
534.556	1337.81
535.01	1348.76
535.464	1337.26
535.918	1344.46
536.372	1353.66
536.826	1357.81
537.279	1340.86
537.733	1340.56
538.187	1346.31
538.64	1335.81
539.094	1358.71
539.548	1367.46
540.001	1375.86
540.455	1384.11
540.908	1388.66
541.362	1401.86
541.815	1409.61
542.269	1444.56
542.722	1434.01
543.175	1459.71
543.629	1465.46
544.082	1481.41
544.536	1496.81
544.989	1491.81
545.442	1513.51
545.895	1507.61
546.349	1512.01
546.802	1520.31
547.255	1517.06
547.708	1532.31
548.161	1540.11
548.614	1551.71
549.067	1551.76
549.52	1540.41
549.973	1509.56
550.426	1504.31
550.879	1511.41
551.332	1504.51
551.785	1512.16
552.238	1520.86
552.691	1527.31
553.144	1543.81
553.596	1577.61
554.049	1593.21
554.502	1646.91
554.955	1672.91
555.407	1686.36
555.86	1666.86
556.313	1645.56
556.765	1628.11
557.218	1600.96
557.67	1596.31
558.123	1575.71
558.576	1574.56
559.028	1574.66
559.48	1603.01
559.933	1582.36
560.385	1532.86
560.838	1461.91
561.29	1431.61
561.742	1418.86
562.195	1383.86
562.647	1381.11
563.099	1362.71
563.551	1364.31
564.004	1383.41
564.456	1377.51
564.908	1334.81
565.36	1306.16
565.812	1277.26
566.264	1262.16
566.716	1246.31
567.168	1221.86
567.62	1224.56
568.072	1221.26
568.524	1203.36
568.976	1204.56
569.428	1190.21
569.88	1196.51
570.332	1202.21
570.784	1208.91
571.235	1195.16
571.687	1212.16
572.139	1209.56
572.59	1223.26
573.042	1224.21
573.494	1230.01
573.945	1193.31
574.397	1178.01
574.849	1170.61
575.3	1174.46
575.752	1155.46
576.203	1144.06
576.655	1155.41
577.106	1133.91
577.557	1125.31
578.009	1118.21
578.46	1126.41
578.912	1116.01
579.363	1125.81
579.814	1122.06
580.265	1118.91
580.717	1129.31
581.168	1131.76
581.619	1135.31
582.07	1136.96
582.521	1133.86
582.972	1126.31
583.423	1129.66
583.875	1139.21
584.326	1138.81
584.777	1169.36
585.227	1187.06
585.678	1192.81
586.129	1205.51
586.58	1222.11
587.031	1252.21
587.482	1279.96
587.933	1297.86
588.384	1295.86
588.834	1282.46
589.285	1271.11
589.736	1292.01
590.186	1284.91
590.637	1275.66
591.088	1232.36
591.538	1210.01
591.989	1191.16
592.439	1182.26
592.89	1162.36
593.34	1156.16
593.791	1149.71
594.241	1137.51
594.692	1137.66
595.142	1142.26
595.593	1144.41
596.043	1148.81
596.493	1144.26
596.943	1148.91
597.394	1179.06
597.844	1197.86
598.294	1213.96
598.744	1280.51
599.195	1337.86
599.645	1423.46
600.095	1504.81
600.545	1583.41
600.995	1657.01
601.445	1722.01
601.895	1816.66
602.345	1873.56
602.795	1847.91
603.245	1764.11
603.695	1657.46
604.145	1547.11
604.594	1472.16
605.044	1382.51
605.494	1297.21
605.944	1219.26
606.393	1186.26
606.843	1164.71
607.293	1168.41
607.743	1151.06
608.192	1176.51
608.642	1178.86
609.091	1180.31
609.541	1177.11
609.99	1175.96
610.44	1143.06
610.889	1134.06
611.339	1114.36
611.788	1096.11
612.238	1101.41
612.687	1101.41
613.136	1104.76
613.586	1133.31
614.035	1124.51
614.484	1129.66
614.933	1132.51
615.383	1113.01
615.832	1091.91
616.281	1066.21
616.73	1045.96
617.179	1020.16
617.628	997.61
618.077	987.71
618.526	970.81
618.975	962.71
619.424	940.86
619.873	950.96
620.322	941.51
620.771	933.81
621.22	914.51
621.669	898.91
622.118	884.81
622.567	874.31
623.015	858.16
623.464	864.11
623.913	842.86
624.361	853.96
624.81	842.46
625.259	844.26
625.707	845.11
626.156	858.16
626.604	856.36
627.053	872.61
627.501	866.21
627.95	872.11
628.398	879.56
628.847	874.76
629.295	872.71
629.744	863.96
630.192	838.61
630.64	831.96
631.089	808.41
631.537	784.16
631.985	778.26
632.433	774.26
632.881	767.46
633.33	774.76
633.778	776.76
634.226	778.51
634.674	782.81
635.122	797.21
635.57	803.46
636.018	815.66
636.466	807.96
636.914	807.61
637.362	824.96
637.81	842.06
638.258	868.86
638.705	873.91
639.153	900.76
639.601	911.81
640.049	931.46
640.497	951.41
640.944	987.01
641.392	926.16
641.84	852.86
642.287	804.71
642.735	776.96
643.182	759.31
643.63	748.56
644.078	737.11
644.525	749.16
644.973	747.41
645.42	747.71
645.867	758.06
646.315	749.36
646.762	761.06
647.21	750.56
647.657	755.91
648.104	752.71
648.551	722.11
648.999	717.91
649.446	712.71
649.893	711.36
650.34	719.41
650.787	736.61
651.234	765.51
651.682	829.26
652.129	900.21
652.576	1042.01
653.023	1199.06
653.47	1298.56
653.917	1352.26
654.363	1390.66
654.81	1455.21
655.257	1492.56
655.704	1179.31
656.151	912.41
656.598	805.56
657.044	737.71
657.491	725.31
657.938	703.71
658.385	698.86
658.831	693.16
659.278	681.41
659.724	679.16
660.171	671.61
660.618	653.76
661.064	636.31
661.511	644.16
661.957	646.11
662.404	650.11
662.85	657.66
663.296	666.06
663.743	664.46
664.189	663.81
664.635	663.56
665.082	659.06
665.528	660.51
665.974	648.76
666.42	636.76
666.867	638.26
667.313	605.86
667.759	605.56
668.205	605.01
668.651	603.21
669.097	607.16
669.543	609.41
669.989	618.41
670.435	622.81
670.881	631.31
671.327	664.61
671.773	710.61
672.219	773.91
672.665	831.66
673.11	869.81
673.556	893.96
674.002	920.06
674.448	947.51
674.893	796.56
675.339	679.56
675.785	623.46
676.23	587.16
676.676	565.91
677.122	551.96
677.567	539.01
678.013	517.86
678.458	518.06
678.904	515.36
679.349	507.41
679.794	505.51
680.24	506.36
680.685	494.11
681.131	503.91
681.576	503.86
682.021	507.16
682.466	510.36
682.912	516.01
683.357	544.61
683.802	596.41
684.247	662.11
684.692	712.11
685.137	743.01
685.583	760.21
686.028	818.36
686.473	768.41
686.918	657.41
687.363	584.01
687.807	551.51
688.252	527.31
688.697	508.91
689.142	489.81
689.587	497.11
690.032	502.96
690.477	527.06
690.921	550.31
691.366	583.86
691.811	610.91
692.255	665.61
692.7	811.96
693.145	1170.36
693.589	1818.96
694.034	2211.76
694.478	2386.01
694.923	2233.46
695.367	3229.86
695.812	1929.71
696.256	774.66
696.701	549.21
697.145	507.06
697.59	487.56
698.034	481.91
698.478	477.51
698.922	479.41
699.367	498.81
699.811	512.21
700.255	566.41
700.699	634.51
701.143	685.81
701.588	733.51
702.032	765.76
702.476	792.86
702.92	822.46
703.364	1078.46
703.808	1668.56
704.252	2110.51
704.696	2287.11
705.14	2196.46
705.584	3074.06
706.027	1668.96
706.471	810.01
706.915	582.81
707.359	517.91
707.803	489.31
708.246	460.46
708.69	464.16
709.134	455.71
709.577	452.96
710.021	461.96
710.465	455.71
710.908	451.26
711.352	470.96
711.795	520.81
712.239	565.31
712.682	577.66
713.126	571.21
713.569	653.31
714.012	529.21
714.456	451.56
714.899	423.91
715.342	402.01
715.786	388.86
716.229	379.71
716.672	363.41
717.115	365.96
717.558	373.81
718.002	383.11
718.445	405.51
718.888	431.31
719.331	432.41
719.774	442.96
720.217	443.21
720.66	410.81
721.103	386.26
721.546	362.11
721.989	354.26
722.432	348.61
722.874	349.06
723.317	359.31
723.76	387.66
724.203	474.46
724.645	647.11
725.088	778.91
725.531	768.06
725.974	863.01
726.416	764.71
726.859	452.21
727.301	373.56
727.744	349.26
728.187	347.81
728.629	357.81
729.071	377.91
729.514	403.11
729.956	417.61
730.399	424.11
730.841	423.21
731.283	412.31
731.726	401.36
732.168	399.71
732.61	429.06
733.053	456.91
733.495	515.26
733.937	576.66
734.379	681.21
734.821	871.81
735.263	1371.81
735.705	2476.56
736.148	3716.91
736.59	3815.26
737.032	4244.66
737.474	3478.86
737.916	1296.31
738.357	664.61
738.799	501.71
739.241	462.46
739.683	456.06
740.125	469.61
740.567	474.26
741.008	512.86
741.45	527.26
741.892	556.36
742.334	561.61
742.775	555.36
743.217	536.26
743.658	445.81
744.1	453.16
744.542	521.01
744.983	543.11
745.425	567.36
745.866	557.61
746.307	469.76
746.749	505.46
747.19	729.56
747.632	1452.21
748.073	2724.31
748.514	3835.86
748.956	5233.01
749.397	6176.86
749.838	4251.56
750.279	4130.41
750.72	2072.86
751.162	855.91
751.603	472.96
752.044	375.86
752.485	334.11
752.926	315.51
753.367	302.01
753.808	293.71
754.249	286.06
754.69	287.31
755.131	280.41
755.572	280.06
756.013	278.61
756.453	276.26
756.894	282.71
757.335	279.61
757.776	289.51
758.216	304.01
758.657	323.51
759.098	348.76
759.538	428.81
759.979	620.51
760.42	1254.91
760.86	3227.01
761.301	6903.66
761.741	8399.21
762.182	10006.36
762.622	6345.81
763.063	2200.61
763.503	878.21
763.943	508.16
764.384	395.96
764.824	340.86
765.264	312.36
765.705	301.31
766.145	277.36
766.585	273.21
767.025	257.46
767.465	265.31
767.906	265.46
768.346	281.46
768.786	329.36
769.226	483.81
769.666	1000.31
770.106	2267.16
770.546	3338.06
770.986	3904.41
771.426	2965.61
771.866	1197.46
772.306	519.31
772.745	317.76
773.185	262.46
773.625	257.31
774.065	264.16
774.505	371.76
774.944	646.01
775.384	943.21
775.824	1091.06
776.263	917.36
776.703	474.86
777.142	275.61
777.582	208.61
778.021	197.36
778.461	179.91
778.9	188.66
779.34	179.71
779.779	177.26
780.219	167.46
780.658	164.91
781.097	166.81
781.537	158.71
781.976	158.91
782.415	158.36
782.855	161.61
783.294	157.51
783.733	153.76
784.172	161.86
784.611	160.36
785.05	165.86
785.489	170.06
785.928	177.46
786.367	180.26
786.806	192.56
787.245	210.11
787.684	212.21
788.123	210.16
788.562	204.06
789.001	197.76
789.44	189.81
789.879	189.51
790.317	192.21
790.756	200.66
791.195	228.76
791.634	321.46
792.072	568.81
792.511	1435.41
792.95	2722.31
793.388	3415.26
793.827	2231.71
794.265	980.06
794.704	457.81
795.142	276.26
795.581	224.86
796.019	208.01
796.458	203.21
796.896	207.96
797.334	243.11
797.773	327.76
798.211	639.56
798.649	1350.41
799.087	2308.91
799.526	3274.26
799.964	3449.51
800.402	2413.26
800.84	1056.31
801.278	498.21
801.716	304.56
802.154	237.46
802.592	227.66
803.03	227.21
803.468	232.31
803.906	235.76
804.344	227.61
804.782	219.51
805.22	222.21
805.658	234.26
806.096	245.16
806.533	272.01
806.971	353.11
807.409	517.31
807.847	1038.61
808.284	2667.96
808.722	4836.06
809.16	6816.81
809.597	9123.66
810.035	11726.66
810.472	7694.61
810.91	3136.41
811.347	1400.41
811.785	653.01
812.222	404.41
812.66	307.16
813.097	263.71
813.535	230.91
813.972	207.76
814.409	187.11
814.846	181.36
815.284	170.96
815.721	172.46
816.158	187.66
816.595	246.21
817.032	321.56
817.47	288.86
817.907	209.81
818.344	185.86
818.781	182.06
819.218	218.96
819.655	329.36
820.092	433.06
820.529	396.01
820.966	308.36
821.403	211.76
821.839	185.16
822.276	206.51
822.713	243.11
823.15	230.26
823.587	240.16
824.023	434.06
824.46	1116.96
824.897	2030.41
825.333	1615.16
825.77	707.96
826.206	362.36
826.643	204.56
827.08	153.91
827.516	134.71
827.953	123.61
828.389	122.16
828.825	112.01
829.262	111.36
829.698	107.56
830.135	96.01
830.571	96.11
831.007	104.76
831.443	102.36
831.88	104.16
832.316	103.16
832.752	103.36
833.188	111.41
833.624	104.41
834.06	109.26
834.497	109.41
834.933	111.91
835.369	121.06
835.805	132.41
836.241	133.41
836.677	152.31
837.112	173.16
837.548	215.76
837.984	323.56
838.42	683.66
838.856	1948.41
839.292	4006.41
839.727	3000.36
840.163	1932.81
840.599	2928.96
841.034	4694.96
841.47	2354.66
841.906	1104.11
842.341	575.11
842.777	404.91
843.212	411.51
843.648	258.46
844.083	180.71
844.519	133.56
844.954	114.66
845.39	100.71
845.825	96.86
846.261	93.31
846.696	91.81
847.131	83.46
847.566	89.41
848.002	91.51
848.437	93.11
848.872	99.96
849.307	128.26
849.742	234.91
850.177	631.46
850.613	1415.36
851.048	1037.26
851.483	460.81
851.918	247.71
852.353	136.56
852.788	92.46
853.223	86.46
853.657	77.31
854.092	73.81
854.527	72.61
854.962	76.81
855.397	80.56
855.832	76.51
856.266	67.46
856.701	63.06
857.136	65.11
857.57	84.41
858.005	101.96
858.44	84.76
858.874	79.76
859.309	80.91
859.743	80.96
860.178	78.81
860.612	86.96
861.047	116.76
861.481	164.31
861.915	109.56
862.35	84.11
862.784	66.06
863.218	62.31
863.653	71.11
864.087	87.66
864.521	111.76
864.955	180.86
865.39	334.06
865.824	241.71
866.258	293.21
866.692	448.81
867.126	326.81
867.56	176.01
867.994	106.11
868.428	92.11
868.862	120.51
869.296	102.36
869.73	130.76
870.164	111.21
870.598	102.16
871.031	74.16
871.465	59.21
871.899	53.81
872.333	44.11
872.766	42.81
873.2	47.96
873.634	42.31
874.067	51.41
874.501	50.51
874.935	53.26
875.368	51.06
875.802	42.31
876.235	37.41
876.669	38.31
877.102	33.81
877.535	38.96
877.969	35.96
878.402	39.06
878.836	37.91
879.269	36.81
879.702	35.06
880.135	36.21
880.569	35.81
881.002	35.46
881.435	37.86
881.868	32.51
882.301	32.66
882.734	34.26
883.167	37.96
883.601	34.76
884.034	34.86
884.467	33.51
884.899	31.56
885.332	27.11
885.765	29.86
886.198	29.46
886.631	28.96
887.064	27.91
887.497	26.81
887.929	29.41
888.362	30.56
888.795	25.56
889.228	35.56
889.66	28.36
890.093	30.61
890.526	25.21
890.958	28.31
891.391	29.46
891.823	25.31
892.256	30.56
892.688	26.71
893.121	26.06
893.553	28.36
893.985	24.21
894.418	25.11
894.85	31.11
895.282	28.31
895.715	26.41
896.147	23.31
896.579	21.26
897.011	29.51
897.444	27.11
897.876	19.81
898.308	21.16
898.74	23.06
899.172	28.46
899.604	26.61
900.036	27.01
900.468	19.66
900.9	29.11
901.332	35.96
901.764	34.16
902.196	37.66
902.628	33.96
903.06	53.16
903.491	55.96
903.923	42.96
904.355	42.61
904.787	47.96
905.218	37.51
905.65	36.21
906.082	31.46
906.513	34.21
906.945	35.51
907.376	34.76
907.808	34.66
908.239	31.41
908.671	37.01
909.102	45.66
909.534	64.56
909.965	123.11
910.397	315.91
910.828	959.96
911.259	588.51
911.691	305.11
912.122	177.86
912.553	88.36
912.984	48.71
913.415	41.21
913.847	35.46
914.278	36.21
914.709	28.51
915.14	27.36
915.571	29.96
916.002	27.71
916.433	26.51
916.864	25.31
917.295	30.66
917.726	32.96
918.157	50.46
918.587	42.46
919.018	36.31
919.449	35.61
919.88	42.31
920.311	68.21
920.741	197.51
921.172	358.16
921.603	173.21
922.033	108.61
922.464	68.81
922.895	39.96
923.325	33.11
923.756	25.31
924.186	33.61
924.617	51.06
925.047	69.56
925.478	61.71
925.908	44.01
926.338	31.31
926.769	32.21
927.199	26.81
927.629	26.71
928.06	30.41
928.49	27.36
928.92	23.41
929.35	20.41
929.78	19.86
930.21	16.16
930.641	14.46
931.071	15.46
931.501	12.36
931.931	10.41
932.361	13.36
932.791	20.81
933.221	17.76
933.651	26.11
934.08	48.26
934.51	24.46
934.94	25.81
935.37	17.01
935.8	9.71
936.229	11.36
936.659	13.96
937.089	24.61
937.519	35.96
937.948	51.96
938.378	29.16
938.807	11.46
939.237	11.86
939.666	12.96
940.096	9.31
940.525	3.56
940.955	10.86
941.384	6.11
941.814	6.71
942.243	8.91
942.672	4.81
943.102	1.21
943.531	2.66
943.96	3.01
944.39	1.31
944.819	11.96
945.248	6.36
945.677	3.96
946.106	6.76
946.535	9.46
946.964	7.36
947.393	4.26
947.822	5.96
948.251	11.36
948.68	6.21
949.109	6.06
949.538	6.21
949.967	2.31
950.396	4.46
950.825	6.91
951.254	3.26
951.682	-0.29
952.111	2.06
952.54	-0.59
952.969	2.01
953.397	1.21
953.826	0.61
954.254	6.76
954.683	7.96
955.112	6.56
955.54	4.61
955.969	3.01
956.397	6.11
956.826	3.26
957.254	2.41
957.682	5.36
958.111	2.86
958.539	8.46
958.967	3.76
959.396	4.31
959.824	4.66
960.252	5.91
960.68	3.36
961.109	3.06
961.537	9.56
961.965	0.51
962.393	4.16
962.821	7.26
963.249	3.76
963.677	9.61
964.105	57.76
964.533	108.91
964.961	48.21
965.389	24.56
965.817	13.46
966.245	8.46
966.672	2.91
967.1	5.16
967.528	0.56
967.956	5.31
968.383	4.16
968.811	0.56
969.239	2.16
969.666	4.56
970.094	0.41
970.522	0.06
970.949	2.11
971.377	-1.94
971.804	-1.74
972.232	-0.19
972.659	1.26
973.087	8.16
973.514	-0.44
973.941	-0.54
974.369	1.46
974.796	-0.89
975.223	2.06
975.651	3.86
976.078	6.11
976.505	7.56
976.932	26.71
977.359	27.96
977.786	14.86
978.214	10.61
978.641	4.36
979.068	6.01
979.495	1.21
979.922	1.76
980.349	3.61
980.776	3.01
981.202	4.46
981.629	9.41
982.056	2.51
982.483	-3.84
982.91	0.31
983.337	-0.34
983.763	1.96
984.19	3.31
984.617	0.26
985.043	2.71
985.47	1.56
985.897	-1.14
986.323	6.91
986.75	3.16
987.176	0.21
987.603	5.01
988.029	2.91
988.456	5.76
988.882	0.11
989.308	0.56
989.735	0.21
990.161	0.41
990.587	4.81
991.014	2.11
991.44	3.96
991.866	1.01
992.292	2.81
992.719	1.81
993.145	6.06
993.571	5.01
993.997	7.61
994.423	2.66
994.849	-4.19
995.275	2.96
995.701	3.36
996.127	-2.59
996.553	-1.04
996.979	-1.54
997.405	7.86
997.83	2.11
998.256	4.81
998.682	2.06
999.108	4.71
999.534	-6.44
999.959	2.51
1000.385	3.91
1000.811	-5.19
1001.236	-1.49
1001.662	2.51
1002.087	4.31
1002.513	0.86
1002.938	1.66
1003.364	3.16
1003.789	6.76
1004.215	2.76
1004.64	-1.49
1005.066	3.56
1005.491	4.01
1005.916	-0.04
1006.342	2.76
1006.767	0.21
1007.192	2.56
1007.617	3.41
1008.042	0.81
1008.468	1.06
1008.893	3.71
1009.318	2.26
1009.743	9.96
1010.168	19.46
1010.593	14.56
1011.018	2.26
1011.443	3.81
1011.868	6.01
1012.293	4.26
1012.718	0.56
1013.143	1.71
1013.567	3.41
1013.992	6.51
1014.417	3.56
1014.842	1.96
1015.267	2.76
1015.691	2.71
1016.116	1.31
1016.541	3.46
1016.965	4.01
1017.39	3.36
1017.814	-1.14
1018.239	-3.49
1018.663	-3.04
1019.088	-0.69
1019.512	6.21
1019.937	-5.54
1020.361	3.36
1020.785	-3.04
1021.21	-6.19
1021.634	0.01
1022.058	1.96
1022.483	0.61
1022.907	-0.54
1023.331	5.06
1023.755	-3.44
1024.179	-0.94
1024.604	2.11
1025.028	2.81
1025.452	3.76
1025.876	3.51
1026.3	2.81
1026.724	-4.14
1027.148	0.96
1027.572	-1.09
1027.996	4.61
1028.42	0.41
1028.843	-0.09
1029.267	-3.34
1029.691	0.41
1030.115	-0.04
1030.539	1.21
1030.962	-0.39
1031.386	0.26
1031.81	1.71
1032.233	-1.54
1032.657	-5.19
1033.08	-1.19
1033.504	1.61
1033.927	-3.94
1034.351	-1.49
1034.774	-4.24
1035.198	-6.34
1035.621	1.11
1036.045	0.61
1036.468	3.46
1036.891	-0.14
1037.315	3.21
1037.738	2.06
1038.161	-1.04
1038.584	-1.24
1039.008	-2.74
1039.431	-2.29
1039.854	-1.19
1040.277	3.41
1040.7	-0.94
1041.123	-1.49
1041.546	-1.49
1041.969	3.76
1042.392	0.66
1042.815	-3.69
1043.238	-2.49
1043.661	-3.64
1044.084	-1.89
1044.507	-0.19
1044.93	-0.99
1045.352	1.26
1045.775	-1.69
1046.198	6.21
1046.621	6.91
1047.043	-2.74
1047.466	0.41
1047.889	-2.49
1048.311	4.41
1048.734	-1.59
1049.156	-2.29
1049.579	-3.49
1050.001	-1.54
1050.424	-2.69
1050.846	-2.39
1051.269	-3.84
1051.691	-3.79
1052.113	0.31
1052.536	-2.24
1052.958	-3.39
1053.38	3.66
1053.802	-2.34
1054.225	-0.44
1054.647	2.56
1055.069	-0.24
1055.491	0.46
1055.913	3.86
1056.335	-8.09
1056.757	-3.89
1057.179	-1.54
1057.601	-1.54
1058.023	-0.59
1058.445	-1.29
1058.867	-0.99
1059.289	-0.79
1059.711	-2.84
1060.133	-1.89
1060.555	-2.69
1060.976	-0.24
1061.398	-1.04
1061.82	-1.39
1062.241	-1.24
1062.663	-1.34
1063.085	-5.84
1063.506	-5.14
1063.928	-2.34
1064.35	2.61
1064.771	4.26
1065.193	-2.09
1065.614	-3.34
1066.035	2.66
1066.457	5.61
1066.878	0.86
1067.3	-0.89
1067.721	-3.19
1068.142	-1.04
1068.564	5.36
1068.985	-0.89
1069.406	-2.44
1069.827	2.11
1070.248	1.16
1070.67	-4.49
1071.091	-5.44
1071.512	-3.84
1071.933	-4.04
1072.354	-4.39
1072.775	-3.34
1073.196	-3.34
1073.617	-3.94
1074.038	0.01
1074.459	0.46
1074.88	-0.89
1075.3	-3.14
1075.721	-0.59
1076.142	-4.39
1076.563	-7.84
1076.983	2.01
1077.404	-8.54
1077.825	1.06
1078.246	-5.89
1078.666	-4.24
1079.087	-3.59
1079.507	-3.34
1079.928	-2.64
1080.348	-3.24
1080.769	-2.29
1081.189	-0.49
1081.61	-7.69
1082.03	-1.19
1082.451	-6.59
1082.871	-4.74
1083.291	-2.49
1083.711	-2.34
1084.132	0.61
1084.552	-3.34
1084.972	-7.09
1085.392	-6.29
1085.813	-5.04
1086.233	-0.74
1086.653	3.06
1087.073	-2.64
1087.493	-4.19
1087.913	-6.64
1088.333	1.91
1088.753	-2.14
1089.173	3.11
1089.593	-1.04
1090.013	-2.04
1090.433	-4.34
1090.852	1.86
1091.272	-5.14
1091.692	-1.19
1092.112	-6.39
1092.531	-4.99
1092.951	-0.84
1093.371	-3.94
1093.79	-4.34
1094.21	-1.14
1094.63	-3.89
1095.049	-3.34
1095.469	-6.99
1095.888	-1.94
1096.308	-0.64
1096.727	-2.39
1097.146	-3.19
1097.566	0.41
1097.985	-0.14
1098.405	-2.89
1098.824	1.51
1099.243	-0.09
1099.662	-5.29
1100.082	-2.34
1100.501	1.26
1100.92	-0.09
1101.339	-0.19
1101.758	4.96
