Data from MSPlasma+Separation6_Subt14_10-13-03-176.txt Node
Date: Fri Jul 21 10:13:03 EDT 2017
User: Ender
Spectrometer: HR+D1039
Trigger mode: 0
Integration Time (sec): 6.430000E-3
Scans to average: 20
Electric dark correction enabled: true
Nonlinearity correction enabled: false
Boxcar width: 0
XAxis mode: Wavelengths
Number of Pixels in Spectrum: 2048
>>>>>Begin Spectral Data<<<<<
187.836	-2.84
188.309	-2.84
188.782	-2.84
189.255	1.16
189.728	2.56
190.201	-3.49
190.674	-2.09
191.147	-1.14
191.619	-0.29
192.092	1.31
192.565	-3.74
193.038	3.21
193.511	3.66
193.984	0.01
194.456	3.16
194.929	-0.34
195.402	-3.84
195.874	2.71
196.347	0.21
196.82	2.01
197.292	-1.44
197.765	-2.89
198.237	-5.29
198.71	0.01
199.182	-0.34
199.655	0.56
200.127	0.41
200.6	-1.94
201.072	-0.29
201.544	1.81
202.017	1.56
202.489	3.16
202.961	0.76
203.433	-2.44
203.906	0.36
204.378	0.81
204.85	1.11
205.322	-2.19
205.794	0.06
206.266	-0.79
206.739	3.46
207.211	-0.09
207.683	-3.39
208.155	-3.94
208.627	-2.14
209.099	-0.04
209.57	2.71
210.042	1.76
210.514	0.16
210.986	-0.14
211.458	-3.74
211.93	-0.09
212.402	-0.24
212.873	-2.89
213.345	-1.04
213.817	2.61
214.288	1.86
214.76	4.11
215.232	-2.29
215.703	-2.39
216.175	-1.99
216.646	6.76
217.118	0.91
217.589	-2.34
218.061	-0.09
218.532	-2.19
219.004	-0.39
219.475	-2.84
219.946	4.46
220.418	4.11
220.889	3.01
221.36	6.86
221.832	4.01
222.303	-0.64
222.774	1.11
223.245	4.36
223.717	-3.69
224.188	-0.24
224.659	-2.19
225.13	2.26
225.601	2.41
226.072	1.46
226.543	6.46
227.014	3.81
227.485	3.91
227.956	7.96
228.427	4.66
228.898	2.61
229.369	4.36
229.839	7.11
230.31	5.46
230.781	11.56
231.252	5.81
231.722	8.91
232.193	6.51
232.664	5.31
233.135	5.71
233.605	5.96
234.076	8.81
234.546	9.26
235.017	4.56
235.487	7.71
235.958	7.01
236.428	10.16
236.899	5.96
237.369	17.96
237.84	5.81
238.31	9.21
238.78	7.46
239.251	5.46
239.721	6.56
240.191	5.96
240.662	9.56
241.132	6.36
241.602	8.41
242.072	10.56
242.542	7.56
243.013	10.71
243.483	15.46
243.953	8.91
244.423	12.26
244.893	11.66
245.363	14.26
245.833	12.61
246.303	12.11
246.773	15.36
247.243	13.66
247.712	16.36
248.182	17.71
248.652	16.41
249.122	17.16
249.592	18.81
250.061	16.96
250.531	14.41
251.001	17.06
251.471	15.66
251.94	18.91
252.41	17.56
252.879	19.51
253.349	21.51
253.818	16.11
254.288	23.41
254.757	22.11
255.227	20.26
255.696	20.76
256.166	22.16
256.635	24.81
257.105	22.11
257.574	20.76
258.043	20.71
258.513	24.46
258.982	21.26
259.451	24.86
259.92	22.81
260.389	27.01
260.859	22.16
261.328	23.11
261.797	24.21
262.266	31.71
262.735	29.76
263.204	24.06
263.673	29.41
264.142	22.76
264.611	24.76
265.08	26.96
265.549	24.41
266.018	26.36
266.487	28.36
266.955	26.01
267.424	32.21
267.893	39.01
268.362	29.26
268.83	29.46
269.299	31.91
269.768	36.61
270.236	35.11
270.705	32.76
271.174	35.06
271.642	30.81
272.111	36.81
272.579	29.91
273.048	31.61
273.516	34.86
273.985	35.51
274.453	38.76
274.922	30.91
275.39	33.16
275.858	39.01
276.327	39.41
276.795	36.06
277.263	38.91
277.731	41.51
278.2	38.96
278.668	40.76
279.136	46.21
279.604	42.11
280.072	39.46
280.54	46.61
281.008	43.71
281.477	43.46
281.945	38.41
282.413	45.76
282.881	43.51
283.348	45.11
283.816	50.96
284.284	43.41
284.752	48.36
285.22	49.01
285.688	45.11
286.156	47.86
286.623	50.66
287.091	52.81
287.559	54.06
288.026	56.61
288.494	53.36
288.962	53.11
289.429	50.46
289.897	54.71
290.364	51.86
290.832	51.06
291.3	56.41
291.767	57.31
292.234	53.26
292.702	54.96
293.169	57.16
293.637	56.31
294.104	61.01
294.571	58.51
295.039	57.46
295.506	54.91
295.973	62.46
296.44	58.91
296.908	63.56
297.375	64.61
297.842	63.01
298.309	62.96
298.776	63.06
299.243	64.16
299.71	65.51
300.177	66.11
300.644	70.66
301.111	64.96
301.578	67.41
302.045	69.16
302.512	65.86
302.979	71.66
303.446	74.66
303.913	71.81
304.379	73.76
304.846	79.11
305.313	83.61
305.78	82.96
306.246	80.71
306.713	77.56
307.18	82.36
307.646	81.36
308.113	78.66
308.579	85.56
309.046	92.06
309.512	84.56
309.979	89.81
310.445	84.46
310.912	90.56
311.378	89.76
311.845	87.91
312.311	90.11
312.777	90.46
313.244	96.11
313.71	90.61
314.176	97.36
314.642	98.26
315.109	95.56
315.575	95.46
316.041	92.56
316.507	94.06
316.973	106.36
317.439	107.91
317.905	101.36
318.371	103.26
318.837	101.46
319.303	103.01
319.769	97.11
320.235	110.96
320.701	108.66
321.167	104.46
321.633	108.16
322.099	105.46
322.564	109.91
323.03	106.31
323.496	107.21
323.962	113.16
324.427	116.11
324.893	114.91
325.359	118.41
325.824	123.06
326.29	121.46
326.755	115.31
327.221	119.46
327.686	129.51
328.152	127.51
328.617	125.46
329.083	131.11
329.548	133.11
330.014	129.51
330.479	133.41
330.944	133.11
331.41	135.91
331.875	132.46
332.34	134.36
332.805	133.71
333.271	137.01
333.736	134.76
334.201	136.36
334.666	147.31
335.131	145.01
335.596	146.71
336.061	143.51
336.526	141.81
336.991	135.21
337.456	137.66
337.921	135.41
338.386	135.56
338.851	131.86
339.316	142.91
339.781	139.76
340.246	142.71
340.711	140.21
341.175	143.46
341.64	151.51
342.105	156.76
342.569	162.01
343.034	153.01
343.499	158.41
343.963	163.76
344.428	161.41
344.893	161.01
345.357	174.16
345.822	172.01
346.286	169.76
346.751	171.11
347.215	176.21
347.679	181.76
348.144	191.11
348.608	197.91
349.073	191.66
349.537	195.41
350.001	197.06
350.465	194.36
350.93	196.81
351.394	197.61
351.858	203.76
352.322	206.81
352.786	199.81
353.25	206.46
353.715	210.96
354.179	224.51
354.643	224.86
355.107	225.16
355.571	219.41
356.035	219.36
356.498	220.61
356.962	215.71
357.426	208.86
357.89	207.11
358.354	212.01
358.818	213.86
359.281	214.06
359.745	213.46
360.209	212.11
360.673	216.71
361.136	213.26
361.6	212.66
362.064	223.06
362.527	227.41
362.991	230.86
363.454	220.46
363.918	229.31
364.381	230.21
364.845	230.06
365.308	227.11
365.772	236.81
366.235	233.06
366.698	232.56
367.162	228.06
367.625	231.66
368.088	238.71
368.552	234.26
369.015	235.86
369.478	243.61
369.941	237.86
370.404	246.11
370.867	242.71
371.331	249.01
371.794	251.71
372.257	249.06
372.72	253.46
373.183	264.11
373.646	255.91
374.109	252.01
374.572	255.76
375.035	262.76
375.497	263.46
375.96	261.21
376.423	276.71
376.886	274.76
377.349	278.46
377.811	275.86
378.274	280.61
378.737	275.21
379.199	279.96
379.662	284.06
380.125	283.56
380.587	285.66
381.05	293.96
381.512	293.91
381.975	296.71
382.437	311.16
382.9	306.31
383.362	308.06
383.825	304.11
384.287	309.91
384.75	309.31
385.212	311.81
385.674	317.91
386.136	319.76
386.599	320.56
387.061	318.71
387.523	320.66
387.985	323.41
388.447	326.06
388.91	322.06
389.372	325.06
389.834	326.61
390.296	322.61
390.758	325.46
391.22	324.01
391.682	323.91
392.144	327.56
392.606	325.31
393.068	348.01
393.529	363.71
393.991	369.06
394.453	351.16
394.915	338.41
395.377	325.46
395.838	333.91
396.3	334.76
396.762	341.36
397.224	342.06
397.685	340.66
398.147	342.56
398.608	345.56
399.07	349.66
399.531	355.31
399.993	363.41
400.454	361.81
400.916	366.36
401.377	368.56
401.839	375.81
402.3	377.21
402.762	395.96
403.223	421.56
403.684	419.91
404.145	397.76
404.607	390.31
405.068	374.01
405.529	375.06
405.99	382.61
406.451	388.66
406.913	382.76
407.374	389.36
407.835	379.71
408.296	391.16
408.757	392.21
409.218	410.46
409.679	418.91
410.14	421.31
410.601	428.81
411.062	435.46
411.522	443.06
411.983	442.91
412.444	453.91
412.905	464.31
413.366	485.26
413.826	510.06
414.287	586.46
414.748	719.36
415.208	730.81
415.669	600.51
416.13	533.16
416.59	530.71
417.051	552.41
417.511	577.56
417.972	634.06
418.432	695.01
418.893	774.21
419.353	738.81
419.814	550.06
420.274	481.26
420.734	471.86
421.195	481.06
421.655	488.71
422.115	499.36
422.576	489.71
423.036	487.31
423.496	506.11
423.956	534.01
424.416	568.61
424.876	644.21
425.336	637.21
425.797	622.76
426.257	600.16
426.717	554.21
427.177	496.91
427.637	494.41
428.097	505.01
428.556	518.66
429.016	553.46
429.476	551.01
429.936	510.81
430.396	502.01
430.856	508.86
431.315	519.16
431.775	559.96
432.235	617.41
432.694	628.61
433.154	578.66
433.614	561.31
434.073	548.56
434.533	497.41
434.993	493.66
435.452	504.31
435.912	503.96
436.371	513.81
436.83	514.26
437.29	506.66
437.749	501.86
438.209	507.11
438.668	521.46
439.127	532.36
439.587	531.06
440.046	521.71
440.505	534.06
440.964	536.26
441.424	557.86
441.883	571.81
442.342	544.81
442.801	530.71
443.26	532.56
443.719	528.26
444.178	530.26
444.637	542.76
445.096	538.31
445.555	545.51
446.014	549.11
446.473	545.01
446.932	551.16
447.391	554.51
447.849	565.36
448.308	561.21
448.767	562.91
449.226	569.66
449.685	575.86
450.143	604.41
450.602	603.61
451.061	576.26
451.519	574.61
451.978	558.06
452.436	560.51
452.895	566.91
453.353	556.31
453.812	553.01
454.27	560.91
454.729	563.51
455.187	565.66
455.646	565.66
456.104	569.96
456.562	578.66
457.021	585.36
457.479	556.81
457.937	585.81
458.395	597.61
458.854	590.16
459.312	579.96
459.77	586.41
460.228	594.41
460.686	604.11
461.144	603.16
461.602	592.86
462.06	593.96
462.518	612.56
462.976	606.91
463.434	614.76
463.892	617.06
464.35	629.01
464.808	635.61
465.266	650.31
465.724	653.76
466.181	651.96
466.639	648.61
467.097	677.86
467.555	693.21
468.012	694.31
468.47	699.36
468.928	716.86
469.385	737.16
469.843	741.26
470.3	735.96
470.758	758.21
471.215	759.41
471.673	772.51
472.13	794.01
472.588	808.46
473.045	805.01
473.503	814.41
473.96	847.66
474.417	852.41
474.875	879.66
475.332	899.51
475.789	902.41
476.246	913.46
476.704	948.56
477.161	946.26
477.618	944.01
478.075	968.41
478.532	992.71
478.989	1033.11
479.446	1067.96
479.903	1064.76
480.36	1081.96
480.817	1073.41
481.274	1079.56
481.731	1126.31
482.188	1137.96
482.645	1164.16
483.102	1175.01
483.558	1206.61
484.015	1228.91
484.472	1231.31
484.929	1248.16
485.385	1238.46
485.842	1242.91
486.299	1255.66
486.755	1249.26
487.212	1228.81
487.668	1194.16
488.125	1188.91
488.582	1173.36
489.038	1189.96
489.494	1196.56
489.951	1202.81
490.407	1207.11
490.864	1207.86
491.32	1201.56
491.776	1213.31
492.233	1221.51
492.689	1228.61
493.145	1210.11
493.602	1197.66
494.058	1224.31
494.514	1232.61
494.97	1232.66
495.426	1260.56
495.882	1262.01
496.338	1259.91
496.794	1286.91
497.251	1271.91
497.707	1288.96
498.163	1296.66
498.618	1304.86
499.074	1307.26
499.53	1318.11
499.986	1327.06
500.442	1308.31
500.898	1301.86
501.354	1314.41
501.809	1328.06
502.265	1330.81
502.721	1332.26
503.177	1341.21
503.632	1346.91
504.088	1357.96
504.543	1371.66
504.999	1370.56
505.455	1381.86
505.91	1367.56
506.366	1363.41
506.821	1369.36
507.277	1370.06
507.732	1376.46
508.187	1368.56
508.643	1371.66
509.098	1380.41
509.553	1392.96
510.009	1409.11
510.464	1441.91
510.919	1450.91
511.375	1466.11
511.83	1482.41
512.285	1503.71
512.74	1539.11
513.195	1559.76
513.65	1587.91
514.105	1615.11
514.56	1609.91
515.015	1653.71
515.47	1655.51
515.925	1634.21
516.38	1639.51
516.835	1649.81
517.29	1632.56
517.745	1633.46
518.2	1610.56
518.655	1565.36
519.109	1548.66
519.564	1526.76
520.019	1517.16
520.474	1498.56
520.928	1490.66
521.383	1474.61
521.838	1475.46
522.292	1467.96
522.747	1454.81
523.201	1456.26
523.656	1421.66
524.11	1438.11
524.565	1421.91
525.019	1420.26
525.474	1414.11
525.928	1406.81
526.382	1408.46
526.837	1409.26
527.291	1412.86
527.745	1404.81
528.2	1408.96
528.654	1386.71
529.108	1394.56
529.562	1394.56
530.016	1392.41
530.47	1394.96
530.925	1386.96
531.379	1382.56
531.833	1396.76
532.287	1401.21
532.741	1390.46
533.195	1388.81
533.649	1399.71
534.103	1394.96
534.556	1389.56
535.01	1398.76
535.464	1380.06
535.918	1390.01
536.372	1399.46
536.826	1385.91
537.279	1384.51
537.733	1389.66
538.187	1396.06
538.64	1384.91
539.094	1396.16
539.548	1415.71
540.001	1423.21
540.455	1428.41
540.908	1434.96
541.362	1450.91
541.815	1462.06
542.269	1483.51
542.722	1479.21
543.175	1497.71
543.629	1507.11
544.082	1530.31
544.536	1537.31
544.989	1555.41
545.442	1557.01
545.895	1553.86
546.349	1548.81
546.802	1561.71
547.255	1564.01
547.708	1580.46
548.161	1592.06
548.614	1601.01
549.067	1597.61
549.52	1588.86
549.973	1567.11
550.426	1561.56
550.879	1544.66
551.332	1539.71
551.785	1559.46
552.238	1564.61
552.691	1569.86
553.144	1596.51
553.596	1631.46
554.049	1648.26
554.502	1692.91
554.955	1728.66
555.407	1748.11
555.86	1722.06
556.313	1700.51
556.765	1681.31
557.218	1651.21
557.67	1646.06
558.123	1633.91
558.576	1623.86
559.028	1628.36
559.48	1643.56
559.933	1641.26
560.385	1579.01
560.838	1525.86
561.29	1479.61
561.742	1463.76
562.195	1444.06
562.647	1430.91
563.099	1412.51
563.551	1409.76
564.004	1432.46
564.456	1410.96
564.908	1368.21
565.36	1348.06
565.812	1311.81
566.264	1306.06
566.716	1288.66
567.168	1271.11
567.62	1258.56
568.072	1265.86
568.524	1240.81
568.976	1238.81
569.428	1232.46
569.88	1226.36
570.332	1232.76
570.784	1239.16
571.235	1230.81
571.687	1248.36
572.139	1251.11
572.59	1258.81
573.042	1269.06
573.494	1266.21
573.945	1242.91
574.397	1216.76
574.849	1210.01
575.3	1219.31
575.752	1193.26
576.203	1192.06
576.655	1185.71
577.106	1169.61
577.557	1160.56
578.009	1160.96
578.46	1159.71
578.912	1151.26
579.363	1166.86
579.814	1154.76
580.265	1160.56
580.717	1162.06
581.168	1168.21
581.619	1157.61
582.07	1178.51
582.521	1175.16
582.972	1165.21
583.423	1164.91
583.875	1177.66
584.326	1190.01
584.777	1195.71
585.227	1215.91
585.678	1233.61
586.129	1249.61
586.58	1262.71
587.031	1279.61
587.482	1329.96
587.933	1344.51
588.384	1347.76
588.834	1326.26
589.285	1315.81
589.736	1323.91
590.186	1334.21
590.637	1313.16
591.088	1271.06
591.538	1253.86
591.989	1241.46
592.439	1217.71
592.89	1198.96
593.34	1199.41
593.791	1193.36
594.241	1184.56
594.692	1190.26
595.142	1165.21
595.593	1175.01
596.043	1176.66
596.493	1193.16
596.943	1187.16
597.394	1217.96
597.844	1234.71
598.294	1273.31
598.744	1312.31
599.195	1385.56
599.645	1465.46
600.095	1544.46
600.545	1633.91
600.995	1706.66
601.445	1778.61
601.895	1872.61
602.345	1946.21
602.795	1912.16
603.245	1820.61
603.695	1711.06
604.145	1614.16
604.594	1527.31
605.044	1442.66
605.494	1337.46
605.944	1263.41
606.393	1233.86
606.843	1211.11
607.293	1206.06
607.743	1198.26
608.192	1205.86
608.642	1211.11
609.091	1213.66
609.541	1212.11
609.99	1205.66
610.44	1180.36
610.889	1163.21
611.339	1149.76
611.788	1141.31
612.238	1140.91
612.687	1145.56
613.136	1144.51
613.586	1168.41
614.035	1161.91
614.484	1161.96
614.933	1166.81
615.383	1157.91
615.832	1114.91
616.281	1102.56
616.73	1075.56
617.179	1055.26
617.628	1032.36
618.077	1020.26
618.526	1004.91
618.975	991.56
619.424	973.46
619.873	978.86
620.322	972.76
620.771	973.31
621.22	950.86
621.669	929.06
622.118	920.26
622.567	915.51
623.015	896.91
623.464	892.46
623.913	866.76
624.361	879.31
624.81	874.26
625.259	878.91
625.707	871.66
626.156	885.16
626.604	892.26
627.053	895.91
627.501	894.06
627.95	903.71
628.398	913.91
628.847	903.31
629.295	898.11
629.744	893.16
630.192	875.06
630.64	855.76
631.089	843.86
631.537	815.16
631.985	803.31
632.433	799.96
632.881	789.96
633.33	797.26
633.778	803.21
634.226	808.96
634.674	813.46
635.122	820.56
635.57	834.81
636.018	848.26
636.466	847.81
636.914	831.56
637.362	848.81
637.81	866.41
638.258	896.71
638.705	899.61
639.153	930.11
639.601	936.26
640.049	958.81
640.497	988.16
640.944	1016.01
641.392	958.01
641.84	875.06
642.287	830.31
642.735	801.86
643.182	783.01
643.63	771.91
644.078	769.26
644.525	770.31
644.973	775.91
645.42	779.91
645.867	781.56
646.315	771.96
646.762	785.01
647.21	779.36
647.657	782.66
648.104	776.11
648.551	747.71
648.999	741.66
649.446	737.36
649.893	737.01
650.34	744.66
650.787	762.01
651.234	786.01
651.682	857.01
652.129	938.81
652.576	1059.71
653.023	1225.36
653.47	1322.56
653.917	1374.51
654.363	1410.61
654.81	1484.71
655.257	1524.61
655.704	1201.86
656.151	930.76
656.598	822.56
657.044	758.96
657.491	746.66
657.938	729.16
658.385	708.66
658.831	714.76
659.278	710.01
659.724	699.51
660.171	695.31
660.618	675.51
661.064	661.01
661.511	670.06
661.957	666.26
662.404	678.81
662.85	683.96
663.296	692.51
663.743	684.86
664.189	695.86
664.635	693.86
665.082	689.61
665.528	687.81
665.974	664.96
666.42	662.96
666.867	659.06
667.313	624.31
667.759	623.36
668.205	620.26
668.651	627.71
669.097	628.36
669.543	638.21
669.989	649.36
670.435	644.06
670.881	652.01
671.327	687.51
671.773	737.06
672.219	797.06
672.665	865.16
673.11	902.46
673.556	918.46
674.002	964.01
674.448	975.31
674.893	816.01
675.339	704.51
675.785	645.71
676.23	615.71
676.676	587.91
677.122	578.51
677.567	558.66
678.013	534.56
678.458	537.01
678.904	535.56
679.349	522.36
679.794	522.41
680.24	523.81
680.685	522.41
681.131	521.11
681.576	520.66
682.021	529.81
682.466	530.31
682.912	534.91
683.357	569.71
683.802	620.31
684.247	689.16
684.692	732.61
685.137	770.61
685.583	790.51
686.028	846.36
686.473	797.21
686.918	674.51
687.363	606.86
687.807	584.21
688.252	548.21
688.697	528.76
689.142	513.76
689.587	518.26
690.032	524.21
690.477	548.96
690.921	573.96
691.366	603.36
691.811	634.66
692.255	684.76
692.7	841.21
693.145	1214.06
693.589	1864.46
694.034	2264.81
694.478	2471.71
694.923	2309.71
695.367	3370.66
695.812	1996.36
696.256	803.16
696.701	571.41
697.145	527.91
697.59	500.36
698.034	496.41
698.478	495.01
698.922	498.46
699.367	509.96
699.811	537.51
700.255	588.71
700.699	646.26
701.143	707.81
701.588	754.81
702.032	794.36
702.476	814.51
702.92	850.41
703.364	1115.46
703.808	1712.76
704.252	2177.26
704.696	2363.76
705.14	2273.01
705.584	3206.06
706.027	1733.11
706.471	838.06
706.915	607.76
707.359	531.66
707.803	497.51
708.246	476.61
708.69	478.36
709.134	471.51
709.577	467.26
710.021	480.61
710.465	468.31
710.908	467.96
711.352	487.21
711.795	546.71
712.239	581.26
712.682	600.86
713.126	596.81
713.569	677.36
714.012	539.96
714.456	459.26
714.899	433.21
715.342	420.21
715.786	399.01
716.229	387.71
716.672	380.46
717.115	383.06
717.558	388.96
718.002	396.36
718.445	418.61
718.888	446.41
719.331	459.06
719.774	463.61
720.217	456.01
720.66	430.71
721.103	403.46
721.546	379.66
721.989	368.51
722.432	360.86
722.874	355.06
723.317	365.56
723.76	401.06
724.203	491.61
724.645	671.61
725.088	804.36
725.531	805.76
725.974	901.36
726.416	798.76
726.859	463.01
727.301	375.36
727.744	358.81
728.187	360.46
728.629	369.61
729.071	391.81
729.514	414.46
729.956	430.16
730.399	440.46
730.841	441.16
731.283	424.06
731.726	410.76
732.168	419.01
732.61	439.86
733.053	481.66
733.495	536.31
733.937	598.66
734.379	706.26
734.821	896.36
735.263	1423.51
735.705	2554.56
736.148	3845.66
736.59	3966.41
737.032	4433.66
737.474	3614.21
737.916	1341.26
738.357	680.06
738.799	518.21
739.241	477.66
739.683	475.01
740.125	488.96
740.567	490.86
741.008	527.26
741.45	548.66
741.892	571.66
742.334	584.36
742.775	577.06
743.217	552.46
743.658	463.71
744.1	468.26
744.542	535.91
744.983	557.86
745.425	591.36
745.866	575.16
746.307	479.26
746.749	515.51
747.19	757.16
747.632	1482.36
748.073	2812.71
748.514	3970.61
748.956	5427.06
749.397	6417.01
749.838	4387.81
750.279	4308.06
750.72	2163.76
751.162	879.61
751.603	495.11
752.044	393.51
752.485	351.51
752.926	323.51
753.367	312.91
753.808	297.86
754.249	294.51
754.69	295.26
755.131	287.81
755.572	286.96
756.013	287.26
756.453	290.66
756.894	291.91
757.335	298.41
757.776	297.71
758.216	310.06
758.657	334.16
759.098	366.71
759.538	442.36
759.979	644.66
760.42	1298.66
760.86	3320.86
761.301	7126.71
761.741	8713.51
762.182	10450.86
762.622	6611.41
763.063	2276.06
763.503	916.91
763.943	522.06
764.384	409.66
764.824	351.91
765.264	317.61
765.705	306.06
766.145	288.11
766.585	279.86
767.025	264.61
767.465	274.56
767.906	271.76
768.346	292.31
768.786	340.26
769.226	510.46
769.666	1029.06
770.106	2337.26
770.546	3451.81
770.986	4078.31
771.426	3088.31
771.866	1238.41
772.306	544.51
772.745	324.66
773.185	277.06
773.625	263.31
774.065	271.01
774.505	379.26
774.944	661.26
775.384	962.11
775.824	1127.56
776.263	941.96
776.703	493.31
777.142	279.31
777.582	218.61
778.021	201.81
778.461	187.06
778.9	191.06
779.34	188.11
779.779	176.76
780.219	177.21
780.658	171.81
781.097	170.46
781.537	163.51
781.976	167.06
782.415	170.06
782.855	162.31
783.294	167.01
783.733	159.51
784.172	165.71
784.611	164.61
785.05	173.26
785.489	179.66
785.928	179.41
786.367	188.71
786.806	196.01
787.245	215.01
787.684	222.81
788.123	217.16
788.562	209.66
789.001	198.96
789.44	196.31
789.879	193.61
790.317	195.91
790.756	211.46
791.195	236.61
791.634	329.21
792.072	588.66
792.511	1480.81
792.95	2814.26
793.388	3559.21
793.827	2321.01
794.265	1019.46
794.704	472.26
795.142	286.36
795.581	231.81
796.019	208.86
796.458	210.11
796.896	214.46
797.334	245.81
797.773	336.71
798.211	654.81
798.649	1394.11
799.087	2403.01
799.526	3421.06
799.964	3599.86
800.402	2517.01
800.84	1092.81
801.278	522.76
801.716	315.66
802.154	248.66
802.592	238.06
803.03	235.76
803.468	239.86
803.906	245.56
804.344	239.31
804.782	228.61
805.22	232.96
805.658	238.46
806.096	253.76
806.533	283.81
806.971	367.01
807.409	542.06
807.847	1075.91
808.284	2768.31
808.722	5031.51
809.16	7087.76
809.597	9488.06
810.035	12214.76
810.472	8010.81
810.91	3250.96
811.347	1450.01
811.785	677.41
812.222	421.51
812.66	319.41
813.097	276.21
813.535	234.51
813.972	212.31
814.409	195.51
814.846	184.76
815.284	178.51
815.721	181.21
816.158	197.16
816.595	251.46
817.032	328.81
817.47	301.06
817.907	212.01
818.344	186.46
818.781	178.11
819.218	221.01
819.655	333.76
820.092	444.06
820.529	405.96
820.966	322.66
821.403	215.26
821.839	187.26
822.276	207.36
822.713	250.96
823.15	235.66
823.587	249.06
824.023	449.21
824.46	1151.86
824.897	2101.46
825.333	1668.96
825.77	731.51
826.206	379.11
826.643	213.86
827.08	161.31
827.516	143.06
827.953	131.61
828.389	120.86
828.825	116.81
829.262	112.66
829.698	105.66
830.135	102.51
830.571	104.11
831.007	105.56
831.443	102.61
831.88	105.26
832.316	106.86
832.752	107.86
833.188	109.61
833.624	109.06
834.06	113.46
834.497	111.86
834.933	115.96
835.369	125.46
835.805	130.96
836.241	139.16
836.677	152.31
837.112	179.11
837.548	219.46
837.984	335.06
838.42	708.66
838.856	2023.81
839.292	4183.36
839.727	3128.16
840.163	2007.61
840.599	3042.41
841.034	4898.06
841.47	2450.06
841.906	1143.81
842.341	587.21
842.777	421.66
843.212	429.31
843.648	269.56
844.083	179.76
844.519	137.46
844.954	118.11
845.39	103.86
845.825	97.01
846.261	96.71
846.696	95.26
847.131	90.01
847.566	93.21
848.002	95.26
848.437	100.01
848.872	105.96
849.307	133.76
849.742	245.11
850.177	661.61
850.613	1482.36
851.048	1079.26
851.483	472.21
851.918	256.81
852.353	136.46
852.788	97.76
853.223	86.51
853.657	79.76
854.092	75.26
854.527	76.06
854.962	79.31
855.397	88.31
855.832	75.81
856.266	69.31
856.701	65.61
857.136	70.81
857.57	86.11
858.005	101.01
858.44	88.71
858.874	83.26
859.309	85.86
859.743	84.66
860.178	82.96
860.612	85.56
861.047	118.56
861.481	169.71
861.915	113.71
862.35	87.71
862.784	64.81
863.218	63.26
863.653	72.46
864.087	87.36
864.521	112.61
864.955	191.26
865.39	343.36
865.824	249.76
866.258	300.76
866.692	464.11
867.126	335.51
867.56	173.01
867.994	112.31
868.428	93.21
868.862	117.41
869.296	107.91
869.73	132.66
870.164	114.36
870.598	101.61
871.031	72.91
871.465	64.06
871.899	52.56
872.333	45.96
872.766	48.66
873.2	53.26
873.634	48.71
874.067	52.36
874.501	49.31
874.935	52.31
875.368	52.61
875.802	44.81
876.235	49.11
876.669	39.56
877.102	40.11
877.535	36.21
877.969	40.96
878.402	41.56
878.836	40.01
879.269	39.16
879.702	38.46
880.135	37.16
880.569	44.31
881.002	37.66
881.435	35.66
881.868	32.36
882.301	33.36
882.734	35.36
883.167	34.31
883.601	37.21
884.034	33.21
884.467	29.46
884.899	36.01
885.332	27.21
885.765	33.16
886.198	31.66
886.631	30.71
887.064	30.96
887.497	31.71
887.929	36.21
888.362	28.41
888.795	31.16
889.228	34.46
889.66	33.01
890.093	27.91
890.526	26.81
890.958	31.76
891.391	31.86
891.823	26.46
892.256	32.91
892.688	30.21
893.121	25.26
893.553	29.76
893.985	27.36
894.418	25.41
894.85	31.31
895.282	25.41
895.715	26.06
896.147	23.51
896.579	24.01
897.011	28.16
897.444	30.66
897.876	23.16
898.308	27.01
898.74	25.61
899.172	33.71
899.604	31.81
900.036	28.31
900.468	24.06
900.9	28.01
901.332	37.46
901.764	37.96
902.196	37.21
902.628	33.51
903.06	50.46
903.491	54.16
903.923	48.36
904.355	49.71
904.787	49.46
905.218	39.11
905.65	39.41
906.082	34.56
906.513	33.81
906.945	33.96
907.376	32.41
907.808	34.36
908.239	35.96
908.671	40.86
909.102	46.86
909.534	67.11
909.965	129.41
910.397	331.16
910.828	1000.46
911.259	612.26
911.691	320.46
912.122	182.96
912.553	93.06
912.984	46.46
913.415	40.06
913.847	39.51
914.278	31.71
914.709	26.71
915.14	30.81
915.571	31.81
916.002	31.71
916.433	27.11
916.864	28.11
917.295	29.26
917.726	38.61
918.157	43.21
918.587	46.11
919.018	41.31
919.449	37.21
919.88	45.21
920.311	64.46
920.741	204.26
921.172	377.91
921.603	177.61
922.033	110.96
922.464	70.81
922.895	46.86
923.325	27.11
923.756	27.16
924.186	34.41
924.617	47.26
925.047	73.61
925.478	56.51
925.908	46.01
926.338	30.16
926.769	23.81
927.199	26.06
927.629	26.51
928.06	27.26
928.49	27.36
928.92	23.16
929.35	20.76
929.78	14.31
930.21	15.11
930.641	10.51
931.071	16.01
931.501	15.11
931.931	11.41
932.361	11.51
932.791	21.01
933.221	19.26
933.651	27.36
934.08	47.16
934.51	25.46
934.94	23.51
935.37	18.11
935.8	14.71
936.229	12.31
936.659	13.11
937.089	23.96
937.519	37.41
937.948	50.31
938.378	34.61
938.807	18.46
939.237	7.21
939.666	6.16
940.096	8.31
940.525	3.61
940.955	10.21
941.384	7.91
941.814	7.76
942.243	7.46
942.672	3.81
943.102	4.51
943.531	6.16
943.96	1.76
944.39	13.26
944.819	11.56
945.248	7.86
945.677	5.86
946.106	6.21
946.535	5.76
946.964	9.46
947.393	-0.19
947.822	4.81
948.251	10.41
948.68	6.41
949.109	4.41
949.538	4.81
949.967	5.21
950.396	3.61
950.825	6.61
951.254	9.91
951.682	-3.19
952.111	0.81
952.54	1.21
952.969	3.01
953.397	4.91
953.826	3.86
954.254	4.76
954.683	7.61
955.112	6.76
955.54	4.31
955.969	1.71
956.397	3.86
956.826	6.01
957.254	2.81
957.682	7.46
958.111	5.26
958.539	9.06
958.967	5.21
959.396	6.86
959.824	2.06
960.252	5.66
960.68	4.91
961.109	8.01
961.537	7.11
961.965	2.81
962.393	1.21
962.821	5.46
963.249	4.91
963.677	11.81
964.105	60.96
964.533	111.41
964.961	51.01
965.389	26.36
965.817	15.91
966.245	8.96
966.672	7.11
967.1	8.96
967.528	-0.94
967.956	2.56
968.383	7.01
968.811	-0.29
969.239	6.71
969.666	4.11
970.094	5.81
970.522	0.46
970.949	2.51
971.377	-4.04
971.804	1.56
972.232	-0.34
972.659	-2.34
973.087	3.66
973.514	3.51
973.941	-3.29
974.369	0.06
974.796	1.86
975.223	3.31
975.651	1.86
976.078	0.66
976.505	5.46
976.932	23.51
977.359	29.36
977.786	16.26
978.214	14.81
978.641	3.91
979.068	6.01
979.495	1.96
979.922	7.56
980.349	4.31
980.776	6.86
981.202	0.41
981.629	5.41
982.056	1.91
982.483	-2.64
982.91	7.91
983.337	-1.94
983.763	5.91
984.19	3.41
984.617	-1.39
985.043	4.71
985.47	6.71
985.897	5.06
986.323	5.66
986.75	2.46
987.176	-0.99
987.603	1.66
988.029	4.46
988.456	7.41
988.882	2.06
989.308	-2.69
989.735	1.21
990.161	-0.24
990.587	1.41
991.014	0.56
991.44	1.41
991.866	1.51
992.292	-0.29
992.719	4.01
993.145	3.26
993.571	-0.34
993.997	5.41
994.423	4.91
994.849	-4.34
995.275	-0.49
995.701	7.96
996.127	-4.54
996.553	-0.99
996.979	-0.84
997.405	3.91
997.83	5.11
998.256	3.56
998.682	3.41
999.108	-0.29
999.534	-1.24
999.959	0.76
1000.385	3.16
1000.811	-5.64
1001.236	-1.54
1001.662	-0.34
1002.087	8.46
1002.513	1.86
1002.938	2.61
1003.364	0.61
1003.789	2.01
1004.215	-0.29
1004.64	-1.04
1005.066	2.41
1005.491	4.96
1005.916	5.81
1006.342	4.41
1006.767	2.66
1007.192	7.71
1007.617	2.01
1008.042	2.11
1008.468	0.86
1008.893	6.36
1009.318	3.01
1009.743	14.91
1010.168	17.96
1010.593	16.06
1011.018	12.01
1011.443	2.66
1011.868	4.91
1012.293	4.61
1012.718	2.16
1013.143	1.46
1013.567	6.46
1013.992	3.01
1014.417	3.01
1014.842	1.56
1015.267	2.61
1015.691	4.51
1016.116	2.46
1016.541	4.51
1016.965	3.51
1017.39	6.06
1017.814	-1.24
1018.239	0.21
1018.663	-4.19
1019.088	-3.59
1019.512	4.61
1019.937	-1.19
1020.361	3.56
1020.785	-3.59
1021.21	-4.04
1021.634	2.11
1022.058	0.16
1022.483	-2.69
1022.907	-5.74
1023.331	-2.24
1023.755	-3.64
1024.179	3.51
1024.604	-0.39
1025.028	0.71
1025.452	2.66
1025.876	1.21
1026.3	0.16
1026.724	-2.39
1027.148	3.41
1027.572	-0.84
1027.996	4.61
1028.42	6.31
1028.843	2.16
1029.267	0.46
1029.691	-0.14
1030.115	1.61
1030.539	-1.54
1030.962	0.71
1031.386	1.46
1031.81	1.46
1032.233	0.11
1032.657	-1.54
1033.08	2.16
1033.504	-1.69
1033.927	-1.94
1034.351	-3.29
1034.774	1.36
1035.198	-3.79
1035.621	4.26
1036.045	-3.39
1036.468	3.71
1036.891	-1.14
1037.315	7.36
1037.738	2.51
1038.161	-2.14
1038.584	2.81
1039.008	-5.34
1039.431	-2.54
1039.854	-5.79
1040.277	2.46
1040.7	-0.24
1041.123	-3.34
1041.546	-5.54
1041.969	2.06
1042.392	4.21
1042.815	-9.89
1043.238	-1.59
1043.661	-2.84
1044.084	-3.54
1044.507	-1.64
1044.93	-2.04
1045.352	-0.84
1045.775	2.56
1046.198	0.86
1046.621	-1.24
1047.043	2.21
1047.466	1.56
1047.889	-2.19
1048.311	0.01
1048.734	-0.64
1049.156	-1.14
1049.579	-0.44
1050.001	-3.94
1050.424	-0.04
1050.846	-2.64
1051.269	-0.84
1051.691	1.81
1052.113	-1.39
1052.536	-1.99
1052.958	-7.24
1053.38	1.46
1053.802	1.51
1054.225	-4.09
1054.647	4.36
1055.069	-3.69
1055.491	1.46
1055.913	2.41
1056.335	-2.49
1056.757	-1.19
1057.179	0.26
1057.601	0.31
1058.023	-5.04
1058.445	-4.44
1058.867	-0.24
1059.289	1.06
1059.711	-3.74
1060.133	0.01
1060.555	1.86
1060.976	-1.49
1061.398	-0.59
1061.82	-0.19
1062.241	-3.94
1062.663	-1.84
1063.085	-6.49
1063.506	-4.64
1063.928	-3.34
1064.35	2.51
1064.771	0.66
1065.193	-0.89
1065.614	-0.74
1066.035	5.31
1066.457	1.06
1066.878	0.36
1067.3	-1.04
1067.721	2.66
1068.142	2.21
1068.564	3.11
1068.985	2.06
1069.406	-6.44
1069.827	-0.59
1070.248	-1.94
1070.67	-6.89
1071.091	-7.74
1071.512	-4.49
1071.933	-0.44
1072.354	-5.79
1072.775	0.91
1073.196	0.16
1073.617	-4.64
1074.038	2.66
1074.459	-3.74
1074.88	-2.34
1075.3	3.01
1075.721	-1.39
1076.142	-1.09
1076.563	-7.54
1076.983	-0.64
1077.404	-4.84
1077.825	-0.94
1078.246	-2.29
1078.666	-4.44
1079.087	-2.49
1079.507	-2.54
1079.928	1.31
1080.348	-2.89
1080.769	-1.04
1081.189	-0.69
1081.61	-10.19
1082.03	1.61
1082.451	-0.19
1082.871	-3.29
1083.291	0.71
1083.711	-1.54
1084.132	-2.34
1084.552	-6.84
1084.972	-4.24
1085.392	-2.34
1085.813	-2.79
1086.233	-6.79
1086.653	-0.89
1087.073	-2.54
1087.493	-8.59
1087.913	-4.94
1088.333	-0.94
1088.753	-1.74
1089.173	-0.74
1089.593	-4.34
1090.013	0.36
1090.433	-4.29
1090.852	2.51
1091.272	-4.39
1091.692	-0.89
1092.112	-5.74
1092.531	-5.94
1092.951	-2.94
1093.371	2.81
1093.79	-0.89
1094.21	-4.94
1094.63	-2.54
1095.049	-0.64
1095.469	-7.19
1095.888	0.76
1096.308	-0.24
1096.727	-0.14
1097.146	-6.29
1097.566	1.06
1097.985	-6.19
1098.405	0.31
1098.824	3.06
1099.243	-3.64
1099.662	-4.84
1100.082	-5.04
1100.501	-2.89
1100.92	7.06
1101.339	5.16
1101.758	4.61
