Data from MSPlasma+Separation6_Subt14_10-12-41-541.txt Node
Date: Fri Jul 21 10:12:41 EDT 2017
User: Ender
Spectrometer: HR+D1039
Trigger mode: 0
Integration Time (sec): 6.430000E-3
Scans to average: 20
Electric dark correction enabled: true
Nonlinearity correction enabled: false
Boxcar width: 0
XAxis mode: Wavelengths
Number of Pixels in Spectrum: 2048
>>>>>Begin Spectral Data<<<<<
187.836	1.44
188.309	1.44
188.782	1.44
189.255	1.09
189.728	1.09
190.201	-1.01
190.674	0.34
191.147	-2.71
191.619	-2.51
192.092	-2.36
192.565	-3.41
193.038	1.34
193.511	3.74
193.984	-0.11
194.456	2.74
194.929	-1.16
195.402	-0.81
195.874	2.34
196.347	1.64
196.82	1.89
197.292	-3.21
197.765	4.44
198.237	-2.86
198.71	-6.56
199.182	-0.11
199.655	0.79
200.127	4.59
200.6	-3.91
201.072	1.84
201.544	-8.11
202.017	0.69
202.489	0.29
202.961	-3.21
203.433	-0.31
203.906	1.24
204.378	4.29
204.85	-3.21
205.322	0.09
205.794	1.84
206.266	-5.81
206.739	5.09
207.211	-1.11
207.683	0.54
208.155	1.94
208.627	3.79
209.099	1.94
209.57	4.04
210.042	3.24
210.514	4.24
210.986	-5.11
211.458	-9.11
211.93	0.84
212.402	0.84
212.873	0.39
213.345	-4.06
213.817	0.79
214.288	-1.56
214.76	-0.81
215.232	0.54
215.703	-1.86
216.175	-1.66
216.646	-0.86
217.118	1.09
217.589	-4.06
218.061	-1.51
218.532	-4.71
219.004	4.14
219.475	0.29
219.946	-0.66
220.418	6.94
220.889	4.49
221.36	3.79
221.832	2.44
222.303	4.74
222.774	5.44
223.245	0.64
223.717	-1.66
224.188	4.99
224.659	2.89
225.13	0.19
225.601	3.19
226.072	4.79
226.543	6.64
227.014	2.74
227.485	5.14
227.956	4.64
228.427	6.44
228.898	2.99
229.369	5.84
229.839	3.14
230.31	8.04
230.781	7.69
231.252	8.44
231.722	6.24
232.193	8.89
232.664	4.89
233.135	5.89
233.605	-0.11
234.076	9.09
234.546	4.09
235.017	12.64
235.487	11.79
235.958	5.49
236.428	12.09
236.899	5.69
237.369	14.69
237.84	12.39
238.31	12.94
238.78	6.94
239.251	12.04
239.721	9.04
240.191	11.49
240.662	12.49
241.132	6.84
241.602	14.39
242.072	8.89
242.542	11.19
243.013	9.69
243.483	16.44
243.953	11.89
244.423	9.34
244.893	7.99
245.363	14.34
245.833	13.29
246.303	13.34
246.773	16.99
247.243	12.54
247.712	13.04
248.182	15.14
248.652	14.74
249.122	12.39
249.592	16.89
250.061	14.89
250.531	13.04
251.001	18.99
251.471	20.19
251.94	19.59
252.41	18.24
252.879	21.79
253.349	21.29
253.818	19.79
254.288	25.84
254.757	19.99
255.227	21.14
255.696	20.39
256.166	26.24
256.635	26.64
257.105	22.64
257.574	23.69
258.043	18.64
258.513	26.59
258.982	24.84
259.451	28.09
259.92	24.49
260.389	25.64
260.859	26.04
261.328	30.49
261.797	28.04
262.266	26.99
262.735	31.39
263.204	24.24
263.673	35.59
264.142	23.49
264.611	30.29
265.08	30.79
265.549	30.04
266.018	29.84
266.487	33.69
266.955	29.84
267.424	34.29
267.893	37.34
268.362	38.14
268.83	28.64
269.299	33.99
269.768	34.74
270.236	34.74
270.705	38.84
271.174	37.59
271.642	37.14
272.111	40.49
272.579	36.34
273.048	40.89
273.516	39.84
273.985	35.34
274.453	39.29
274.922	40.14
275.39	40.84
275.858	39.39
276.327	35.54
276.795	36.19
277.263	45.64
277.731	43.59
278.2	46.29
278.668	44.99
279.136	48.39
279.604	44.49
280.072	42.29
280.54	46.34
281.008	52.59
281.477	47.79
281.945	46.94
282.413	42.84
282.881	52.49
283.348	43.69
283.816	47.09
284.284	52.09
284.752	49.44
285.22	53.94
285.688	50.29
286.156	55.89
286.623	51.09
287.091	53.24
287.559	51.24
288.026	54.74
288.494	57.54
288.962	58.79
289.429	57.09
289.897	59.14
290.364	59.39
290.832	57.64
291.3	63.49
291.767	56.09
292.234	58.99
292.702	59.69
293.169	60.79
293.637	66.19
294.104	58.74
294.571	63.69
295.039	65.39
295.506	56.29
295.973	60.34
296.44	62.34
296.908	68.24
297.375	66.24
297.842	65.09
298.309	65.89
298.776	67.34
299.243	66.29
299.71	74.69
300.177	71.89
300.644	68.69
301.111	70.64
301.578	74.59
302.045	72.39
302.512	68.34
302.979	75.34
303.446	81.44
303.913	84.64
304.379	75.99
304.846	80.99
305.313	88.54
305.78	85.24
306.246	86.09
306.713	85.59
307.18	86.49
307.646	84.59
308.113	85.79
308.579	90.59
309.046	95.29
309.512	91.29
309.979	95.19
310.445	89.09
310.912	95.94
311.378	101.49
311.845	97.39
312.311	93.19
312.777	94.74
313.244	100.89
313.71	98.84
314.176	110.69
314.642	110.34
315.109	101.59
315.575	103.49
316.041	103.99
316.507	104.49
316.973	109.34
317.439	109.04
317.905	114.04
318.371	111.44
318.837	106.14
319.303	110.74
319.769	113.79
320.235	111.64
320.701	113.54
321.167	112.74
321.633	115.34
322.099	113.19
322.564	117.89
323.03	118.49
323.496	115.84
323.962	121.49
324.427	120.39
324.893	118.09
325.359	128.24
325.824	130.54
326.29	133.99
326.755	124.99
327.221	125.49
327.686	134.54
328.152	132.19
328.617	139.69
329.083	139.24
329.548	137.74
330.014	136.04
330.479	139.14
330.944	140.19
331.41	147.89
331.875	137.49
332.34	140.79
332.805	144.44
333.271	144.24
333.736	146.79
334.201	149.69
334.666	156.64
335.131	157.09
335.596	150.94
336.061	149.94
336.526	151.49
336.991	149.69
337.456	145.89
337.921	145.59
338.386	148.49
338.851	148.59
339.316	149.74
339.781	149.04
340.246	155.89
340.711	155.94
341.175	153.49
341.64	161.94
342.105	164.04
342.569	172.09
343.034	165.59
343.499	169.24
343.963	174.69
344.428	168.99
344.893	175.64
345.357	182.89
345.822	181.99
346.286	188.79
346.751	186.29
347.215	189.54
347.679	195.14
348.144	208.99
348.608	205.74
349.073	208.84
349.537	214.34
350.001	211.54
350.465	210.09
350.93	208.04
351.394	213.14
351.858	221.74
352.322	223.49
352.786	212.89
353.25	220.09
353.715	225.84
354.179	237.69
354.643	237.59
355.107	241.39
355.571	240.64
356.035	237.19
356.498	241.09
356.962	229.89
357.426	229.14
357.89	227.94
358.354	225.59
358.818	222.99
359.281	229.94
359.745	231.44
360.209	226.14
360.673	230.39
361.136	228.14
361.6	230.74
362.064	236.44
362.527	246.89
362.991	242.34
363.454	236.04
363.918	251.64
364.381	248.99
364.845	252.09
365.308	245.69
365.772	248.04
366.235	251.29
366.698	248.94
367.162	244.39
367.625	248.74
368.088	257.84
368.552	246.79
369.015	252.39
369.478	263.44
369.941	262.99
370.404	261.89
370.867	259.54
371.331	259.49
371.794	267.69
372.257	273.64
372.72	263.99
373.183	274.34
373.646	272.49
374.109	276.39
374.572	270.04
375.035	279.59
375.497	280.19
375.96	280.49
376.423	289.59
376.886	289.39
377.349	296.94
377.811	300.49
378.274	298.24
378.737	293.39
379.199	297.54
379.662	303.04
380.125	306.39
380.587	308.24
381.05	313.09
381.512	317.34
381.975	324.89
382.437	335.29
382.9	327.54
383.362	327.09
383.825	332.19
384.287	336.84
384.75	338.29
385.212	336.44
385.674	341.24
386.136	345.59
386.599	345.34
387.061	336.89
387.523	343.79
387.985	348.44
388.447	355.34
388.91	351.19
389.372	351.84
389.834	355.89
390.296	346.39
390.758	346.19
391.22	349.69
391.682	349.84
392.144	350.19
392.606	358.44
393.068	364.79
393.529	384.79
393.991	395.84
394.453	376.34
394.915	356.99
395.377	350.89
395.838	356.39
396.3	362.59
396.762	368.89
397.224	363.79
397.685	355.94
398.147	370.99
398.608	371.44
399.07	377.59
399.531	377.64
399.993	383.19
400.454	389.94
400.916	387.94
401.377	395.09
401.839	395.54
402.3	401.49
402.762	418.24
403.223	450.09
403.684	448.89
404.145	421.74
404.607	414.64
405.068	402.29
405.529	402.54
405.99	411.09
406.451	420.39
406.913	401.29
407.374	408.99
407.835	410.59
408.296	418.44
408.757	423.44
409.218	431.54
409.679	443.69
410.14	442.69
410.601	460.39
411.062	461.69
411.522	467.24
411.983	468.64
412.444	474.84
412.905	497.29
413.366	512.64
413.826	543.59
414.287	624.49
414.748	769.84
415.208	791.44
415.669	643.54
416.13	575.89
416.59	566.54
417.051	592.69
417.511	625.99
417.972	683.89
418.432	743.24
418.893	829.24
419.353	793.29
419.814	590.79
420.274	510.14
420.734	512.14
421.195	516.49
421.655	515.09
422.115	524.29
422.576	517.24
423.036	525.14
423.496	547.79
423.956	560.39
424.416	614.79
424.876	689.74
425.336	681.49
425.797	660.39
426.257	649.09
426.717	587.99
427.177	530.04
427.637	532.19
428.097	539.34
428.556	552.64
429.016	604.04
429.476	585.34
429.936	554.59
430.396	537.19
430.856	548.04
431.315	555.09
431.775	599.49
432.235	658.89
432.694	675.04
433.154	611.64
433.614	605.89
434.073	585.94
434.533	534.49
434.993	521.84
435.452	537.19
435.912	536.79
436.371	538.89
436.83	547.04
437.29	537.64
437.749	536.59
438.209	540.39
438.668	553.54
439.127	568.29
439.587	558.94
440.046	552.14
440.505	564.34
440.964	572.84
441.424	586.89
441.883	605.29
442.342	574.74
442.801	558.79
443.26	566.94
443.719	562.54
444.178	564.19
444.637	571.84
445.096	575.64
445.555	583.54
446.014	589.84
446.473	575.94
446.932	579.24
447.391	594.39
447.849	601.64
448.308	587.94
448.767	595.59
449.226	604.79
449.685	611.19
450.143	646.59
450.602	639.64
451.061	599.24
451.519	607.54
451.978	592.39
452.436	598.24
452.895	600.84
453.353	599.79
453.812	593.19
454.27	592.84
454.729	592.59
455.187	603.54
455.646	602.64
456.104	602.44
456.562	613.19
457.021	620.74
457.479	593.24
457.937	614.89
458.395	629.89
458.854	627.04
459.312	614.34
459.77	610.69
460.228	624.94
460.686	636.84
461.144	640.89
461.602	625.09
462.06	631.49
462.518	648.89
462.976	647.84
463.434	654.29
463.892	661.79
464.35	663.24
464.808	679.34
465.266	689.19
465.724	703.89
466.181	690.74
466.639	689.34
467.097	712.79
467.555	735.84
468.012	727.39
468.47	737.04
468.928	769.19
469.385	776.39
469.843	787.29
470.3	776.64
470.758	796.84
471.215	798.79
471.673	813.99
472.13	840.64
472.588	850.74
473.045	849.49
473.503	863.14
473.96	895.84
474.417	899.29
474.875	926.84
475.332	948.64
475.789	962.09
476.246	969.19
476.704	990.14
477.161	999.24
477.618	990.54
478.075	1024.84
478.532	1050.84
478.989	1080.54
479.446	1125.14
479.903	1118.64
480.36	1145.59
480.817	1136.14
481.274	1146.29
481.731	1180.94
482.188	1195.79
482.645	1222.79
483.102	1244.69
483.558	1277.29
484.015	1303.34
484.472	1303.09
484.929	1301.94
485.385	1314.09
485.842	1311.39
486.299	1325.64
486.755	1317.44
487.212	1295.39
487.668	1256.69
488.125	1255.99
488.582	1238.24
489.038	1246.34
489.494	1267.84
489.951	1255.84
490.407	1266.29
490.864	1264.24
491.32	1263.14
491.776	1265.19
492.233	1293.99
492.689	1285.14
493.145	1277.44
493.602	1274.59
494.058	1288.29
494.514	1310.69
494.97	1298.89
495.426	1324.84
495.882	1319.04
496.338	1323.64
496.794	1344.89
497.251	1332.49
497.707	1362.69
498.163	1371.59
498.618	1366.54
499.074	1362.74
499.53	1380.89
499.986	1397.19
500.442	1385.44
500.898	1370.64
501.354	1392.99
501.809	1398.19
502.265	1392.74
502.721	1397.19
503.177	1414.04
503.632	1411.14
504.088	1425.79
504.543	1441.89
504.999	1453.24
505.455	1447.74
505.91	1433.79
506.366	1432.54
506.821	1439.84
507.277	1435.69
507.732	1441.39
508.187	1436.94
508.643	1450.69
509.098	1461.69
509.553	1461.59
510.009	1480.64
510.464	1506.49
510.919	1514.19
511.375	1537.69
511.83	1552.69
512.285	1592.14
512.74	1616.54
513.195	1632.94
513.65	1665.44
514.105	1700.84
514.56	1700.59
515.015	1729.59
515.47	1742.49
515.925	1713.29
516.38	1715.54
516.835	1729.14
517.29	1715.39
517.745	1718.24
518.2	1692.64
518.655	1652.74
519.109	1629.59
519.564	1605.19
520.019	1589.14
520.474	1574.39
520.928	1567.74
521.383	1557.39
521.838	1546.99
522.292	1531.94
522.747	1514.79
523.201	1521.69
523.656	1493.64
524.11	1498.19
524.565	1492.84
525.019	1491.04
525.474	1490.14
525.928	1468.74
526.382	1477.24
526.837	1473.84
527.291	1475.64
527.745	1473.99
528.2	1470.34
528.654	1444.94
529.108	1456.89
529.562	1455.54
530.016	1446.69
530.47	1456.04
530.925	1443.99
531.379	1450.29
531.833	1466.59
532.287	1457.14
532.741	1455.04
533.195	1457.99
533.649	1456.59
534.103	1461.74
534.556	1449.09
535.01	1460.04
535.464	1452.49
535.918	1456.79
536.372	1455.84
536.826	1452.44
537.279	1445.54
537.733	1443.59
538.187	1455.59
538.64	1455.49
539.094	1461.69
539.548	1480.69
540.001	1479.99
540.455	1489.79
540.908	1495.89
541.362	1519.94
541.815	1515.59
542.269	1547.09
542.722	1551.54
543.175	1564.64
543.629	1587.29
544.082	1597.19
544.536	1610.24
544.989	1615.79
545.442	1626.74
545.895	1618.69
546.349	1619.84
546.802	1635.04
547.255	1633.89
547.708	1642.89
548.161	1668.94
548.614	1675.09
549.067	1684.49
549.52	1678.24
549.973	1635.29
550.426	1623.49
550.879	1604.84
551.332	1608.44
551.785	1628.09
552.238	1642.04
552.691	1646.94
553.144	1673.49
553.596	1689.04
554.049	1716.49
554.502	1758.64
554.955	1797.99
555.407	1817.54
555.86	1794.89
556.313	1767.99
556.765	1761.69
557.218	1734.24
557.67	1712.99
558.123	1694.49
558.576	1687.09
559.028	1695.34
559.48	1724.14
559.933	1707.79
560.385	1652.59
560.838	1588.44
561.29	1539.69
561.742	1535.44
562.195	1492.44
562.647	1493.69
563.099	1477.89
563.551	1468.69
564.004	1497.89
564.456	1480.19
564.908	1437.59
565.36	1399.69
565.812	1370.14
566.264	1362.19
566.716	1345.19
567.168	1316.14
567.62	1318.94
568.072	1312.54
568.524	1304.54
568.976	1295.19
569.428	1284.29
569.88	1278.74
570.332	1290.39
570.784	1287.29
571.235	1281.09
571.687	1303.29
572.139	1304.84
572.59	1313.44
573.042	1321.84
573.494	1322.84
573.945	1293.99
574.397	1263.29
574.849	1262.09
575.3	1264.34
575.752	1244.24
576.203	1234.79
576.655	1239.59
577.106	1217.14
577.557	1214.24
578.009	1208.79
578.46	1208.89
578.912	1195.14
579.363	1206.44
579.814	1208.49
580.265	1206.19
580.717	1208.89
581.168	1202.04
581.619	1216.99
582.07	1226.19
582.521	1208.24
582.972	1209.54
583.423	1214.99
583.875	1220.84
584.326	1227.69
584.777	1244.74
585.227	1273.69
585.678	1288.89
586.129	1295.24
586.58	1313.84
587.031	1352.99
587.482	1383.79
587.933	1399.94
588.384	1401.14
588.834	1386.19
589.285	1373.59
589.736	1374.54
590.186	1384.04
590.637	1377.89
591.088	1331.94
591.538	1302.44
591.989	1286.99
592.439	1270.64
592.89	1252.79
593.34	1245.79
593.791	1236.19
594.241	1226.04
594.692	1218.34
595.142	1215.64
595.593	1215.84
596.043	1227.19
596.493	1236.34
596.943	1234.29
597.394	1255.89
597.844	1288.19
598.294	1319.59
598.744	1373.09
599.195	1439.49
599.645	1519.59
600.095	1604.44
600.545	1693.99
600.995	1786.94
601.445	1859.69
601.895	1962.59
602.345	2024.19
602.795	2003.09
603.245	1906.59
603.695	1782.64
604.145	1678.64
604.594	1586.44
605.044	1498.79
605.494	1382.49
605.944	1314.64
606.393	1269.14
606.843	1247.29
607.293	1253.19
607.743	1236.24
608.192	1257.14
608.642	1265.09
609.091	1269.94
609.541	1261.34
609.99	1257.14
610.44	1225.09
610.889	1216.89
611.339	1192.89
611.788	1177.09
612.238	1183.64
612.687	1175.89
613.136	1188.94
613.586	1207.39
614.035	1205.54
614.484	1213.54
614.933	1213.44
615.383	1191.09
615.832	1167.29
616.281	1143.69
616.73	1124.64
617.179	1105.74
617.628	1064.49
618.077	1057.04
618.526	1030.94
618.975	1025.54
619.424	1002.59
619.873	1015.69
620.322	1001.84
620.771	1001.74
621.22	982.74
621.669	963.99
622.118	957.59
622.567	938.09
623.015	918.74
623.464	916.44
623.913	908.44
624.361	915.79
624.81	904.29
625.259	908.04
625.707	896.29
626.156	910.54
626.604	913.54
627.053	928.74
627.501	920.79
627.95	934.54
628.398	951.64
628.847	939.79
629.295	938.49
629.744	923.04
630.192	910.44
630.64	894.34
631.089	871.49
631.537	848.09
631.985	845.39
632.433	836.04
632.881	822.49
633.33	828.79
633.778	827.69
634.226	838.79
634.674	839.94
635.122	843.59
635.57	857.19
636.018	877.44
636.466	865.54
636.914	863.69
637.362	886.29
637.81	896.59
638.258	922.84
638.705	932.49
639.153	955.74
639.601	973.59
640.049	994.89
640.497	1025.74
640.944	1056.54
641.392	996.84
641.84	910.74
642.287	858.14
642.735	823.39
643.182	819.79
643.63	797.89
644.078	793.24
644.525	794.79
644.973	803.49
645.42	807.44
645.867	803.39
646.315	802.59
646.762	812.24
647.21	801.24
647.657	817.19
648.104	803.69
648.551	772.59
648.999	768.74
649.446	759.89
649.893	761.09
650.34	769.09
650.787	788.59
651.234	820.84
651.682	884.39
652.129	964.04
652.576	1106.19
653.023	1277.29
653.47	1375.34
653.917	1436.99
654.363	1475.59
654.81	1550.39
655.257	1594.79
655.704	1259.34
656.151	978.79
656.598	861.59
657.044	786.34
657.491	776.74
657.938	749.64
658.385	742.14
658.831	730.99
659.278	729.64
659.724	726.19
660.171	718.29
660.618	698.24
661.064	678.94
661.511	693.99
661.957	694.74
662.404	694.44
662.85	698.09
663.296	715.84
663.743	712.04
664.189	711.94
664.635	718.89
665.082	711.59
665.528	713.14
665.974	693.69
666.42	687.54
666.867	683.04
667.313	647.44
667.759	643.44
668.205	638.44
668.651	648.99
669.097	651.09
669.543	655.94
669.989	672.29
670.435	667.59
670.881	674.89
671.327	706.14
671.773	760.84
672.219	829.19
672.665	897.39
673.11	933.54
673.556	960.49
674.002	1003.94
674.448	1014.49
674.893	851.39
675.339	720.84
675.785	667.64
676.23	632.94
676.676	609.94
677.122	588.69
677.567	573.64
678.013	557.24
678.458	554.59
678.904	550.49
679.349	541.99
679.794	542.14
680.24	542.94
680.685	535.64
681.131	538.44
681.576	536.84
682.021	547.29
682.466	553.29
682.912	556.84
683.357	582.74
683.802	641.64
684.247	709.49
684.692	759.99
685.137	794.34
685.583	822.39
686.028	875.29
686.473	828.39
686.918	700.64
687.363	638.69
687.807	612.59
688.252	568.99
688.697	545.04
689.142	528.59
689.587	530.39
690.032	541.54
690.477	561.44
690.921	596.14
691.366	625.19
691.811	659.64
692.255	711.34
692.7	871.89
693.145	1251.44
693.589	1934.14
694.034	2356.14
694.478	2568.14
694.923	2422.44
695.367	3552.54
695.812	2088.79
696.256	825.74
696.701	591.34
697.145	544.89
697.59	523.69
698.034	511.09
698.478	512.44
698.922	512.44
699.367	534.09
699.811	555.54
700.255	599.84
700.699	669.34
701.143	730.44
701.588	785.49
702.032	828.39
702.476	852.49
702.92	890.69
703.364	1140.19
703.808	1766.44
704.252	2251.49
704.696	2463.19
705.14	2380.29
705.584	3373.14
706.027	1798.64
706.471	865.89
706.915	629.04
707.359	552.39
707.803	520.24
708.246	495.34
708.69	497.99
709.134	483.69
709.577	493.44
710.021	491.99
710.465	485.84
710.908	479.54
711.352	500.99
711.795	565.74
712.239	608.24
712.682	627.54
713.126	617.94
713.569	702.74
714.012	563.59
714.456	478.24
714.899	450.69
715.342	434.59
715.786	418.54
716.229	400.19
716.672	394.29
717.115	393.84
717.558	403.74
718.002	412.94
718.445	432.34
718.888	462.74
719.331	468.49
719.774	484.44
720.217	470.54
720.66	438.54
721.103	415.19
721.546	390.54
721.989	373.94
722.432	373.34
722.874	375.24
723.317	378.09
723.76	411.39
724.203	512.99
724.645	695.54
725.088	836.44
725.531	837.34
725.974	942.94
726.416	831.94
726.859	483.24
727.301	387.19
727.744	371.29
728.187	378.49
728.629	381.94
729.071	404.14
729.514	421.69
729.956	442.79
730.399	458.14
730.841	458.79
731.283	441.54
731.726	427.19
732.168	429.74
732.61	454.29
733.053	493.99
733.495	551.44
733.937	622.34
734.379	724.49
734.821	927.24
735.263	1464.09
735.705	2662.44
736.148	4020.64
736.59	4160.74
737.032	4657.99
737.474	3801.29
737.916	1403.84
738.357	712.09
738.799	535.34
739.241	484.94
739.683	490.19
740.125	502.39
740.567	505.04
741.008	540.14
741.45	562.74
741.892	597.89
742.334	607.29
742.775	607.24
743.217	577.64
743.658	481.94
744.1	475.49
744.542	544.24
744.983	583.09
745.425	614.39
745.866	607.19
746.307	502.39
746.749	532.89
747.19	786.04
747.632	1542.74
748.073	2923.39
748.514	4133.49
748.956	5683.34
749.397	6724.79
749.838	4596.49
750.279	4528.94
750.72	2266.94
751.162	915.89
751.603	517.69
752.044	413.44
752.485	358.34
752.926	337.09
753.367	325.29
753.808	312.74
754.249	305.94
754.69	302.94
755.131	300.14
755.572	300.49
756.013	301.29
756.453	302.19
756.894	307.74
757.335	307.79
757.776	308.19
758.216	323.19
758.657	342.09
759.098	378.64
759.538	460.24
759.979	665.09
760.42	1342.59
760.86	3422.54
761.301	7385.44
761.741	9092.29
762.182	10981.09
762.622	6922.99
763.063	2373.79
763.503	942.49
763.943	548.49
764.384	425.39
764.824	365.74
765.264	335.74
765.705	320.74
766.145	300.09
766.585	288.09
767.025	274.99
767.465	279.39
767.906	284.99
768.346	300.89
768.786	352.94
769.226	527.24
769.666	1063.09
770.106	2434.34
770.546	3614.14
770.986	4286.04
771.426	3238.29
771.866	1287.69
772.306	561.59
772.745	338.39
773.185	282.04
773.625	267.84
774.065	280.99
774.505	396.14
774.944	667.74
775.384	985.19
775.824	1162.24
776.263	973.99
776.703	510.24
777.142	297.34
777.582	231.09
778.021	202.09
778.461	195.74
778.9	200.04
779.34	188.64
779.779	184.64
780.219	183.54
780.658	179.29
781.097	177.44
781.537	171.74
781.976	169.99
782.415	170.84
782.855	171.49
783.294	169.34
783.733	163.39
784.172	169.49
784.611	171.09
785.05	176.14
785.489	179.69
785.928	184.39
786.367	200.39
786.806	202.29
787.245	219.59
787.684	233.89
788.123	228.29
788.562	222.59
789.001	202.29
789.44	202.19
789.879	203.69
790.317	207.19
790.756	213.54
791.195	243.89
791.634	337.59
792.072	606.29
792.511	1526.59
792.95	2927.84
793.388	3735.54
793.827	2417.49
794.265	1057.19
794.704	494.04
795.142	296.94
795.581	245.89
796.019	221.24
796.458	221.04
796.896	225.04
797.334	258.04
797.773	348.54
798.211	678.89
798.649	1455.44
799.087	2507.89
799.526	3561.29
799.964	3775.09
800.402	2637.24
800.84	1137.89
801.278	537.69
801.716	322.59
802.154	262.79
802.592	241.54
803.03	242.39
803.468	251.29
803.906	251.14
804.344	247.14
804.782	238.09
805.22	234.99
805.658	247.89
806.096	266.94
806.533	294.59
806.971	379.64
807.409	550.39
807.847	1098.29
808.284	2862.84
808.722	5266.89
809.16	7373.94
809.597	9840.09
810.035	12747.14
810.472	8387.94
810.91	3388.49
811.347	1499.84
811.785	701.14
812.222	437.99
812.66	328.94
813.097	282.54
813.535	244.59
813.972	219.99
814.409	204.44
814.846	192.54
815.284	180.44
815.721	181.54
816.158	198.34
816.595	263.34
817.032	340.04
817.47	312.64
817.907	218.74
818.344	194.69
818.781	190.29
819.218	239.14
819.655	351.99
820.092	465.24
820.529	421.69
820.966	337.24
821.403	228.09
821.839	191.04
822.276	211.59
822.713	262.14
823.15	251.04
823.587	259.69
824.023	457.59
824.46	1195.94
824.897	2205.14
825.333	1760.99
825.77	769.09
826.206	389.94
826.643	222.89
827.08	167.79
827.516	141.94
827.953	133.14
828.389	126.74
828.825	121.19
829.262	118.34
829.698	115.14
830.135	103.59
830.571	106.34
831.007	109.14
831.443	104.34
831.88	110.49
832.316	116.09
832.752	111.49
833.188	115.04
833.624	114.49
834.06	116.34
834.497	115.49
834.933	118.04
835.369	125.09
835.805	141.99
836.241	144.14
836.677	159.74
837.112	182.44
837.548	227.69
837.984	346.44
838.42	731.89
838.856	2098.44
839.292	4379.39
839.727	3281.99
840.163	2086.54
840.599	3159.59
841.034	5159.59
841.47	2576.14
841.906	1188.69
842.341	613.54
842.777	439.14
843.212	441.09
843.648	280.84
844.083	187.99
844.519	144.89
844.954	122.09
845.39	108.44
845.825	107.49
846.261	107.19
846.696	97.64
847.131	94.99
847.566	95.54
848.002	96.54
848.437	100.89
848.872	109.44
849.307	136.64
849.742	254.84
850.177	694.24
850.613	1556.49
851.048	1131.09
851.483	492.59
851.918	262.24
852.353	143.24
852.788	96.49
853.223	88.19
853.657	82.59
854.092	79.94
854.527	75.79
854.962	79.54
855.397	91.89
855.832	77.79
856.266	70.99
856.701	66.09
857.136	70.49
857.57	92.44
858.005	103.99
858.44	88.79
858.874	82.14
859.309	91.74
859.743	85.64
860.178	81.29
860.612	93.69
861.047	121.94
861.481	178.49
861.915	117.09
862.35	87.99
862.784	74.44
863.218	68.54
863.653	74.54
864.087	91.64
864.521	118.89
864.955	199.19
865.39	361.34
865.824	251.14
866.258	310.89
866.692	477.84
867.126	352.29
867.56	178.29
867.994	115.44
868.428	93.74
868.862	117.29
869.296	116.04
869.73	142.64
870.164	122.44
870.598	108.59
871.031	73.89
871.465	66.94
871.899	52.59
872.333	48.29
872.766	53.99
873.2	51.14
873.634	44.09
874.067	56.74
874.501	52.44
874.935	52.64
875.368	55.79
875.802	47.94
876.235	41.44
876.669	41.79
877.102	44.64
877.535	39.39
877.969	39.89
878.402	42.24
878.836	39.24
879.269	38.09
879.702	39.59
880.135	43.74
880.569	40.74
881.002	33.69
881.435	39.69
881.868	38.69
882.301	35.44
882.734	33.39
883.167	40.89
883.601	36.74
884.034	37.39
884.467	29.69
884.899	37.59
885.332	31.09
885.765	33.84
886.198	29.09
886.631	32.29
887.064	32.84
887.497	28.19
887.929	33.09
888.362	32.64
888.795	31.39
889.228	35.29
889.66	30.99
890.093	30.74
890.526	30.09
890.958	30.79
891.391	32.69
891.823	27.59
892.256	26.09
892.688	29.04
893.121	23.84
893.553	33.89
893.985	28.44
894.418	27.34
894.85	30.04
895.282	30.49
895.715	27.99
896.147	25.64
896.579	24.49
897.011	28.34
897.444	31.14
897.876	25.09
898.308	24.59
898.74	29.04
899.172	31.94
899.604	29.69
900.036	27.59
900.468	26.84
900.9	29.04
901.332	42.19
901.764	39.44
902.196	38.14
902.628	34.64
903.06	52.84
903.491	63.54
903.923	49.04
904.355	53.64
904.787	49.44
905.218	36.84
905.65	39.79
906.082	31.14
906.513	34.39
906.945	35.29
907.376	36.94
907.808	30.89
908.239	36.99
908.671	41.94
909.102	45.94
909.534	71.69
909.965	130.89
910.397	349.34
910.828	1056.54
911.259	643.69
911.691	332.74
912.122	192.49
912.553	92.49
912.984	50.19
913.415	44.79
913.847	36.14
914.278	38.39
914.709	33.99
915.14	34.14
915.571	30.29
916.002	33.94
916.433	25.54
916.864	25.79
917.295	30.74
917.726	38.79
918.157	45.94
918.587	45.59
919.018	40.09
919.449	41.64
919.88	49.44
920.311	74.79
920.741	209.54
921.172	395.34
921.603	193.19
922.033	115.44
922.464	71.19
922.895	42.64
923.325	25.29
923.756	25.69
924.186	34.94
924.617	52.09
925.047	72.64
925.478	59.39
925.908	48.09
926.338	32.79
926.769	27.29
927.199	25.94
927.629	25.64
928.06	27.94
928.49	30.64
928.92	24.94
929.35	16.99
929.78	14.84
930.21	15.59
930.641	11.64
931.071	16.94
931.501	11.34
931.931	14.59
932.361	12.29
932.791	17.64
933.221	18.59
933.651	28.64
934.08	45.94
934.51	27.24
934.94	24.74
935.37	20.54
935.8	10.59
936.229	14.09
936.659	22.24
937.089	26.34
937.519	38.59
937.948	49.44
938.378	32.69
938.807	20.34
939.237	11.79
939.666	8.84
940.096	9.74
940.525	4.14
940.955	7.14
941.384	8.49
941.814	6.74
942.243	9.84
942.672	7.94
943.102	1.09
943.531	2.79
943.96	6.29
944.39	7.14
944.819	7.24
945.248	10.29
945.677	8.79
946.106	8.89
946.535	4.29
946.964	9.14
947.393	7.09
947.822	5.79
948.251	6.44
948.68	6.99
949.109	6.69
949.538	1.39
949.967	4.99
950.396	3.64
950.825	9.74
951.254	5.89
951.682	3.09
952.111	2.94
952.54	1.99
952.969	7.44
953.397	-0.21
953.826	4.94
954.254	7.24
954.683	8.64
955.112	9.09
955.54	5.74
955.969	5.14
956.397	3.74
956.826	7.24
957.254	2.74
957.682	5.49
958.111	8.84
958.539	7.69
958.967	4.59
959.396	9.69
959.824	4.09
960.252	2.79
960.68	4.54
961.109	3.29
961.537	5.84
961.965	-1.61
962.393	1.44
962.821	3.59
963.249	6.09
963.677	14.69
964.105	63.54
964.533	115.89
964.961	55.39
965.389	27.64
965.817	14.04
966.245	5.79
966.672	9.14
967.1	7.79
967.528	0.54
967.956	1.29
968.383	7.89
968.811	2.04
969.239	5.59
969.666	5.34
970.094	4.24
970.522	-2.21
970.949	1.64
971.377	-3.76
971.804	4.39
972.232	2.74
972.659	3.59
973.087	3.14
973.514	1.09
973.941	0.64
974.369	1.49
974.796	1.39
975.223	4.74
975.651	8.34
976.078	5.84
976.505	10.04
976.932	26.64
977.359	31.29
977.786	17.09
978.214	12.09
978.641	4.24
979.068	4.04
979.495	-2.56
979.922	5.44
980.349	6.74
980.776	5.34
981.202	2.99
981.629	3.49
982.056	5.09
982.483	-2.06
982.91	9.59
983.337	-3.06
983.763	1.94
984.19	3.49
984.617	0.44
985.043	5.44
985.47	2.44
985.897	2.79
986.323	6.44
986.75	-1.71
987.176	3.94
987.603	1.89
988.029	4.14
988.456	5.09
988.882	1.59
989.308	-1.66
989.735	1.44
990.161	3.54
990.587	-0.61
991.014	-1.41
991.44	4.94
991.866	1.79
992.292	2.04
992.719	0.09
993.145	3.39
993.571	5.79
993.997	4.19
994.423	6.89
994.849	-4.46
995.275	4.69
995.701	8.09
996.127	-0.96
996.553	1.74
996.979	-2.31
997.405	6.89
997.83	-0.31
998.256	4.44
998.682	2.64
999.108	5.44
999.534	-4.91
999.959	-2.66
1000.385	3.94
1000.811	-2.31
1001.236	-2.76
1001.662	-2.26
1002.087	6.89
1002.513	5.14
1002.938	0.09
1003.364	0.99
1003.789	4.89
1004.215	0.99
1004.64	1.54
1005.066	5.79
1005.491	5.19
1005.916	2.89
1006.342	3.89
1006.767	1.49
1007.192	6.24
1007.617	-1.16
1008.042	1.64
1008.468	1.74
1008.893	3.99
1009.318	5.69
1009.743	12.39
1010.168	22.49
1010.593	14.79
1011.018	11.79
1011.443	0.89
1011.868	6.49
1012.293	4.34
1012.718	3.39
1013.143	0.29
1013.567	7.04
1013.992	1.24
1014.417	3.69
1014.842	2.64
1015.267	1.99
1015.691	4.79
1016.116	0.54
1016.541	4.79
1016.965	0.39
1017.39	-0.61
1017.814	-3.61
1018.239	-2.86
1018.663	-5.71
1019.088	-2.91
1019.512	5.34
1019.937	-5.81
1020.361	0.49
1020.785	-4.21
1021.21	-2.41
1021.634	-3.21
1022.058	2.49
1022.483	-3.76
1022.907	-2.46
1023.331	-4.26
1023.755	1.49
1024.179	1.49
1024.604	2.54
1025.028	3.29
1025.452	1.89
1025.876	-0.56
1026.3	-0.81
1026.724	-3.96
1027.148	9.34
1027.572	-2.16
1027.996	2.39
1028.42	1.19
1028.843	-0.36
1029.267	-3.36
1029.691	0.04
1030.115	0.79
1030.539	-3.11
1030.962	-2.21
1031.386	-1.41
1031.81	0.14
1032.233	-2.86
1032.657	-1.76
1033.08	2.89
1033.504	3.79
1033.927	4.69
1034.351	-0.46
1034.774	1.19
1035.198	1.79
1035.621	-0.11
1036.045	0.09
1036.468	5.34
1036.891	-0.91
1037.315	-1.51
1037.738	0.04
1038.161	-3.06
1038.584	2.24
1039.008	-1.56
1039.431	-0.31
1039.854	-4.41
1040.277	-0.86
1040.7	1.39
1041.123	1.34
1041.546	0.04
1041.969	2.54
1042.392	4.49
1042.815	-4.26
1043.238	-0.66
1043.661	1.74
1044.084	-2.11
1044.507	-1.36
1044.93	1.54
1045.352	0.59
1045.775	-0.51
1046.198	2.39
1046.621	2.14
1047.043	-0.66
1047.466	0.79
1047.889	-2.71
1048.311	6.54
1048.734	-4.01
1049.156	-3.91
1049.579	0.34
1050.001	-1.81
1050.424	-0.86
1050.846	-1.96
1051.269	-6.76
1051.691	-2.91
1052.113	0.74
1052.536	-1.31
1052.958	-7.51
1053.38	1.39
1053.802	1.64
1054.225	-0.66
1054.647	8.39
1055.069	-3.86
1055.491	-3.31
1055.913	3.54
1056.335	-9.16
1056.757	-7.16
1057.179	-0.81
1057.601	-2.66
1058.023	-0.56
1058.445	-5.41
1058.867	1.64
1059.289	3.04
1059.711	-3.91
1060.133	-0.71
1060.555	-3.81
1060.976	-1.46
1061.398	-0.91
1061.82	-1.16
1062.241	0.04
1062.663	-1.61
1063.085	-3.36
1063.506	-2.76
1063.928	-2.26
1064.35	-1.56
1064.771	-4.21
1065.193	-1.76
1065.614	-2.36
1066.035	2.14
1066.457	2.24
1066.878	-0.96
1067.3	-3.26
1067.721	0.49
1068.142	6.14
1068.564	-0.21
1068.985	-1.01
1069.406	-6.31
1069.827	-0.21
1070.248	-0.91
1070.67	-5.36
1071.091	-3.81
1071.512	-5.16
1071.933	-4.11
1072.354	-5.11
1072.775	0.14
1073.196	-0.71
1073.617	-6.91
1074.038	-0.86
1074.459	-6.56
1074.88	0.34
1075.3	1.04
1075.721	-0.76
1076.142	-4.26
1076.563	-5.96
1076.983	-0.31
1077.404	-6.21
1077.825	0.94
1078.246	-5.36
1078.666	-5.31
1079.087	-2.56
1079.507	-3.51
1079.928	-1.26
1080.348	-3.46
1080.769	3.29
1081.189	-2.21
1081.61	-7.91
1082.03	-0.41
1082.451	1.19
1082.871	-6.61
1083.291	-2.06
1083.711	-0.16
1084.132	0.04
1084.552	-1.41
1084.972	-5.51
1085.392	-4.51
1085.813	-2.81
1086.233	-3.66
1086.653	-1.01
1087.073	2.29
1087.493	-2.71
1087.913	-4.21
1088.333	-0.51
1088.753	1.39
1089.173	2.64
1089.593	-0.46
1090.013	0.49
1090.433	-6.06
1090.852	5.04
1091.272	-4.81
1091.692	0.19
1092.112	-2.56
1092.531	-4.06
1092.951	0.29
1093.371	-3.71
1093.79	-2.31
1094.21	-4.06
1094.63	-0.46
1095.049	-0.06
1095.469	-7.46
1095.888	-0.06
1096.308	-1.91
1096.727	-3.31
1097.146	-2.91
1097.566	-1.76
1097.985	-1.36
1098.405	-2.46
1098.824	0.39
1099.243	-2.46
1099.662	-4.61
1100.082	-0.81
1100.501	-0.86
1100.92	2.94
1101.339	1.04
1101.758	3.94
