Data from 20170802-ORNL-NYSim-Air_HRD10391_10-38-31-665.txt Node
Date: Wed Aug 02 10:38:31 EDT 2017
User: Ender
Spectrometer: HR+D1039
Trigger mode: 0
Integration Time (sec): 1.100000E-3
Scans to average: 1
Electric dark correction enabled: true
Nonlinearity correction enabled: false
Boxcar width: 0
XAxis mode: Wavelengths
Number of Pixels in Spectrum: 2048
>>>>>Begin Spectral Data<<<<<
187.836	4.69
188.309	4.69
188.782	4.69
189.255	2.69
189.728	-4.31
190.201	-6.31
190.674	-4.31
191.147	-6.31
191.619	-20.31
192.092	1.69
192.565	-13.31
193.038	2.69
193.511	3.69
193.984	17.69
194.456	2.69
194.929	-3.31
195.402	9.69
195.874	12.69
196.347	20.69
196.82	17.69
197.292	24.69
197.765	24.69
198.237	29.69
198.71	50.69
199.182	49.69
199.655	45.69
200.127	32.69
200.6	61.69
201.072	60.69
201.544	42.69
202.017	50.69
202.489	74.69
202.961	76.69
203.433	72.69
203.906	71.69
204.378	87.69
204.85	76.69
205.322	84.69
205.794	84.69
206.266	84.69
206.739	88.69
207.211	83.69
207.683	80.69
208.155	101.69
208.627	85.69
209.099	84.69
209.57	79.69
210.042	90.69
210.514	75.69
210.986	95.69
211.458	87.69
211.93	93.69
212.402	102.69
212.873	64.69
213.345	74.69
213.817	69.69
214.288	93.69
214.76	91.69
215.232	83.69
215.703	86.69
216.175	78.69
216.646	86.69
217.118	78.69
217.589	77.69
218.061	85.69
218.532	84.69
219.004	74.69
219.475	67.69
219.946	75.69
220.418	82.69
220.889	78.69
221.36	70.69
221.832	58.69
222.303	76.69
222.774	66.69
223.245	78.69
223.717	85.69
224.188	96.69
224.659	70.69
225.13	68.69
225.601	84.69
226.072	75.69
226.543	92.69
227.014	78.69
227.485	74.69
227.956	82.69
228.427	84.69
228.898	82.69
229.369	79.69
229.839	83.69
230.31	81.69
230.781	91.69
231.252	69.69
231.722	68.69
232.193	74.69
232.664	95.69
233.135	80.69
233.605	83.69
234.076	76.69
234.546	81.69
235.017	82.69
235.487	78.69
235.958	87.69
236.428	82.69
236.899	86.69
237.369	90.69
237.84	107.69
238.31	100.69
238.78	85.69
239.251	89.69
239.721	80.69
240.191	82.69
240.662	96.69
241.132	102.69
241.602	96.69
242.072	88.69
242.542	95.69
243.013	80.69
243.483	86.69
243.953	74.69
244.423	97.69
244.893	98.69
245.363	83.69
245.833	71.69
246.303	90.69
246.773	90.69
247.243	86.69
247.712	93.69
248.182	79.69
248.652	93.69
249.122	102.69
249.592	135.69
250.061	134.69
250.531	152.69
251.001	142.69
251.471	141.69
251.94	102.69
252.41	99.69
252.879	102.69
253.349	95.69
253.818	77.69
254.288	86.69
254.757	92.69
255.227	88.69
255.696	86.69
256.166	90.69
256.635	97.69
257.105	116.69
257.574	112.69
258.043	112.69
258.513	112.69
258.982	131.69
259.451	108.69
259.92	114.69
260.389	104.69
260.859	102.69
261.328	112.69
261.797	122.69
262.266	124.69
262.735	80.69
263.204	75.69
263.673	89.69
264.142	95.69
264.611	84.69
265.08	81.69
265.549	92.69
266.018	98.69
266.487	74.69
266.955	76.69
267.424	84.69
267.893	78.69
268.362	69.69
268.83	77.69
269.299	88.69
269.768	83.69
270.236	92.69
270.705	107.69
271.174	92.69
271.642	100.69
272.111	106.69
272.579	110.69
273.048	116.69
273.516	136.69
273.985	124.69
274.453	132.69
274.922	108.69
275.39	96.69
275.858	105.69
276.327	100.69
276.795	95.69
277.263	104.69
277.731	112.69
278.2	129.69
278.668	125.69
279.136	106.69
279.604	88.69
280.072	91.69
280.54	79.69
281.008	96.69
281.477	106.69
281.945	103.69
282.413	113.69
282.881	93.69
283.348	96.69
283.816	87.69
284.284	96.69
284.752	89.69
285.22	81.69
285.688	109.69
286.156	112.69
286.623	165.69
287.091	230.69
287.559	150.69
288.026	109.69
288.494	101.69
288.962	106.69
289.429	99.69
289.897	84.69
290.364	95.69
290.832	97.69
291.3	110.69
291.767	100.69
292.234	86.69
292.702	101.69
293.169	101.69
293.637	97.69
294.104	104.69
294.571	113.69
295.039	98.69
295.506	108.69
295.973	104.69
296.44	99.69
296.908	98.69
297.375	106.69
297.842	103.69
298.309	93.69
298.776	119.69
299.243	107.69
299.71	107.69
300.177	107.69
300.644	112.69
301.111	112.69
301.578	101.69
302.045	105.69
302.512	115.69
302.979	87.69
303.446	104.69
303.913	116.69
304.379	106.69
304.846	121.69
305.313	129.69
305.78	113.69
306.246	113.69
306.713	138.69
307.18	125.69
307.646	143.69
308.113	129.69
308.579	106.69
309.046	102.69
309.512	103.69
309.979	118.69
310.445	114.69
310.912	101.69
311.378	100.69
311.845	105.69
312.311	131.69
312.777	103.69
313.244	112.69
313.71	116.69
314.176	104.69
314.642	115.69
315.109	121.69
315.575	119.69
316.041	118.69
316.507	117.69
316.973	146.69
317.439	114.69
317.905	128.69
318.371	110.69
318.837	128.69
319.303	107.69
319.769	141.69
320.235	113.69
320.701	129.69
321.167	149.69
321.633	145.69
322.099	188.69
322.564	200.69
323.03	191.69
323.496	127.69
323.962	132.69
324.427	126.69
324.893	120.69
325.359	137.69
325.824	133.69
326.29	130.69
326.755	124.69
327.221	118.69
327.686	128.69
328.152	120.69
328.617	131.69
329.083	121.69
329.548	120.69
330.014	131.69
330.479	124.69
330.944	147.69
331.41	159.69
331.875	142.69
332.34	157.69
332.805	158.69
333.271	186.69
333.736	205.69
334.201	198.69
334.666	155.69
335.131	192.69
335.596	156.69
336.061	160.69
336.526	154.69
336.991	150.69
337.456	153.69
337.921	144.69
338.386	141.69
338.851	132.69
339.316	116.69
339.781	128.69
340.246	142.69
340.711	116.69
341.175	123.69
341.64	120.69
342.105	108.69
342.569	140.69
343.034	105.69
343.499	157.69
343.963	147.69
344.428	142.69
344.893	129.69
345.357	138.69
345.822	132.69
346.286	135.69
346.751	155.69
347.215	131.69
347.679	150.69
348.144	152.69
348.608	147.69
349.073	134.69
349.537	163.69
350.001	152.69
350.465	150.69
350.93	144.69
351.394	143.69
351.858	151.69
352.322	145.69
352.786	142.69
353.25	163.69
353.715	150.69
354.179	151.69
354.643	156.69
355.107	162.69
355.571	180.69
356.035	165.69
356.498	146.69
356.962	182.69
357.426	183.69
357.89	144.69
358.354	145.69
358.818	156.69
359.281	148.69
359.745	159.69
360.209	148.69
360.673	159.69
361.136	140.69
361.6	155.69
362.064	162.69
362.527	162.69
362.991	161.69
363.454	184.69
363.918	160.69
364.381	153.69
364.845	170.69
365.308	155.69
365.772	166.69
366.235	145.69
366.698	148.69
367.162	174.69
367.625	216.69
368.088	184.69
368.552	176.69
369.015	161.69
369.478	173.69
369.941	187.69
370.404	182.69
370.867	184.69
371.331	190.69
371.794	191.69
372.257	191.69
372.72	195.69
373.183	192.69
373.646	188.69
374.109	208.69
374.572	223.69
375.035	249.69
375.497	215.69
375.96	186.69
376.423	160.69
376.886	171.69
377.349	184.69
377.811	192.69
378.274	170.69
378.737	193.69
379.199	161.69
379.662	184.69
380.125	197.69
380.587	202.69
381.05	215.69
381.512	219.69
381.975	217.69
382.437	209.69
382.9	208.69
383.362	208.69
383.825	239.69
384.287	262.69
384.75	292.69
385.212	290.69
385.674	225.69
386.136	212.69
386.599	213.69
387.061	214.69
387.523	241.69
387.985	221.69
388.447	211.69
388.91	236.69
389.372	266.69
389.834	282.69
390.296	252.69
390.758	237.69
391.22	234.69
391.682	260.69
392.144	388.69
392.606	362.69
393.068	246.69
393.529	238.69
393.991	224.69
394.453	220.69
394.915	244.69
395.377	274.69
395.838	315.69
396.3	228.69
396.762	204.69
397.224	202.69
397.685	193.69
398.147	212.69
398.608	206.69
399.07	196.69
399.531	204.69
399.993	216.69
400.454	223.69
400.916	205.69
401.377	221.69
401.839	228.69
402.3	199.69
402.762	217.69
403.223	227.69
403.684	248.69
404.145	224.69
404.607	185.69
405.068	210.69
405.529	236.69
405.99	212.69
406.451	218.69
406.913	195.69
407.374	208.69
407.835	253.69
408.296	221.69
408.757	226.69
409.218	271.69
409.679	235.69
410.14	238.69
410.601	253.69
411.062	273.69
411.522	304.69
411.983	312.69
412.444	264.69
412.905	242.69
413.366	244.69
413.826	248.69
414.287	261.69
414.748	309.69
415.208	336.69
415.669	281.69
416.13	254.69
416.59	256.69
417.051	272.69
417.511	288.69
417.972	288.69
418.432	290.69
418.893	321.69
419.353	317.69
419.814	259.69
420.274	253.69
420.734	242.69
421.195	250.69
421.655	283.69
422.115	248.69
422.576	250.69
423.036	273.69
423.496	252.69
423.956	260.69
424.416	255.69
424.876	307.69
425.336	290.69
425.797	286.69
426.257	320.69
426.717	293.69
427.177	280.69
427.637	264.69
428.097	291.69
428.556	317.69
429.016	334.69
429.476	325.69
429.936	336.69
430.396	308.69
430.856	309.69
431.315	334.69
431.775	348.69
432.235	337.69
432.694	358.69
433.154	351.69
433.614	347.69
434.073	332.69
434.533	314.69
434.993	308.69
435.452	295.69
435.912	299.69
436.371	268.69
436.83	293.69
437.29	290.69
437.749	283.69
438.209	276.69
438.668	282.69
439.127	284.69
439.587	297.69
440.046	305.69
440.505	282.69
440.964	302.69
441.424	269.69
441.883	276.69
442.342	265.69
442.801	246.69
443.26	275.69
443.719	283.69
444.178	267.69
444.637	257.69
445.096	261.69
445.555	275.69
446.014	270.69
446.473	246.69
446.932	295.69
447.391	248.69
447.849	268.69
448.308	292.69
448.767	293.69
449.226	279.69
449.685	283.69
450.143	265.69
450.602	306.69
451.061	292.69
451.519	279.69
451.978	292.69
452.436	316.69
452.895	271.69
453.353	284.69
453.812	300.69
454.27	293.69
454.729	259.69
455.187	272.69
455.646	293.69
456.104	271.69
456.562	279.69
457.021	297.69
457.479	268.69
457.937	284.69
458.395	286.69
458.854	280.69
459.312	288.69
459.77	289.69
460.228	248.69
460.686	286.69
461.144	278.69
461.602	268.69
462.06	276.69
462.518	267.69
462.976	282.69
463.434	270.69
463.892	322.69
464.35	292.69
464.808	306.69
465.266	308.69
465.724	298.69
466.181	316.69
466.639	294.69
467.097	301.69
467.555	327.69
468.012	306.69
468.47	328.69
468.928	338.69
469.385	315.69
469.843	322.69
470.3	312.69
470.758	341.69
471.215	353.69
471.673	356.69
472.13	378.69
472.588	359.69
473.045	364.69
473.503	374.69
473.96	394.69
474.417	406.69
474.875	435.69
475.332	427.69
475.789	406.69
476.246	425.69
476.704	482.69
477.161	484.69
477.618	490.69
478.075	530.69
478.532	542.69
478.989	568.69
479.446	628.69
479.903	655.69
480.36	718.69
480.817	786.69
481.274	832.69
481.731	888.69
482.188	981.69
482.645	1071.69
483.102	1153.69
483.558	1196.69
484.015	1324.69
484.472	1293.69
484.929	1308.69
485.385	1216.69
485.842	1179.69
486.299	1143.69
486.755	1002.69
487.212	870.69
487.668	798.69
488.125	748.69
488.582	686.69
489.038	652.69
489.494	661.69
489.951	596.69
490.407	623.69
490.864	566.69
491.32	559.69
491.776	550.69
492.233	563.69
492.689	553.69
493.145	545.69
493.602	543.69
494.058	553.69
494.514	596.69
494.97	564.69
495.426	576.69
495.882	572.69
496.338	567.69
496.794	620.69
497.251	630.69
497.707	601.69
498.163	610.69
498.618	618.69
499.074	592.69
499.53	605.69
499.986	629.69
500.442	618.69
500.898	617.69
501.354	616.69
501.809	619.69
502.265	629.69
502.721	656.69
503.177	673.69
503.632	658.69
504.088	635.69
504.543	723.69
504.999	695.69
505.455	594.69
505.91	590.69
506.366	557.69
506.821	552.69
507.277	542.69
507.732	561.69
508.187	550.69
508.643	572.69
509.098	578.69
509.553	605.69
510.009	587.69
510.464	602.69
510.919	583.69
511.375	618.69
511.83	592.69
512.285	636.69
512.74	633.69
513.195	632.69
513.65	641.69
514.105	653.69
514.56	671.69
515.015	673.69
515.47	698.69
515.925	663.69
516.38	673.69
516.835	677.69
517.29	680.69
517.745	684.69
518.2	684.69
518.655	639.69
519.109	642.69
519.564	664.69
520.019	666.69
520.474	650.69
520.928	609.69
521.383	617.69
521.838	612.69
522.292	596.69
522.747	630.69
523.201	620.69
523.656	610.69
524.11	605.69
524.565	610.69
525.019	604.69
525.474	617.69
525.928	626.69
526.382	582.69
526.837	597.69
527.291	586.69
527.745	576.69
528.2	604.69
528.654	612.69
529.108	568.69
529.562	604.69
530.016	598.69
530.47	581.69
530.925	595.69
531.379	602.69
531.833	602.69
532.287	596.69
532.741	611.69
533.195	602.69
533.649	609.69
534.103	570.69
534.556	596.69
535.01	582.69
535.464	588.69
535.918	630.69
536.372	599.69
536.826	616.69
537.279	580.69
537.733	589.69
538.187	597.69
538.64	563.69
539.094	611.69
539.548	615.69
540.001	613.69
540.455	604.69
540.908	650.69
541.362	654.69
541.815	646.69
542.269	657.69
542.722	637.69
543.175	672.69
543.629	665.69
544.082	645.69
544.536	636.69
544.989	662.69
545.442	662.69
545.895	668.69
546.349	677.69
546.802	638.69
547.255	678.69
547.708	668.69
548.161	661.69
548.614	704.69
549.067	698.69
549.52	659.69
549.973	659.69
550.426	638.69
550.879	676.69
551.332	678.69
551.785	651.69
552.238	660.69
552.691	688.69
553.144	693.69
553.596	674.69
554.049	673.69
554.502	718.69
554.955	724.69
555.407	750.69
555.86	721.69
556.313	691.69
556.765	687.69
557.218	673.69
557.67	715.69
558.123	698.69
558.576	694.69
559.028	690.69
559.48	700.69
559.933	695.69
560.385	666.69
560.838	635.69
561.29	662.69
561.742	639.69
562.195	640.69
562.647	605.69
563.099	607.69
563.551	625.69
564.004	627.69
564.456	651.69
564.908	637.69
565.36	620.69
565.812	602.69
566.264	617.69
566.716	612.69
567.168	578.69
567.62	574.69
568.072	549.69
568.524	546.69
568.976	570.69
569.428	571.69
569.88	571.69
570.332	571.69
570.784	566.69
571.235	568.69
571.687	554.69
572.139	590.69
572.59	612.69
573.042	567.69
573.494	547.69
573.945	580.69
574.397	554.69
574.849	561.69
575.3	555.69
575.752	565.69
576.203	539.69
576.655	582.69
577.106	536.69
577.557	551.69
578.009	534.69
578.46	552.69
578.912	538.69
579.363	543.69
579.814	545.69
580.265	548.69
580.717	530.69
581.168	550.69
581.619	546.69
582.07	532.69
582.521	566.69
582.972	560.69
583.423	557.69
583.875	580.69
584.326	598.69
584.777	636.69
585.227	749.69
585.678	823.69
586.129	886.69
586.58	947.69
587.031	1002.69
587.482	1020.69
587.933	1300.69
588.384	1192.69
588.834	951.69
589.285	670.69
589.736	637.69
590.186	634.69
590.637	618.69
591.088	571.69
591.538	584.69
591.989	588.69
592.439	620.69
592.89	556.69
593.34	596.69
593.791	617.69
594.241	569.69
594.692	602.69
595.142	584.69
595.593	573.69
596.043	585.69
596.493	580.69
596.943	632.69
597.394	586.69
597.844	598.69
598.294	602.69
598.744	594.69
599.195	616.69
599.645	675.69
600.095	673.69
600.545	710.69
600.995	732.69
601.445	796.69
601.895	795.69
602.345	829.69
602.795	811.69
603.245	814.69
603.695	721.69
604.145	696.69
604.594	683.69
605.044	632.69
605.494	621.69
605.944	609.69
606.393	567.69
606.843	548.69
607.293	576.69
607.743	607.69
608.192	564.69
608.642	569.69
609.091	575.69
609.541	584.69
609.99	583.69
610.44	578.69
610.889	569.69
611.339	568.69
611.788	587.69
612.238	577.69
612.687	551.69
613.136	574.69
613.586	588.69
614.035	575.69
614.484	587.69
614.933	585.69
615.383	599.69
615.832	597.69
616.281	578.69
616.73	556.69
617.179	531.69
617.628	534.69
618.077	542.69
618.526	499.69
618.975	519.69
619.424	507.69
619.873	538.69
620.322	511.69
620.771	512.69
621.22	492.69
621.669	492.69
622.118	488.69
622.567	474.69
623.015	483.69
623.464	488.69
623.913	471.69
624.361	459.69
624.81	468.69
625.259	450.69
625.707	464.69
626.156	473.69
626.604	458.69
627.053	488.69
627.501	452.69
627.95	479.69
628.398	463.69
628.847	461.69
629.295	462.69
629.744	436.69
630.192	461.69
630.64	479.69
631.089	544.69
631.537	568.69
631.985	582.69
632.433	596.69
632.881	580.69
633.33	660.69
633.778	783.69
634.226	585.69
634.674	519.69
635.122	542.69
635.57	504.69
636.018	582.69
636.466	514.69
636.914	441.69
637.362	478.69
637.81	446.69
638.258	459.69
638.705	461.69
639.153	475.69
639.601	504.69
640.049	497.69
640.497	486.69
640.944	484.69
641.392	518.69
641.84	470.69
642.287	460.69
642.735	447.69
643.182	462.69
643.63	460.69
644.078	448.69
644.525	452.69
644.973	486.69
645.42	475.69
645.867	478.69
646.315	484.69
646.762	508.69
647.21	520.69
647.657	534.69
648.104	599.69
648.551	582.69
648.999	644.69
649.446	698.69
649.893	756.69
650.34	849.69
650.787	1082.69
651.234	1296.69
651.682	1753.69
652.129	2525.69
652.576	3640.69
653.023	5153.69
653.47	6340.69
653.917	7018.69
654.363	7480.69
654.81	7860.69
655.257	8114.69
655.704	6148.69
656.151	3614.69
656.598	2262.69
657.044	1598.69
657.491	1221.69
657.938	1019.69
658.385	851.69
658.831	763.69
659.278	667.69
659.724	622.69
660.171	551.69
660.618	503.69
661.064	519.69
661.511	493.69
661.957	475.69
662.404	450.69
662.85	446.69
663.296	424.69
663.743	446.69
664.189	438.69
664.635	445.69
665.082	408.69
665.528	398.69
665.974	432.69
666.42	400.69
666.867	428.69
667.313	420.69
667.759	440.69
668.205	504.69
668.651	475.69
669.097	473.69
669.543	511.69
669.989	536.69
670.435	395.69
670.881	392.69
671.327	400.69
671.773	408.69
672.219	430.69
672.665	435.69
673.11	485.69
673.556	481.69
674.002	470.69
674.448	489.69
674.893	436.69
675.339	387.69
675.785	355.69
676.23	361.69
676.676	324.69
677.122	343.69
677.567	321.69
678.013	306.69
678.458	310.69
678.904	304.69
679.349	300.69
679.794	301.69
680.24	329.69
680.685	307.69
681.131	294.69
681.576	314.69
682.021	314.69
682.466	312.69
682.912	326.69
683.357	287.69
683.802	331.69
684.247	354.69
684.692	368.69
685.137	387.69
685.583	397.69
686.028	439.69
686.473	410.69
686.918	364.69
687.363	342.69
687.807	336.69
688.252	321.69
688.697	313.69
689.142	310.69
689.587	303.69
690.032	283.69
690.477	315.69
690.921	314.69
691.366	345.69
691.811	337.69
692.255	370.69
692.7	420.69
693.145	502.69
693.589	684.69
694.034	888.69
694.478	1009.69
694.923	911.69
695.367	1090.69
695.812	998.69
696.256	462.69
696.701	341.69
697.145	307.69
697.59	311.69
698.034	283.69
698.478	272.69
698.922	295.69
699.367	311.69
699.811	317.69
700.255	296.69
700.699	350.69
701.143	377.69
701.588	390.69
702.032	395.69
702.476	418.69
702.92	419.69
703.364	478.69
703.808	649.69
704.252	851.69
704.696	950.69
705.14	900.69
705.584	1054.69
706.027	866.69
706.471	451.69
706.915	349.69
707.359	289.69
707.803	295.69
708.246	292.69
708.69	287.69
709.134	285.69
709.577	273.69
710.021	289.69
710.465	280.69
710.908	269.69
711.352	289.69
711.795	317.69
712.239	314.69
712.682	358.69
713.126	363.69
713.569	358.69
714.012	337.69
714.456	290.69
714.899	278.69
715.342	272.69
715.786	235.69
716.229	262.69
716.672	245.69
717.115	264.69
717.558	261.69
718.002	260.69
718.445	253.69
718.888	280.69
719.331	292.69
719.774	281.69
720.217	272.69
720.66	262.69
721.103	261.69
721.546	248.69
721.989	248.69
722.432	241.69
722.874	234.69
723.317	241.69
723.76	242.69
724.203	275.69
724.645	331.69
725.088	392.69
725.531	407.69
725.974	418.69
726.416	434.69
726.859	305.69
727.301	248.69
727.744	228.69
728.187	250.69
728.629	224.69
729.071	255.69
729.514	261.69
729.956	266.69
730.399	284.69
730.841	254.69
731.283	269.69
731.726	252.69
732.168	260.69
732.61	262.69
733.053	283.69
733.495	292.69
733.937	300.69
734.379	364.69
734.821	406.69
735.263	505.69
735.705	853.69
736.148	1286.69
736.59	1530.69
737.032	1428.69
737.474	1490.69
737.916	758.69
738.357	390.69
738.799	282.69
739.241	272.69
739.683	266.69
740.125	274.69
740.567	289.69
741.008	280.69
741.45	276.69
741.892	299.69
742.334	306.69
742.775	292.69
743.217	301.69
743.658	265.69
744.1	286.69
744.542	276.69
744.983	293.69
745.425	280.69
745.866	305.69
746.307	281.69
746.749	273.69
747.19	338.69
747.632	534.69
748.073	954.69
748.514	1400.69
748.956	1678.69
749.397	2250.69
749.838	1784.69
750.279	1496.69
750.72	1101.69
751.162	534.69
751.603	321.69
752.044	246.69
752.485	229.69
752.926	217.69
753.367	216.69
753.808	207.69
754.249	228.69
754.69	208.69
755.131	220.69
755.572	213.69
756.013	212.69
756.453	201.69
756.894	191.69
757.335	206.69
757.776	216.69
758.216	214.69
758.657	240.69
759.098	230.69
759.538	244.69
759.979	301.69
760.42	436.69
760.86	904.69
761.301	2040.69
761.741	2923.69
762.182	3064.69
762.622	2742.69
763.063	1306.69
763.503	620.69
763.943	586.69
764.384	927.69
764.824	1056.69
765.264	1060.69
765.705	696.69
766.145	372.69
766.585	286.69
767.025	291.69
767.465	422.69
767.906	714.69
768.346	800.69
768.786	789.69
769.226	475.69
769.666	436.69
770.106	760.69
770.546	1261.69
770.986	1345.69
771.426	1294.69
771.866	722.69
772.306	380.69
772.745	247.69
773.185	214.69
773.625	219.69
774.065	218.69
774.505	264.69
774.944	465.69
775.384	792.69
775.824	921.69
776.263	846.69
776.703	579.69
777.142	319.69
777.582	218.69
778.021	228.69
778.461	214.69
778.9	230.69
779.34	183.69
779.779	156.69
780.219	173.69
780.658	168.69
781.097	165.69
781.537	144.69
781.976	140.69
782.415	149.69
782.855	152.69
783.294	158.69
783.733	166.69
784.172	152.69
784.611	168.69
785.05	181.69
785.489	162.69
785.928	144.69
786.367	150.69
786.806	173.69
787.245	171.69
787.684	190.69
788.123	168.69
788.562	183.69
789.001	178.69
789.44	172.69
789.879	172.69
790.317	163.69
790.756	166.69
791.195	165.69
791.634	189.69
792.072	258.69
792.511	481.69
792.95	1000.69
793.388	1224.69
793.827	1078.69
794.265	629.69
794.704	335.69
795.142	220.69
795.581	171.69
796.019	174.69
796.458	180.69
796.896	176.69
797.334	179.69
797.773	197.69
798.211	285.69
798.649	491.69
799.087	778.69
799.526	1172.69
799.964	1270.69
800.402	1097.69
800.84	620.69
801.278	332.69
801.716	230.69
802.154	216.69
802.592	190.69
803.03	190.69
803.468	182.69
803.906	167.69
804.344	180.69
804.782	176.69
805.22	192.69
805.658	198.69
806.096	176.69
806.533	197.69
806.971	208.69
807.409	260.69
807.847	398.69
808.284	811.69
808.722	1498.69
809.16	2024.69
809.597	2762.69
810.035	3495.69
810.472	2974.69
810.91	1601.69
811.347	814.69
811.785	410.69
812.222	264.69
812.66	232.69
813.097	196.69
813.535	179.69
813.972	172.69
814.409	169.69
814.846	145.69
815.284	145.69
815.721	172.69
816.158	161.69
816.595	156.69
817.032	185.69
817.47	186.69
817.907	206.69
818.344	157.69
818.781	148.69
819.218	170.69
819.655	187.69
820.092	204.69
820.529	220.69
820.966	219.69
821.403	182.69
821.839	173.69
822.276	152.69
822.713	161.69
823.15	155.69
823.587	173.69
824.023	208.69
824.46	387.69
824.897	702.69
825.333	760.69
825.77	435.69
826.206	274.69
826.643	195.69
827.08	158.69
827.516	128.69
827.953	140.69
828.389	135.69
828.825	147.69
829.262	141.69
829.698	136.69
830.135	121.69
830.571	131.69
831.007	126.69
831.443	132.69
831.88	124.69
832.316	118.69
832.752	145.69
833.188	140.69
833.624	128.69
834.06	143.69
834.497	139.69
834.933	133.69
835.369	125.69
835.805	139.69
836.241	126.69
836.677	150.69
837.112	154.69
837.548	168.69
837.984	192.69
838.42	284.69
838.856	582.69
839.292	1203.69
839.727	1274.69
840.163	857.69
840.599	987.69
841.034	1494.69
841.47	1163.69
841.906	641.69
842.341	377.69
842.777	303.69
843.212	356.69
843.648	287.69
844.083	202.69
844.519	179.69
844.954	138.69
845.39	118.69
845.825	125.69
846.261	116.69
846.696	128.69
847.131	123.69
847.566	122.69
848.002	119.69
848.437	110.69
848.872	131.69
849.307	154.69
849.742	145.69
850.177	265.69
850.613	497.69
851.048	539.69
851.483	326.69
851.918	225.69
852.353	148.69
852.788	142.69
853.223	127.69
853.657	126.69
854.092	136.69
854.527	141.69
854.962	132.69
855.397	135.69
855.832	112.69
856.266	95.69
856.701	118.69
857.136	115.69
857.57	126.69
858.005	126.69
858.44	102.69
858.874	112.69
859.309	112.69
859.743	125.69
860.178	117.69
860.612	128.69
861.047	122.69
861.481	139.69
861.915	123.69
862.35	118.69
862.784	122.69
863.218	104.69
863.653	116.69
864.087	136.69
864.521	127.69
864.955	148.69
865.39	225.69
865.824	166.69
866.258	171.69
866.692	204.69
867.126	189.69
867.56	128.69
867.994	142.69
868.428	107.69
868.862	120.69
869.296	115.69
869.73	120.69
870.164	120.69
870.598	125.69
871.031	118.69
871.465	122.69
871.899	106.69
872.333	96.69
872.766	97.69
873.2	110.69
873.634	104.69
874.067	97.69
874.501	90.69
874.935	105.69
875.368	107.69
875.802	107.69
876.235	104.69
876.669	98.69
877.102	106.69
877.535	110.69
877.969	108.69
878.402	99.69
878.836	102.69
879.269	95.69
879.702	109.69
880.135	94.69
880.569	87.69
881.002	99.69
881.435	123.69
881.868	105.69
882.301	89.69
882.734	111.69
883.167	108.69
883.601	96.69
884.034	104.69
884.467	105.69
884.899	90.69
885.332	114.69
885.765	113.69
886.198	98.69
886.631	108.69
887.064	80.69
887.497	102.69
887.929	96.69
888.362	101.69
888.795	107.69
889.228	106.69
889.66	105.69
890.093	92.69
890.526	101.69
890.958	99.69
891.391	110.69
891.823	100.69
892.256	94.69
892.688	98.69
893.121	94.69
893.553	88.69
893.985	80.69
894.418	85.69
894.85	93.69
895.282	95.69
895.715	99.69
896.147	111.69
896.579	103.69
897.011	91.69
897.444	96.69
897.876	94.69
898.308	88.69
898.74	96.69
899.172	98.69
899.604	101.69
900.036	82.69
900.468	94.69
900.9	91.69
901.332	96.69
901.764	127.69
902.196	99.69
902.628	97.69
903.06	92.69
903.491	112.69
903.923	110.69
904.355	100.69
904.787	102.69
905.218	91.69
905.65	102.69
906.082	103.69
906.513	95.69
906.945	91.69
907.376	111.69
907.808	92.69
908.239	94.69
908.671	96.69
909.102	95.69
909.534	109.69
909.965	130.69
910.397	166.69
910.828	301.69
911.259	343.69
911.691	227.69
912.122	160.69
912.553	131.69
912.984	115.69
913.415	98.69
913.847	92.69
914.278	115.69
914.709	94.69
915.14	113.69
915.571	100.69
916.002	89.69
916.433	113.69
916.864	104.69
917.295	104.69
917.726	97.69
918.157	97.69
918.587	109.69
919.018	103.69
919.449	99.69
919.88	100.69
920.311	94.69
920.741	130.69
921.172	200.69
921.603	184.69
922.033	154.69
922.464	127.69
922.895	102.69
923.325	90.69
923.756	107.69
924.186	101.69
924.617	98.69
925.047	118.69
925.478	134.69
925.908	118.69
926.338	120.69
926.769	96.69
927.199	98.69
927.629	97.69
928.06	71.69
928.49	99.69
928.92	92.69
929.35	102.69
929.78	83.69
930.21	86.69
930.641	79.69
931.071	78.69
931.501	77.69
931.931	84.69
932.361	83.69
932.791	104.69
933.221	118.69
933.651	99.69
934.08	98.69
934.51	102.69
934.94	102.69
935.37	72.69
935.8	91.69
936.229	98.69
936.659	79.69
937.089	90.69
937.519	88.69
937.948	92.69
938.378	97.69
938.807	89.69
939.237	102.69
939.666	99.69
940.096	102.69
940.525	87.69
940.955	74.69
941.384	94.69
941.814	81.69
942.243	90.69
942.672	95.69
943.102	95.69
943.531	81.69
943.96	77.69
944.39	77.69
944.819	74.69
945.248	77.69
945.677	83.69
946.106	94.69
946.535	80.69
946.964	80.69
947.393	66.69
947.822	104.69
948.251	95.69
948.68	91.69
949.109	106.69
949.538	100.69
949.967	85.69
950.396	88.69
950.825	81.69
951.254	92.69
951.682	92.69
952.111	91.69
952.54	86.69
952.969	90.69
953.397	82.69
953.826	84.69
954.254	89.69
954.683	69.69
955.112	80.69
955.54	81.69
955.969	91.69
956.397	74.69
956.826	89.69
957.254	78.69
957.682	83.69
958.111	79.69
958.539	92.69
958.967	86.69
959.396	75.69
959.824	84.69
960.252	76.69
960.68	88.69
961.109	95.69
961.537	97.69
961.965	91.69
962.393	83.69
962.821	76.69
963.249	74.69
963.677	100.69
964.105	92.69
964.533	123.69
964.961	103.69
965.389	124.69
965.817	86.69
966.245	92.69
966.672	76.69
967.1	74.69
967.528	88.69
967.956	94.69
968.383	104.69
968.811	92.69
969.239	83.69
969.666	78.69
970.094	66.69
970.522	91.69
970.949	73.69
971.377	82.69
971.804	88.69
972.232	94.69
972.659	88.69
973.087	74.69
973.514	89.69
973.941	71.69
974.369	91.69
974.796	82.69
975.223	92.69
975.651	80.69
976.078	100.69
976.505	86.69
976.932	81.69
977.359	96.69
977.786	98.69
978.214	92.69
978.641	90.69
979.068	73.69
979.495	84.69
979.922	74.69
980.349	80.69
980.776	73.69
981.202	80.69
981.629	76.69
982.056	80.69
982.483	90.69
982.91	79.69
983.337	70.69
983.763	78.69
984.19	71.69
984.617	75.69
985.043	104.69
985.47	97.69
985.897	101.69
986.323	89.69
986.75	97.69
987.176	80.69
987.603	100.69
988.029	92.69
988.456	85.69
988.882	81.69
989.308	83.69
989.735	78.69
990.161	82.69
990.587	74.69
991.014	74.69
991.44	80.69
991.866	90.69
992.292	86.69
992.719	70.69
993.145	80.69
993.571	78.69
993.997	75.69
994.423	78.69
994.849	94.69
995.275	77.69
995.701	83.69
996.127	93.69
996.553	82.69
996.979	95.69
997.405	86.69
997.83	88.69
998.256	73.69
998.682	83.69
999.108	80.69
999.534	86.69
999.959	75.69
1000.385	77.69
1000.811	91.69
1001.236	97.69
1001.662	76.69
1002.087	81.69
1002.513	83.69
1002.938	98.69
1003.364	84.69
1003.789	92.69
1004.215	81.69
1004.64	90.69
1005.066	96.69
1005.491	92.69
1005.916	104.69
1006.342	85.69
1006.767	92.69
1007.192	80.69
1007.617	80.69
1008.042	76.69
1008.468	88.69
1008.893	84.69
1009.318	78.69
1009.743	86.69
1010.168	96.69
1010.593	80.69
1011.018	76.69
1011.443	70.69
1011.868	71.69
1012.293	65.69
1012.718	71.69
1013.143	79.69
1013.567	90.69
1013.992	74.69
1014.417	86.69
1014.842	84.69
1015.267	83.69
1015.691	100.69
1016.116	79.69
1016.541	103.69
1016.965	82.69
1017.39	90.69
1017.814	88.69
1018.239	74.69
1018.663	89.69
1019.088	86.69
1019.512	87.69
1019.937	83.69
1020.361	92.69
1020.785	77.69
1021.21	70.69
1021.634	96.69
1022.058	81.69
1022.483	86.69
1022.907	81.69
1023.331	88.69
1023.755	88.69
1024.179	97.69
1024.604	75.69
1025.028	67.69
1025.452	71.69
1025.876	77.69
1026.3	78.69
1026.724	80.69
1027.148	92.69
1027.572	79.69
1027.996	80.69
1028.42	75.69
1028.843	78.69
1029.267	82.69
1029.691	76.69
1030.115	75.69
1030.539	87.69
1030.962	102.69
1031.386	84.69
1031.81	84.69
1032.233	88.69
1032.657	82.69
1033.08	84.69
1033.504	92.69
1033.927	75.69
1034.351	86.69
1034.774	85.69
1035.198	53.69
1035.621	59.69
1036.045	79.69
1036.468	86.69
1036.891	82.69
1037.315	98.69
1037.738	80.69
1038.161	100.69
1038.584	80.69
1039.008	86.69
1039.431	80.69
1039.854	81.69
1040.277	86.69
1040.7	78.69
1041.123	81.69
1041.546	92.69
1041.969	93.69
1042.392	98.69
1042.815	79.69
1043.238	79.69
1043.661	84.69
1044.084	87.69
1044.507	77.69
1044.93	68.69
1045.352	73.69
1045.775	75.69
1046.198	96.69
1046.621	86.69
1047.043	80.69
1047.466	86.69
1047.889	86.69
1048.311	87.69
1048.734	85.69
1049.156	78.69
1049.579	98.69
1050.001	70.69
1050.424	76.69
1050.846	71.69
1051.269	90.69
1051.691	83.69
1052.113	77.69
1052.536	88.69
1052.958	92.69
1053.38	80.69
1053.802	69.69
1054.225	89.69
1054.647	70.69
1055.069	84.69
1055.491	82.69
1055.913	62.69
1056.335	78.69
1056.757	62.69
1057.179	74.69
1057.601	81.69
1058.023	62.69
1058.445	79.69
1058.867	91.69
1059.289	86.69
1059.711	62.69
1060.133	79.69
1060.555	66.69
1060.976	64.69
1061.398	93.69
1061.82	71.69
1062.241	77.69
1062.663	88.69
1063.085	92.69
1063.506	92.69
1063.928	72.69
1064.35	90.69
1064.771	79.69
1065.193	84.69
1065.614	78.69
1066.035	117.69
1066.457	82.69
1066.878	89.69
1067.3	71.69
1067.721	100.69
1068.142	90.69
1068.564	94.69
1068.985	78.69
1069.406	91.69
1069.827	82.69
1070.248	76.69
1070.67	88.69
1071.091	77.69
1071.512	80.69
1071.933	93.69
1072.354	76.69
1072.775	95.69
1073.196	68.69
1073.617	90.69
1074.038	97.69
1074.459	96.69
1074.88	94.69
1075.3	89.69
1075.721	66.69
1076.142	94.69
1076.563	95.69
1076.983	72.69
1077.404	88.69
1077.825	78.69
1078.246	79.69
1078.666	86.69
1079.087	68.69
1079.507	88.69
1079.928	81.69
1080.348	81.69
1080.769	87.69
1081.189	85.69
1081.61	72.69
1082.03	88.69
1082.451	82.69
1082.871	104.69
1083.291	81.69
1083.711	80.69
1084.132	88.69
1084.552	71.69
1084.972	109.69
1085.392	85.69
1085.813	78.69
1086.233	71.69
1086.653	104.69
1087.073	108.69
1087.493	76.69
1087.913	77.69
1088.333	78.69
1088.753	79.69
1089.173	91.69
1089.593	84.69
1090.013	74.69
1090.433	79.69
1090.852	84.69
1091.272	68.69
1091.692	80.69
1092.112	87.69
1092.531	88.69
1092.951	79.69
1093.371	71.69
1093.79	88.69
1094.21	85.69
1094.63	79.69
1095.049	82.69
1095.469	92.69
1095.888	87.69
1096.308	75.69
1096.727	78.69
1097.146	82.69
1097.566	73.69
1097.985	78.69
1098.405	77.69
1098.824	81.69
1099.243	84.69
1099.662	94.69
1100.082	78.69
1100.501	86.69
1100.92	92.69
1101.339	87.69
1101.758	76.69
