Data from 20170802-ORNL-NYSim-Air_HRD10391_10-38-50-675.txt Node
Date: Wed Aug 02 10:38:50 EDT 2017
User: Ender
Spectrometer: HR+D1039
Trigger mode: 0
Integration Time (sec): 1.100000E-3
Scans to average: 1
Electric dark correction enabled: true
Nonlinearity correction enabled: false
Boxcar width: 0
XAxis mode: Wavelengths
Number of Pixels in Spectrum: 2048
>>>>>Begin Spectral Data<<<<<
187.836	2.06
188.309	2.06
188.782	2.06
189.255	4.06
189.728	-3.94
190.201	-26.94
190.674	2.06
191.147	-9.94
191.619	-11.94
192.092	-1.94
192.565	-0.94
193.038	2.06
193.511	-0.94
193.984	10.06
194.456	-6.94
194.929	-1.94
195.402	18.06
195.874	27.06
196.347	14.06
196.82	32.06
197.292	32.06
197.765	41.06
198.237	37.06
198.71	42.06
199.182	48.06
199.655	36.06
200.127	59.06
200.6	53.06
201.072	38.06
201.544	65.06
202.017	67.06
202.489	75.06
202.961	91.06
203.433	78.06
203.906	64.06
204.378	63.06
204.85	73.06
205.322	84.06
205.794	91.06
206.266	80.06
206.739	77.06
207.211	69.06
207.683	70.06
208.155	80.06
208.627	81.06
209.099	94.06
209.57	93.06
210.042	90.06
210.514	94.06
210.986	82.06
211.458	86.06
211.93	90.06
212.402	100.06
212.873	81.06
213.345	86.06
213.817	85.06
214.288	70.06
214.76	65.06
215.232	87.06
215.703	92.06
216.175	74.06
216.646	91.06
217.118	70.06
217.589	78.06
218.061	61.06
218.532	70.06
219.004	86.06
219.475	56.06
219.946	75.06
220.418	98.06
220.889	79.06
221.36	81.06
221.832	88.06
222.303	83.06
222.774	76.06
223.245	62.06
223.717	74.06
224.188	71.06
224.659	80.06
225.13	89.06
225.601	67.06
226.072	65.06
226.543	65.06
227.014	81.06
227.485	81.06
227.956	69.06
228.427	66.06
228.898	66.06
229.369	87.06
229.839	85.06
230.31	67.06
230.781	73.06
231.252	63.06
231.722	63.06
232.193	84.06
232.664	58.06
233.135	76.06
233.605	71.06
234.076	81.06
234.546	71.06
235.017	83.06
235.487	88.06
235.958	82.06
236.428	79.06
236.899	91.06
237.369	92.06
237.84	69.06
238.31	82.06
238.78	91.06
239.251	89.06
239.721	87.06
240.191	78.06
240.662	77.06
241.132	80.06
241.602	86.06
242.072	79.06
242.542	93.06
243.013	90.06
243.483	76.06
243.953	91.06
244.423	88.06
244.893	90.06
245.363	80.06
245.833	85.06
246.303	67.06
246.773	84.06
247.243	78.06
247.712	98.06
248.182	88.06
248.652	98.06
249.122	98.06
249.592	92.06
250.061	121.06
250.531	144.06
251.001	124.06
251.471	138.06
251.94	92.06
252.41	82.06
252.879	78.06
253.349	91.06
253.818	105.06
254.288	81.06
254.757	85.06
255.227	90.06
255.696	111.06
256.166	83.06
256.635	85.06
257.105	85.06
257.574	98.06
258.043	102.06
258.513	90.06
258.982	92.06
259.451	79.06
259.92	98.06
260.389	87.06
260.859	106.06
261.328	104.06
261.797	106.06
262.266	106.06
262.735	81.06
263.204	109.06
263.673	80.06
264.142	106.06
264.611	69.06
265.08	86.06
265.549	99.06
266.018	88.06
266.487	89.06
266.955	106.06
267.424	90.06
267.893	83.06
268.362	93.06
268.83	88.06
269.299	70.06
269.768	93.06
270.236	91.06
270.705	100.06
271.174	87.06
271.642	84.06
272.111	86.06
272.579	80.06
273.048	97.06
273.516	113.06
273.985	125.06
274.453	118.06
274.922	96.06
275.39	105.06
275.858	85.06
276.327	104.06
276.795	93.06
277.263	72.06
277.731	90.06
278.2	106.06
278.668	123.06
279.136	99.06
279.604	94.06
280.072	85.06
280.54	91.06
281.008	108.06
281.477	105.06
281.945	102.06
282.413	86.06
282.881	99.06
283.348	89.06
283.816	78.06
284.284	87.06
284.752	102.06
285.22	72.06
285.688	99.06
286.156	90.06
286.623	152.06
287.091	203.06
287.559	136.06
288.026	106.06
288.494	96.06
288.962	98.06
289.429	100.06
289.897	78.06
290.364	100.06
290.832	92.06
291.3	90.06
291.767	99.06
292.234	108.06
292.702	105.06
293.169	87.06
293.637	98.06
294.104	106.06
294.571	92.06
295.039	106.06
295.506	98.06
295.973	109.06
296.44	99.06
296.908	95.06
297.375	97.06
297.842	104.06
298.309	91.06
298.776	90.06
299.243	80.06
299.71	100.06
300.177	93.06
300.644	113.06
301.111	124.06
301.578	82.06
302.045	120.06
302.512	109.06
302.979	106.06
303.446	106.06
303.913	87.06
304.379	106.06
304.846	94.06
305.313	109.06
305.78	106.06
306.246	122.06
306.713	120.06
307.18	131.06
307.646	108.06
308.113	122.06
308.579	125.06
309.046	99.06
309.512	94.06
309.979	122.06
310.445	108.06
310.912	95.06
311.378	88.06
311.845	100.06
312.311	98.06
312.777	97.06
313.244	107.06
313.71	96.06
314.176	102.06
314.642	109.06
315.109	124.06
315.575	110.06
316.041	125.06
316.507	103.06
316.973	112.06
317.439	117.06
317.905	128.06
318.371	109.06
318.837	110.06
319.303	113.06
319.769	119.06
320.235	108.06
320.701	134.06
321.167	126.06
321.633	123.06
322.099	159.06
322.564	184.06
323.03	150.06
323.496	140.06
323.962	148.06
324.427	148.06
324.893	133.06
325.359	142.06
325.824	115.06
326.29	120.06
326.755	130.06
327.221	137.06
327.686	123.06
328.152	128.06
328.617	108.06
329.083	130.06
329.548	112.06
330.014	129.06
330.479	122.06
330.944	127.06
331.41	140.06
331.875	138.06
332.34	135.06
332.805	133.06
333.271	165.06
333.736	208.06
334.201	173.06
334.666	156.06
335.131	168.06
335.596	128.06
336.061	159.06
336.526	140.06
336.991	138.06
337.456	143.06
337.921	138.06
338.386	132.06
338.851	119.06
339.316	120.06
339.781	111.06
340.246	135.06
340.711	107.06
341.175	122.06
341.64	122.06
342.105	117.06
342.569	134.06
343.034	127.06
343.499	125.06
343.963	121.06
344.428	114.06
344.893	116.06
345.357	140.06
345.822	140.06
346.286	124.06
346.751	134.06
347.215	133.06
347.679	140.06
348.144	134.06
348.608	126.06
349.073	126.06
349.537	124.06
350.001	144.06
350.465	132.06
350.93	143.06
351.394	115.06
351.858	138.06
352.322	149.06
352.786	133.06
353.25	134.06
353.715	130.06
354.179	127.06
354.643	133.06
355.107	149.06
355.571	144.06
356.035	139.06
356.498	150.06
356.962	158.06
357.426	153.06
357.89	127.06
358.354	134.06
358.818	132.06
359.281	132.06
359.745	138.06
360.209	136.06
360.673	152.06
361.136	135.06
361.6	141.06
362.064	138.06
362.527	134.06
362.991	130.06
363.454	135.06
363.918	156.06
364.381	123.06
364.845	144.06
365.308	147.06
365.772	149.06
366.235	140.06
366.698	136.06
367.162	163.06
367.625	150.06
368.088	161.06
368.552	128.06
369.015	164.06
369.478	154.06
369.941	168.06
370.404	149.06
370.867	164.06
371.331	161.06
371.794	157.06
372.257	187.06
372.72	184.06
373.183	184.06
373.646	191.06
374.109	198.06
374.572	187.06
375.035	211.06
375.497	185.06
375.96	179.06
376.423	157.06
376.886	160.06
377.349	153.06
377.811	163.06
378.274	147.06
378.737	178.06
379.199	174.06
379.662	173.06
380.125	170.06
380.587	181.06
381.05	196.06
381.512	178.06
381.975	189.06
382.437	174.06
382.9	180.06
383.362	196.06
383.825	201.06
384.287	210.06
384.75	230.06
385.212	231.06
385.674	210.06
386.136	182.06
386.599	179.06
387.061	203.06
387.523	187.06
387.985	191.06
388.447	180.06
388.91	213.06
389.372	251.06
389.834	212.06
390.296	186.06
390.758	201.06
391.22	219.06
391.682	230.06
392.144	298.06
392.606	302.06
393.068	218.06
393.529	202.06
393.991	200.06
394.453	196.06
394.915	197.06
395.377	206.06
395.838	293.06
396.3	205.06
396.762	186.06
397.224	196.06
397.685	190.06
398.147	170.06
398.608	168.06
399.07	195.06
399.531	184.06
399.993	177.06
400.454	210.06
400.916	192.06
401.377	189.06
401.839	179.06
402.3	178.06
402.762	188.06
403.223	193.06
403.684	210.06
404.145	189.06
404.607	174.06
405.068	200.06
405.529	179.06
405.99	196.06
406.451	202.06
406.913	198.06
407.374	196.06
407.835	194.06
408.296	193.06
408.757	184.06
409.218	190.06
409.679	212.06
410.14	212.06
410.601	202.06
411.062	216.06
411.522	224.06
411.983	247.06
412.444	246.06
412.905	189.06
413.366	223.06
413.826	216.06
414.287	219.06
414.748	276.06
415.208	251.06
415.669	224.06
416.13	222.06
416.59	228.06
417.051	212.06
417.511	236.06
417.972	251.06
418.432	242.06
418.893	249.06
419.353	264.06
419.814	228.06
420.274	202.06
420.734	201.06
421.195	213.06
421.655	224.06
422.115	224.06
422.576	228.06
423.036	226.06
423.496	219.06
423.956	218.06
424.416	243.06
424.876	268.06
425.336	250.06
425.797	228.06
426.257	258.06
426.717	238.06
427.177	217.06
427.637	234.06
428.097	256.06
428.556	263.06
429.016	270.06
429.476	291.06
429.936	283.06
430.396	257.06
430.856	266.06
431.315	291.06
431.775	308.06
432.235	300.06
432.694	308.06
433.154	299.06
433.614	286.06
434.073	276.06
434.533	254.06
434.993	250.06
435.452	259.06
435.912	249.06
436.371	238.06
436.83	258.06
437.29	238.06
437.749	223.06
438.209	237.06
438.668	238.06
439.127	240.06
439.587	240.06
440.046	252.06
440.505	214.06
440.964	242.06
441.424	243.06
441.883	240.06
442.342	236.06
442.801	234.06
443.26	246.06
443.719	209.06
444.178	232.06
444.637	242.06
445.096	224.06
445.555	247.06
446.014	231.06
446.473	209.06
446.932	218.06
447.391	216.06
447.849	242.06
448.308	238.06
448.767	225.06
449.226	256.06
449.685	251.06
450.143	236.06
450.602	250.06
451.061	248.06
451.519	244.06
451.978	252.06
452.436	272.06
452.895	249.06
453.353	257.06
453.812	251.06
454.27	236.06
454.729	264.06
455.187	223.06
455.646	236.06
456.104	227.06
456.562	239.06
457.021	214.06
457.479	204.06
457.937	229.06
458.395	267.06
458.854	232.06
459.312	219.06
459.77	232.06
460.228	235.06
460.686	232.06
461.144	252.06
461.602	231.06
462.06	249.06
462.518	252.06
462.976	238.06
463.434	232.06
463.892	240.06
464.35	220.06
464.808	236.06
465.266	255.06
465.724	238.06
466.181	253.06
466.639	274.06
467.097	248.06
467.555	266.06
468.012	280.06
468.47	269.06
468.928	269.06
469.385	262.06
469.843	272.06
470.3	294.06
470.758	304.06
471.215	279.06
471.673	305.06
472.13	324.06
472.588	325.06
473.045	288.06
473.503	310.06
473.96	333.06
474.417	328.06
474.875	340.06
475.332	369.06
475.789	344.06
476.246	354.06
476.704	392.06
477.161	366.06
477.618	391.06
478.075	414.06
478.532	433.06
478.989	479.06
479.446	520.06
479.903	573.06
480.36	588.06
480.817	633.06
481.274	670.06
481.731	724.06
482.188	764.06
482.645	815.06
483.102	885.06
483.558	945.06
484.015	997.06
484.472	1020.06
484.929	976.06
485.385	943.06
485.842	922.06
486.299	862.06
486.755	802.06
487.212	706.06
487.668	665.06
488.125	597.06
488.582	545.06
489.038	501.06
489.494	494.06
489.951	474.06
490.407	500.06
490.864	482.06
491.32	469.06
491.776	449.06
492.233	441.06
492.689	471.06
493.145	440.06
493.602	434.06
494.058	457.06
494.514	471.06
494.97	466.06
495.426	459.06
495.882	469.06
496.338	455.06
496.794	501.06
497.251	492.06
497.707	498.06
498.163	487.06
498.618	502.06
499.074	525.06
499.53	517.06
499.986	514.06
500.442	520.06
500.898	496.06
501.354	517.06
501.809	524.06
502.265	528.06
502.721	546.06
503.177	564.06
503.632	549.06
504.088	537.06
504.543	583.06
504.999	556.06
505.455	478.06
505.91	473.06
506.366	485.06
506.821	429.06
507.277	475.06
507.732	457.06
508.187	450.06
508.643	446.06
509.098	448.06
509.553	489.06
510.009	474.06
510.464	465.06
510.919	483.06
511.375	506.06
511.83	482.06
512.285	516.06
512.74	518.06
513.195	539.06
513.65	524.06
514.105	547.06
514.56	530.06
515.015	558.06
515.47	551.06
515.925	570.06
516.38	560.06
516.835	524.06
517.29	544.06
517.745	574.06
518.2	553.06
518.655	548.06
519.109	516.06
519.564	548.06
520.019	511.06
520.474	495.06
520.928	513.06
521.383	534.06
521.838	506.06
522.292	478.06
522.747	478.06
523.201	494.06
523.656	499.06
524.11	491.06
524.565	490.06
525.019	497.06
525.474	516.06
525.928	496.06
526.382	511.06
526.837	498.06
527.291	514.06
527.745	470.06
528.2	463.06
528.654	498.06
529.108	491.06
529.562	487.06
530.016	480.06
530.47	468.06
530.925	499.06
531.379	487.06
531.833	506.06
532.287	490.06
532.741	484.06
533.195	492.06
533.649	469.06
534.103	484.06
534.556	489.06
535.01	504.06
535.464	478.06
535.918	488.06
536.372	484.06
536.826	477.06
537.279	475.06
537.733	477.06
538.187	493.06
538.64	492.06
539.094	506.06
539.548	497.06
540.001	484.06
540.455	500.06
540.908	500.06
541.362	483.06
541.815	520.06
542.269	532.06
542.722	494.06
543.175	518.06
543.629	498.06
544.082	526.06
544.536	536.06
544.989	541.06
545.442	547.06
545.895	558.06
546.349	532.06
546.802	579.06
547.255	553.06
547.708	555.06
548.161	539.06
548.614	546.06
549.067	527.06
549.52	538.06
549.973	542.06
550.426	557.06
550.879	561.06
551.332	524.06
551.785	560.06
552.238	546.06
552.691	554.06
553.144	558.06
553.596	576.06
554.049	552.06
554.502	572.06
554.955	590.06
555.407	574.06
555.86	582.06
556.313	590.06
556.765	584.06
557.218	591.06
557.67	583.06
558.123	569.06
558.576	571.06
559.028	559.06
559.48	545.06
559.933	563.06
560.385	540.06
560.838	544.06
561.29	540.06
561.742	530.06
562.195	501.06
562.647	516.06
563.099	522.06
563.551	524.06
564.004	504.06
564.456	506.06
564.908	495.06
565.36	489.06
565.812	503.06
566.264	490.06
566.716	484.06
567.168	459.06
567.62	470.06
568.072	465.06
568.524	488.06
568.976	449.06
569.428	467.06
569.88	452.06
570.332	464.06
570.784	463.06
571.235	458.06
571.687	473.06
572.139	449.06
572.59	468.06
573.042	472.06
573.494	496.06
573.945	450.06
574.397	459.06
574.849	446.06
575.3	466.06
575.752	454.06
576.203	481.06
576.655	467.06
577.106	465.06
577.557	486.06
578.009	472.06
578.46	469.06
578.912	470.06
579.363	451.06
579.814	446.06
580.265	426.06
580.717	447.06
581.168	444.06
581.619	428.06
582.07	450.06
582.521	431.06
582.972	461.06
583.423	482.06
583.875	452.06
584.326	479.06
584.777	539.06
585.227	568.06
585.678	660.06
586.129	685.06
586.58	704.06
587.031	742.06
587.482	747.06
587.933	970.06
588.384	842.06
588.834	677.06
589.285	543.06
589.736	517.06
590.186	535.06
590.637	508.06
591.088	491.06
591.538	500.06
591.989	486.06
592.439	501.06
592.89	476.06
593.34	469.06
593.791	470.06
594.241	458.06
594.692	491.06
595.142	491.06
595.593	496.06
596.043	464.06
596.493	493.06
596.943	475.06
597.394	487.06
597.844	506.06
598.294	477.06
598.744	468.06
599.195	508.06
599.645	529.06
600.095	576.06
600.545	597.06
600.995	566.06
601.445	633.06
601.895	673.06
602.345	670.06
602.795	642.06
603.245	612.06
603.695	614.06
604.145	565.06
604.594	570.06
605.044	550.06
605.494	520.06
605.944	497.06
606.393	458.06
606.843	448.06
607.293	460.06
607.743	458.06
608.192	458.06
608.642	472.06
609.091	453.06
609.541	446.06
609.99	488.06
610.44	462.06
610.889	463.06
611.339	470.06
611.788	477.06
612.238	464.06
612.687	457.06
613.136	506.06
613.586	496.06
614.035	468.06
614.484	474.06
614.933	489.06
615.383	458.06
615.832	470.06
616.281	451.06
616.73	480.06
617.179	437.06
617.628	420.06
618.077	442.06
618.526	442.06
618.975	391.06
619.424	413.06
619.873	418.06
620.322	424.06
620.771	410.06
621.22	394.06
621.669	409.06
622.118	414.06
622.567	395.06
623.015	389.06
623.464	409.06
623.913	403.06
624.361	398.06
624.81	356.06
625.259	385.06
625.707	369.06
626.156	384.06
626.604	380.06
627.053	378.06
627.501	398.06
627.95	413.06
628.398	374.06
628.847	376.06
629.295	394.06
629.744	385.06
630.192	387.06
630.64	408.06
631.089	450.06
631.537	490.06
631.985	482.06
632.433	494.06
632.881	512.06
633.33	567.06
633.778	653.06
634.226	492.06
634.674	450.06
635.122	411.06
635.57	427.06
636.018	488.06
636.466	432.06
636.914	391.06
637.362	375.06
637.81	379.06
638.258	375.06
638.705	374.06
639.153	411.06
639.601	418.06
640.049	434.06
640.497	426.06
640.944	436.06
641.392	420.06
641.84	429.06
642.287	374.06
642.735	372.06
643.182	378.06
643.63	361.06
644.078	368.06
644.525	377.06
644.973	367.06
645.42	390.06
645.867	426.06
646.315	406.06
646.762	418.06
647.21	435.06
647.657	446.06
648.104	453.06
648.551	498.06
648.999	515.06
649.446	544.06
649.893	604.06
650.34	694.06
650.787	826.06
651.234	1022.06
651.682	1342.06
652.129	1864.06
652.576	2731.06
653.023	3856.06
653.47	4823.06
653.917	5364.06
654.363	5569.06
654.81	5938.06
655.257	6233.06
655.704	4598.06
656.151	2702.06
656.598	1747.06
657.044	1235.06
657.491	929.06
657.938	760.06
658.385	664.06
658.831	606.06
659.278	516.06
659.724	494.06
660.171	450.06
660.618	424.06
661.064	400.06
661.511	382.06
661.957	394.06
662.404	378.06
662.85	390.06
663.296	377.06
663.743	350.06
664.189	348.06
664.635	343.06
665.082	326.06
665.528	340.06
665.974	322.06
666.42	330.06
666.867	332.06
667.313	355.06
667.759	394.06
668.205	388.06
668.651	398.06
669.097	378.06
669.543	422.06
669.989	414.06
670.435	357.06
670.881	335.06
671.327	329.06
671.773	345.06
672.219	369.06
672.665	374.06
673.11	402.06
673.556	420.06
674.002	412.06
674.448	385.06
674.893	352.06
675.339	331.06
675.785	295.06
676.23	274.06
676.676	278.06
677.122	276.06
677.567	303.06
678.013	261.06
678.458	272.06
678.904	270.06
679.349	262.06
679.794	268.06
680.24	284.06
680.685	291.06
681.131	281.06
681.576	283.06
682.021	255.06
682.466	254.06
682.912	269.06
683.357	270.06
683.802	286.06
684.247	304.06
684.692	312.06
685.137	338.06
685.583	331.06
686.028	350.06
686.473	344.06
686.918	310.06
687.363	289.06
687.807	298.06
688.252	254.06
688.697	274.06
689.142	269.06
689.587	242.06
690.032	266.06
690.477	258.06
690.921	280.06
691.366	298.06
691.811	302.06
692.255	319.06
692.7	342.06
693.145	407.06
693.589	610.06
694.034	728.06
694.478	801.06
694.923	790.06
695.367	918.06
695.812	839.06
696.256	376.06
696.701	288.06
697.145	275.06
697.59	275.06
698.034	251.06
698.478	259.06
698.922	253.06
699.367	234.06
699.811	270.06
700.255	282.06
700.699	290.06
701.143	318.06
701.588	326.06
702.032	334.06
702.476	347.06
702.92	336.06
703.364	381.06
703.808	563.06
704.252	714.06
704.696	810.06
705.14	740.06
705.584	897.06
706.027	710.06
706.471	389.06
706.915	299.06
707.359	275.06
707.803	248.06
708.246	252.06
708.69	236.06
709.134	252.06
709.577	218.06
710.021	239.06
710.465	233.06
710.908	234.06
711.352	237.06
711.795	255.06
712.239	280.06
712.682	292.06
713.126	276.06
713.569	303.06
714.012	302.06
714.456	281.06
714.899	243.06
715.342	218.06
715.786	224.06
716.229	219.06
716.672	200.06
717.115	214.06
717.558	196.06
718.002	204.06
718.445	251.06
718.888	214.06
719.331	230.06
719.774	247.06
720.217	248.06
720.66	216.06
721.103	228.06
721.546	221.06
721.989	217.06
722.432	195.06
722.874	195.06
723.317	223.06
723.76	210.06
724.203	241.06
724.645	269.06
725.088	348.06
725.531	364.06
725.974	353.06
726.416	360.06
726.859	259.06
727.301	223.06
727.744	198.06
728.187	208.06
728.629	218.06
729.071	218.06
729.514	220.06
729.956	235.06
730.399	231.06
730.841	231.06
731.283	198.06
731.726	232.06
732.168	226.06
732.61	227.06
733.053	249.06
733.495	238.06
733.937	286.06
734.379	294.06
734.821	337.06
735.263	453.06
735.705	687.06
736.148	1085.06
736.59	1252.06
737.032	1203.06
737.474	1260.06
737.916	612.06
738.357	338.06
738.799	280.06
739.241	235.06
739.683	251.06
740.125	218.06
740.567	234.06
741.008	246.06
741.45	264.06
741.892	254.06
742.334	269.06
742.775	249.06
743.217	243.06
743.658	224.06
744.1	223.06
744.542	247.06
744.983	251.06
745.425	242.06
745.866	270.06
746.307	256.06
746.749	235.06
747.19	283.06
747.632	457.06
748.073	776.06
748.514	1174.06
748.956	1400.06
749.397	1816.06
749.838	1478.06
750.279	1225.06
750.72	913.06
751.162	448.06
751.603	263.06
752.044	206.06
752.485	182.06
752.926	203.06
753.367	174.06
753.808	178.06
754.249	180.06
754.69	193.06
755.131	176.06
755.572	190.06
756.013	205.06
756.453	184.06
756.894	193.06
757.335	188.06
757.776	162.06
758.216	189.06
758.657	184.06
759.098	195.06
759.538	214.06
759.979	270.06
760.42	386.06
760.86	770.06
761.301	1676.06
761.741	2418.06
762.182	2495.06
762.622	2202.06
763.063	1064.06
763.503	496.06
763.943	434.06
764.384	613.06
764.824	689.06
765.264	662.06
765.705	478.06
766.145	292.06
766.585	226.06
767.025	241.06
767.465	327.06
767.906	494.06
768.346	522.06
768.786	542.06
769.226	378.06
769.666	374.06
770.106	640.06
770.546	1044.06
770.986	1126.06
771.426	1052.06
771.866	596.06
772.306	328.06
772.745	211.06
773.185	197.06
773.625	178.06
774.065	185.06
774.505	224.06
774.944	378.06
775.384	618.06
775.824	771.06
776.263	719.06
776.703	472.06
777.142	270.06
777.582	178.06
778.021	179.06
778.461	178.06
778.9	187.06
779.34	173.06
779.779	155.06
780.219	146.06
780.658	152.06
781.097	154.06
781.537	140.06
781.976	145.06
782.415	144.06
782.855	126.06
783.294	148.06
783.733	144.06
784.172	140.06
784.611	142.06
785.05	126.06
785.489	157.06
785.928	139.06
786.367	156.06
786.806	139.06
787.245	157.06
787.684	166.06
788.123	154.06
788.562	158.06
789.001	151.06
789.44	154.06
789.879	144.06
790.317	157.06
790.756	152.06
791.195	146.06
791.634	179.06
792.072	232.06
792.511	430.06
792.95	828.06
793.388	1010.06
793.827	869.06
794.265	485.06
794.704	270.06
795.142	183.06
795.581	148.06
796.019	158.06
796.458	147.06
796.896	141.06
797.334	143.06
797.773	195.06
798.211	250.06
798.649	424.06
799.087	664.06
799.526	983.06
799.964	1041.06
800.402	874.06
800.84	515.06
801.278	303.06
801.716	205.06
802.154	167.06
802.592	170.06
803.03	162.06
803.468	156.06
803.906	166.06
804.344	171.06
804.782	186.06
805.22	172.06
805.658	154.06
806.096	156.06
806.533	162.06
806.971	168.06
807.409	222.06
807.847	304.06
808.284	672.06
808.722	1247.06
809.16	1640.06
809.597	2272.06
810.035	2948.06
810.472	2479.06
810.91	1304.06
811.347	657.06
811.785	358.06
812.222	228.06
812.66	189.06
813.097	168.06
813.535	168.06
813.972	173.06
814.409	134.06
814.846	142.06
815.284	146.06
815.721	151.06
816.158	157.06
816.595	154.06
817.032	185.06
817.47	173.06
817.907	161.06
818.344	140.06
818.781	145.06
819.218	147.06
819.655	178.06
820.092	203.06
820.529	186.06
820.966	196.06
821.403	159.06
821.839	144.06
822.276	171.06
822.713	155.06
823.15	179.06
823.587	176.06
824.023	187.06
824.46	345.06
824.897	589.06
825.333	606.06
825.77	358.06
826.206	242.06
826.643	164.06
827.08	136.06
827.516	129.06
827.953	141.06
828.389	121.06
828.825	108.06
829.262	144.06
829.698	126.06
830.135	129.06
830.571	142.06
831.007	117.06
831.443	115.06
831.88	119.06
832.316	110.06
832.752	134.06
833.188	124.06
833.624	129.06
834.06	130.06
834.497	116.06
834.933	118.06
835.369	124.06
835.805	112.06
836.241	118.06
836.677	124.06
837.112	133.06
837.548	132.06
837.984	181.06
838.42	242.06
838.856	482.06
839.292	995.06
839.727	1067.06
840.163	699.06
840.599	845.06
841.034	1204.06
841.47	959.06
841.906	502.06
842.341	304.06
842.777	260.06
843.212	285.06
843.648	257.06
844.083	186.06
844.519	162.06
844.954	121.06
845.39	108.06
845.825	134.06
846.261	103.06
846.696	115.06
847.131	128.06
847.566	130.06
848.002	115.06
848.437	125.06
848.872	106.06
849.307	120.06
849.742	120.06
850.177	247.06
850.613	422.06
851.048	452.06
851.483	266.06
851.918	193.06
852.353	158.06
852.788	127.06
853.223	130.06
853.657	107.06
854.092	126.06
854.527	105.06
854.962	99.06
855.397	106.06
855.832	120.06
856.266	109.06
856.701	103.06
857.136	116.06
857.57	100.06
858.005	90.06
858.44	111.06
858.874	111.06
859.309	111.06
859.743	118.06
860.178	108.06
860.612	105.06
861.047	116.06
861.481	134.06
861.915	132.06
862.35	118.06
862.784	121.06
863.218	104.06
863.653	112.06
864.087	122.06
864.521	120.06
864.955	144.06
865.39	168.06
865.824	161.06
866.258	152.06
866.692	172.06
867.126	168.06
867.56	140.06
867.994	129.06
868.428	128.06
868.862	126.06
869.296	102.06
869.73	110.06
870.164	117.06
870.598	132.06
871.031	118.06
871.465	102.06
871.899	104.06
872.333	111.06
872.766	96.06
873.2	87.06
873.634	105.06
874.067	98.06
874.501	107.06
874.935	107.06
875.368	108.06
875.802	89.06
876.235	106.06
876.669	91.06
877.102	101.06
877.535	82.06
877.969	107.06
878.402	94.06
878.836	100.06
879.269	112.06
879.702	114.06
880.135	90.06
880.569	98.06
881.002	113.06
881.435	102.06
881.868	75.06
882.301	107.06
882.734	90.06
883.167	108.06
883.601	67.06
884.034	97.06
884.467	112.06
884.899	104.06
885.332	79.06
885.765	92.06
886.198	95.06
886.631	95.06
887.064	88.06
887.497	86.06
887.929	85.06
888.362	92.06
888.795	98.06
889.228	89.06
889.66	98.06
890.093	83.06
890.526	91.06
890.958	91.06
891.391	100.06
891.823	106.06
892.256	97.06
892.688	90.06
893.121	96.06
893.553	97.06
893.985	106.06
894.418	83.06
894.85	118.06
895.282	108.06
895.715	109.06
896.147	94.06
896.579	93.06
897.011	92.06
897.444	103.06
897.876	90.06
898.308	105.06
898.74	83.06
899.172	89.06
899.604	103.06
900.036	81.06
900.468	81.06
900.9	92.06
901.332	92.06
901.764	97.06
902.196	82.06
902.628	97.06
903.06	94.06
903.491	107.06
903.923	106.06
904.355	86.06
904.787	109.06
905.218	95.06
905.65	91.06
906.082	104.06
906.513	102.06
906.945	92.06
907.376	93.06
907.808	82.06
908.239	100.06
908.671	84.06
909.102	98.06
909.534	114.06
909.965	126.06
910.397	144.06
910.828	283.06
911.259	288.06
911.691	214.06
912.122	172.06
912.553	132.06
912.984	110.06
913.415	83.06
913.847	102.06
914.278	91.06
914.709	92.06
915.14	102.06
915.571	93.06
916.002	100.06
916.433	94.06
916.864	82.06
917.295	75.06
917.726	115.06
918.157	102.06
918.587	114.06
919.018	92.06
919.449	108.06
919.88	94.06
920.311	102.06
920.741	126.06
921.172	176.06
921.603	160.06
922.033	129.06
922.464	99.06
922.895	95.06
923.325	98.06
923.756	100.06
924.186	93.06
924.617	96.06
925.047	125.06
925.478	120.06
925.908	120.06
926.338	97.06
926.769	109.06
927.199	82.06
927.629	98.06
928.06	91.06
928.49	109.06
928.92	95.06
929.35	82.06
929.78	79.06
930.21	92.06
930.641	84.06
931.071	100.06
931.501	110.06
931.931	97.06
932.361	99.06
932.791	95.06
933.221	81.06
933.651	91.06
934.08	75.06
934.51	101.06
934.94	92.06
935.37	82.06
935.8	91.06
936.229	94.06
936.659	92.06
937.089	85.06
937.519	93.06
937.948	93.06
938.378	105.06
938.807	107.06
939.237	92.06
939.666	84.06
940.096	105.06
940.525	100.06
940.955	99.06
941.384	98.06
941.814	82.06
942.243	101.06
942.672	88.06
943.102	86.06
943.531	89.06
943.96	79.06
944.39	95.06
944.819	88.06
945.248	86.06
945.677	91.06
946.106	83.06
946.535	87.06
946.964	86.06
947.393	92.06
947.822	93.06
948.251	82.06
948.68	88.06
949.109	92.06
949.538	81.06
949.967	86.06
950.396	107.06
950.825	102.06
951.254	68.06
951.682	86.06
952.111	85.06
952.54	94.06
952.969	83.06
953.397	95.06
953.826	94.06
954.254	88.06
954.683	91.06
955.112	95.06
955.54	61.06
955.969	102.06
956.397	92.06
956.826	89.06
957.254	78.06
957.682	76.06
958.111	89.06
958.539	81.06
958.967	87.06
959.396	86.06
959.824	88.06
960.252	87.06
960.68	88.06
961.109	91.06
961.537	55.06
961.965	80.06
962.393	64.06
962.821	90.06
963.249	76.06
963.677	82.06
964.105	94.06
964.533	106.06
964.961	97.06
965.389	98.06
965.817	86.06
966.245	100.06
966.672	91.06
967.1	89.06
967.528	85.06
967.956	85.06
968.383	78.06
968.811	78.06
969.239	76.06
969.666	94.06
970.094	104.06
970.522	80.06
970.949	80.06
971.377	98.06
971.804	94.06
972.232	71.06
972.659	93.06
973.087	91.06
973.514	106.06
973.941	82.06
974.369	75.06
974.796	80.06
975.223	78.06
975.651	101.06
976.078	89.06
976.505	98.06
976.932	96.06
977.359	92.06
977.786	92.06
978.214	87.06
978.641	86.06
979.068	72.06
979.495	82.06
979.922	81.06
980.349	83.06
980.776	90.06
981.202	78.06
981.629	88.06
982.056	86.06
982.483	71.06
982.91	76.06
983.337	74.06
983.763	95.06
984.19	77.06
984.617	96.06
985.043	88.06
985.47	82.06
985.897	74.06
986.323	86.06
986.75	98.06
987.176	74.06
987.603	101.06
988.029	73.06
988.456	98.06
988.882	67.06
989.308	94.06
989.735	87.06
990.161	74.06
990.587	94.06
991.014	91.06
991.44	84.06
991.866	95.06
992.292	90.06
992.719	88.06
993.145	88.06
993.571	82.06
993.997	86.06
994.423	92.06
994.849	95.06
995.275	77.06
995.701	89.06
996.127	79.06
996.553	102.06
996.979	64.06
997.405	80.06
997.83	94.06
998.256	74.06
998.682	79.06
999.108	96.06
999.534	90.06
999.959	86.06
1000.385	98.06
1000.811	79.06
1001.236	90.06
1001.662	84.06
1002.087	101.06
1002.513	80.06
1002.938	68.06
1003.364	94.06
1003.789	98.06
1004.215	74.06
1004.64	77.06
1005.066	99.06
1005.491	85.06
1005.916	95.06
1006.342	72.06
1006.767	62.06
1007.192	100.06
1007.617	83.06
1008.042	91.06
1008.468	98.06
1008.893	99.06
1009.318	99.06
1009.743	99.06
1010.168	90.06
1010.593	93.06
1011.018	100.06
1011.443	80.06
1011.868	82.06
1012.293	85.06
1012.718	92.06
1013.143	80.06
1013.567	101.06
1013.992	76.06
1014.417	86.06
1014.842	76.06
1015.267	78.06
1015.691	90.06
1016.116	87.06
1016.541	89.06
1016.965	70.06
1017.39	89.06
1017.814	75.06
1018.239	74.06
1018.663	91.06
1019.088	90.06
1019.512	108.06
1019.937	96.06
1020.361	91.06
1020.785	91.06
1021.21	84.06
1021.634	102.06
1022.058	66.06
1022.483	96.06
1022.907	100.06
1023.331	91.06
1023.755	88.06
1024.179	92.06
1024.604	80.06
1025.028	86.06
1025.452	94.06
1025.876	88.06
1026.3	60.06
1026.724	85.06
1027.148	94.06
1027.572	87.06
1027.996	96.06
1028.42	82.06
1028.843	76.06
1029.267	100.06
1029.691	77.06
1030.115	79.06
1030.539	94.06
1030.962	73.06
1031.386	78.06
1031.81	90.06
1032.233	89.06
1032.657	95.06
1033.08	80.06
1033.504	97.06
1033.927	86.06
1034.351	90.06
1034.774	97.06
1035.198	97.06
1035.621	95.06
1036.045	82.06
1036.468	81.06
1036.891	95.06
1037.315	84.06
1037.738	104.06
1038.161	82.06
1038.584	74.06
1039.008	96.06
1039.431	93.06
1039.854	87.06
1040.277	89.06
1040.7	79.06
1041.123	83.06
1041.546	78.06
1041.969	83.06
1042.392	76.06
1042.815	84.06
1043.238	59.06
1043.661	75.06
1044.084	98.06
1044.507	81.06
1044.93	98.06
1045.352	80.06
1045.775	91.06
1046.198	81.06
1046.621	77.06
1047.043	67.06
1047.466	74.06
1047.889	86.06
1048.311	91.06
1048.734	81.06
1049.156	91.06
1049.579	95.06
1050.001	98.06
1050.424	88.06
1050.846	96.06
1051.269	75.06
1051.691	83.06
1052.113	88.06
1052.536	85.06
1052.958	85.06
1053.38	90.06
1053.802	85.06
1054.225	93.06
1054.647	82.06
1055.069	91.06
1055.491	83.06
1055.913	86.06
1056.335	84.06
1056.757	93.06
1057.179	80.06
1057.601	58.06
1058.023	78.06
1058.445	106.06
1058.867	106.06
1059.289	93.06
1059.711	96.06
1060.133	64.06
1060.555	92.06
1060.976	92.06
1061.398	78.06
1061.82	98.06
1062.241	87.06
1062.663	97.06
1063.085	94.06
1063.506	74.06
1063.928	85.06
1064.35	78.06
1064.771	81.06
1065.193	99.06
1065.614	86.06
1066.035	81.06
1066.457	97.06
1066.878	90.06
1067.3	95.06
1067.721	76.06
1068.142	80.06
1068.564	86.06
1068.985	80.06
1069.406	76.06
1069.827	96.06
1070.248	94.06
1070.67	82.06
1071.091	90.06
1071.512	92.06
1071.933	88.06
1072.354	92.06
1072.775	94.06
1073.196	100.06
1073.617	81.06
1074.038	89.06
1074.459	96.06
1074.88	88.06
1075.3	100.06
1075.721	79.06
1076.142	85.06
1076.563	77.06
1076.983	95.06
1077.404	97.06
1077.825	99.06
1078.246	90.06
1078.666	81.06
1079.087	78.06
1079.507	76.06
1079.928	101.06
1080.348	73.06
1080.769	73.06
1081.189	85.06
1081.61	87.06
1082.03	85.06
1082.451	83.06
1082.871	75.06
1083.291	93.06
1083.711	94.06
1084.132	92.06
1084.552	104.06
1084.972	81.06
1085.392	84.06
1085.813	94.06
1086.233	88.06
1086.653	86.06
1087.073	70.06
1087.493	79.06
1087.913	80.06
1088.333	91.06
1088.753	88.06
1089.173	79.06
1089.593	81.06
1090.013	99.06
1090.433	75.06
1090.852	80.06
1091.272	88.06
1091.692	102.06
1092.112	70.06
1092.531	77.06
1092.951	88.06
1093.371	86.06
1093.79	88.06
1094.21	91.06
1094.63	80.06
1095.049	82.06
1095.469	78.06
1095.888	81.06
1096.308	95.06
1096.727	92.06
1097.146	98.06
1097.566	79.06
1097.985	90.06
1098.405	82.06
1098.824	93.06
1099.243	95.06
1099.662	98.06
1100.082	82.06
1100.501	92.06
1100.92	77.06
1101.339	99.06
1101.758	83.06
