Data from 20170802-ORNL-NYSim-Air_HRD10391_10-38-30-665.txt Node
Date: Wed Aug 02 10:38:30 EDT 2017
User: Ender
Spectrometer: HR+D1039
Trigger mode: 0
Integration Time (sec): 1.100000E-3
Scans to average: 1
Electric dark correction enabled: true
Nonlinearity correction enabled: false
Boxcar width: 0
XAxis mode: Wavelengths
Number of Pixels in Spectrum: 2048
>>>>>Begin Spectral Data<<<<<
187.836	16.88
188.309	16.88
188.782	16.88
189.255	-14.12
189.728	7.88
190.201	-14.12
190.674	-0.12
191.147	-13.12
191.619	-12.12
192.092	-12.12
192.565	-9.12
193.038	-3.12
193.511	-7.12
193.984	8.88
194.456	-1.12
194.929	13.88
195.402	22.88
195.874	15.88
196.347	15.88
196.82	9.88
197.292	24.88
197.765	10.88
198.237	42.88
198.71	28.88
199.182	33.88
199.655	43.88
200.127	50.88
200.6	55.88
201.072	65.88
201.544	62.88
202.017	56.88
202.489	66.88
202.961	59.88
203.433	55.88
203.906	68.88
204.378	79.88
204.85	90.88
205.322	87.88
205.794	90.88
206.266	89.88
206.739	89.88
207.211	92.88
207.683	69.88
208.155	85.88
208.627	65.88
209.099	83.88
209.57	77.88
210.042	76.88
210.514	78.88
210.986	79.88
211.458	73.88
211.93	82.88
212.402	89.88
212.873	76.88
213.345	91.88
213.817	85.88
214.288	81.88
214.76	87.88
215.232	102.88
215.703	85.88
216.175	75.88
216.646	78.88
217.118	80.88
217.589	78.88
218.061	65.88
218.532	63.88
219.004	80.88
219.475	93.88
219.946	98.88
220.418	71.88
220.889	81.88
221.36	76.88
221.832	81.88
222.303	83.88
222.774	65.88
223.245	86.88
223.717	88.88
224.188	79.88
224.659	62.88
225.13	69.88
225.601	76.88
226.072	87.88
226.543	88.88
227.014	68.88
227.485	76.88
227.956	59.88
228.427	77.88
228.898	74.88
229.369	76.88
229.839	53.88
230.31	79.88
230.781	91.88
231.252	65.88
231.722	82.88
232.193	81.88
232.664	96.88
233.135	85.88
233.605	79.88
234.076	76.88
234.546	92.88
235.017	95.88
235.487	72.88
235.958	77.88
236.428	79.88
236.899	87.88
237.369	81.88
237.84	94.88
238.31	107.88
238.78	95.88
239.251	82.88
239.721	89.88
240.191	86.88
240.662	91.88
241.132	84.88
241.602	81.88
242.072	87.88
242.542	103.88
243.013	80.88
243.483	85.88
243.953	62.88
244.423	87.88
244.893	63.88
245.363	84.88
245.833	90.88
246.303	69.88
246.773	77.88
247.243	108.88
247.712	99.88
248.182	91.88
248.652	92.88
249.122	80.88
249.592	110.88
250.061	129.88
250.531	189.88
251.001	152.88
251.471	135.88
251.94	147.88
252.41	114.88
252.879	105.88
253.349	87.88
253.818	91.88
254.288	80.88
254.757	81.88
255.227	105.88
255.696	83.88
256.166	76.88
256.635	104.88
257.105	85.88
257.574	91.88
258.043	96.88
258.513	107.88
258.982	124.88
259.451	99.88
259.92	104.88
260.389	109.88
260.859	99.88
261.328	100.88
261.797	123.88
262.266	107.88
262.735	99.88
263.204	97.88
263.673	85.88
264.142	87.88
264.611	103.88
265.08	97.88
265.549	88.88
266.018	77.88
266.487	95.88
266.955	85.88
267.424	96.88
267.893	81.88
268.362	100.88
268.83	92.88
269.299	91.88
269.768	79.88
270.236	88.88
270.705	107.88
271.174	93.88
271.642	93.88
272.111	85.88
272.579	113.88
273.048	121.88
273.516	129.88
273.985	135.88
274.453	127.88
274.922	110.88
275.39	105.88
275.858	103.88
276.327	97.88
276.795	104.88
277.263	99.88
277.731	110.88
278.2	132.88
278.668	131.88
279.136	131.88
279.604	104.88
280.072	89.88
280.54	79.88
281.008	108.88
281.477	100.88
281.945	85.88
282.413	98.88
282.881	89.88
283.348	94.88
283.816	103.88
284.284	80.88
284.752	102.88
285.22	88.88
285.688	103.88
286.156	107.88
286.623	161.88
287.091	246.88
287.559	164.88
288.026	108.88
288.494	92.88
288.962	86.88
289.429	109.88
289.897	95.88
290.364	93.88
290.832	101.88
291.3	87.88
291.767	110.88
292.234	99.88
292.702	96.88
293.169	99.88
293.637	88.88
294.104	97.88
294.571	117.88
295.039	96.88
295.506	93.88
295.973	86.88
296.44	101.88
296.908	112.88
297.375	104.88
297.842	91.88
298.309	90.88
298.776	97.88
299.243	105.88
299.71	77.88
300.177	97.88
300.644	105.88
301.111	97.88
301.578	113.88
302.045	112.88
302.512	97.88
302.979	99.88
303.446	107.88
303.913	107.88
304.379	82.88
304.846	113.88
305.313	107.88
305.78	108.88
306.246	135.88
306.713	121.88
307.18	124.88
307.646	128.88
308.113	121.88
308.579	93.88
309.046	93.88
309.512	115.88
309.979	120.88
310.445	105.88
310.912	119.88
311.378	109.88
311.845	122.88
312.311	105.88
312.777	116.88
313.244	127.88
313.71	111.88
314.176	117.88
314.642	119.88
315.109	135.88
315.575	134.88
316.041	98.88
316.507	121.88
316.973	101.88
317.439	122.88
317.905	145.88
318.371	139.88
318.837	117.88
319.303	119.88
319.769	119.88
320.235	125.88
320.701	131.88
321.167	141.88
321.633	161.88
322.099	184.88
322.564	187.88
323.03	184.88
323.496	154.88
323.962	147.88
324.427	141.88
324.893	115.88
325.359	135.88
325.824	115.88
326.29	116.88
326.755	122.88
327.221	137.88
327.686	133.88
328.152	131.88
328.617	121.88
329.083	123.88
329.548	107.88
330.014	124.88
330.479	130.88
330.944	133.88
331.41	141.88
331.875	178.88
332.34	153.88
332.805	179.88
333.271	189.88
333.736	214.88
334.201	198.88
334.666	163.88
335.131	164.88
335.596	165.88
336.061	183.88
336.526	173.88
336.991	156.88
337.456	176.88
337.921	145.88
338.386	127.88
338.851	132.88
339.316	119.88
339.781	113.88
340.246	129.88
340.711	109.88
341.175	123.88
341.64	138.88
342.105	138.88
342.569	131.88
343.034	136.88
343.499	134.88
343.963	139.88
344.428	146.88
344.893	135.88
345.357	139.88
345.822	120.88
346.286	129.88
346.751	144.88
347.215	140.88
347.679	141.88
348.144	149.88
348.608	147.88
349.073	136.88
349.537	148.88
350.001	148.88
350.465	152.88
350.93	134.88
351.394	143.88
351.858	146.88
352.322	146.88
352.786	167.88
353.25	153.88
353.715	152.88
354.179	148.88
354.643	174.88
355.107	169.88
355.571	149.88
356.035	178.88
356.498	159.88
356.962	161.88
357.426	165.88
357.89	159.88
358.354	142.88
358.818	151.88
359.281	177.88
359.745	157.88
360.209	156.88
360.673	153.88
361.136	158.88
361.6	158.88
362.064	175.88
362.527	189.88
362.991	161.88
363.454	178.88
363.918	175.88
364.381	161.88
364.845	170.88
365.308	167.88
365.772	161.88
366.235	165.88
366.698	173.88
367.162	189.88
367.625	209.88
368.088	178.88
368.552	171.88
369.015	157.88
369.478	162.88
369.941	161.88
370.404	183.88
370.867	189.88
371.331	204.88
371.794	184.88
372.257	195.88
372.72	207.88
373.183	205.88
373.646	215.88
374.109	216.88
374.572	205.88
375.035	272.88
375.497	207.88
375.96	192.88
376.423	166.88
376.886	161.88
377.349	173.88
377.811	170.88
378.274	184.88
378.737	197.88
379.199	196.88
379.662	192.88
380.125	203.88
380.587	219.88
381.05	205.88
381.512	241.88
381.975	214.88
382.437	215.88
382.9	215.88
383.362	218.88
383.825	220.88
384.287	266.88
384.75	309.88
385.212	264.88
385.674	208.88
386.136	213.88
386.599	200.88
387.061	212.88
387.523	213.88
387.985	229.88
388.447	220.88
388.91	278.88
389.372	305.88
389.834	271.88
390.296	247.88
390.758	241.88
391.22	255.88
391.682	274.88
392.144	431.88
392.606	384.88
393.068	253.88
393.529	237.88
393.991	253.88
394.453	256.88
394.915	232.88
395.377	267.88
395.838	340.88
396.3	257.88
396.762	207.88
397.224	183.88
397.685	209.88
398.147	224.88
398.608	231.88
399.07	202.88
399.531	201.88
399.993	210.88
400.454	223.88
400.916	205.88
401.377	218.88
401.839	227.88
402.3	210.88
402.762	248.88
403.223	231.88
403.684	241.88
404.145	221.88
404.607	244.88
405.068	198.88
405.529	217.88
405.99	213.88
406.451	225.88
406.913	227.88
407.374	209.88
407.835	240.88
408.296	241.88
408.757	259.88
409.218	249.88
409.679	215.88
410.14	244.88
410.601	275.88
411.062	264.88
411.522	267.88
411.983	332.88
412.444	288.88
412.905	239.88
413.366	253.88
413.826	249.88
414.287	276.88
414.748	310.88
415.208	307.88
415.669	266.88
416.13	264.88
416.59	269.88
417.051	263.88
417.511	279.88
417.972	274.88
418.432	307.88
418.893	340.88
419.353	325.88
419.814	255.88
420.274	231.88
420.734	242.88
421.195	245.88
421.655	268.88
422.115	249.88
422.576	245.88
423.036	244.88
423.496	230.88
423.956	259.88
424.416	277.88
424.876	299.88
425.336	298.88
425.797	329.88
426.257	314.88
426.717	302.88
427.177	293.88
427.637	303.88
428.097	307.88
428.556	314.88
429.016	343.88
429.476	335.88
429.936	318.88
430.396	295.88
430.856	315.88
431.315	335.88
431.775	353.88
432.235	356.88
432.694	363.88
433.154	367.88
433.614	335.88
434.073	330.88
434.533	301.88
434.993	309.88
435.452	304.88
435.912	295.88
436.371	292.88
436.83	302.88
437.29	326.88
437.749	313.88
438.209	311.88
438.668	292.88
439.127	276.88
439.587	291.88
440.046	287.88
440.505	286.88
440.964	299.88
441.424	291.88
441.883	329.88
442.342	267.88
442.801	287.88
443.26	306.88
443.719	306.88
444.178	255.88
444.637	255.88
445.096	275.88
445.555	262.88
446.014	278.88
446.473	271.88
446.932	269.88
447.391	265.88
447.849	270.88
448.308	258.88
448.767	296.88
449.226	293.88
449.685	293.88
450.143	303.88
450.602	291.88
451.061	276.88
451.519	298.88
451.978	292.88
452.436	318.88
452.895	285.88
453.353	302.88
453.812	284.88
454.27	310.88
454.729	273.88
455.187	265.88
455.646	296.88
456.104	299.88
456.562	288.88
457.021	290.88
457.479	290.88
457.937	285.88
458.395	278.88
458.854	291.88
459.312	303.88
459.77	283.88
460.228	279.88
460.686	291.88
461.144	284.88
461.602	288.88
462.06	273.88
462.518	311.88
462.976	309.88
463.434	315.88
463.892	299.88
464.35	302.88
464.808	310.88
465.266	318.88
465.724	314.88
466.181	320.88
466.639	305.88
467.097	305.88
467.555	330.88
468.012	309.88
468.47	325.88
468.928	337.88
469.385	329.88
469.843	345.88
470.3	356.88
470.758	353.88
471.215	353.88
471.673	357.88
472.13	362.88
472.588	391.88
473.045	386.88
473.503	387.88
473.96	424.88
474.417	413.88
474.875	413.88
475.332	426.88
475.789	438.88
476.246	443.88
476.704	469.88
477.161	476.88
477.618	477.88
478.075	488.88
478.532	541.88
478.989	579.88
479.446	655.88
479.903	661.88
480.36	723.88
480.817	811.88
481.274	855.88
481.731	891.88
482.188	970.88
482.645	1075.88
483.102	1117.88
483.558	1201.88
484.015	1264.88
484.472	1251.88
484.929	1241.88
485.385	1194.88
485.842	1159.88
486.299	1087.88
486.755	1004.88
487.212	899.88
487.668	821.88
488.125	767.88
488.582	697.88
489.038	671.88
489.494	658.88
489.951	626.88
490.407	605.88
490.864	629.88
491.32	605.88
491.776	594.88
492.233	574.88
492.689	596.88
493.145	591.88
493.602	554.88
494.058	550.88
494.514	579.88
494.97	562.88
495.426	596.88
495.882	551.88
496.338	571.88
496.794	607.88
497.251	620.88
497.707	588.88
498.163	604.88
498.618	603.88
499.074	620.88
499.53	631.88
499.986	659.88
500.442	633.88
500.898	658.88
501.354	640.88
501.809	661.88
502.265	689.88
502.721	708.88
503.177	712.88
503.632	692.88
504.088	704.88
504.543	743.88
504.999	703.88
505.455	646.88
505.91	587.88
506.366	607.88
506.821	575.88
507.277	574.88
507.732	583.88
508.187	552.88
508.643	581.88
509.098	581.88
509.553	600.88
510.009	577.88
510.464	606.88
510.919	618.88
511.375	617.88
511.83	623.88
512.285	631.88
512.74	641.88
513.195	639.88
513.65	672.88
514.105	697.88
514.56	685.88
515.015	712.88
515.47	720.88
515.925	688.88
516.38	714.88
516.835	681.88
517.29	700.88
517.745	706.88
518.2	677.88
518.655	683.88
519.109	659.88
519.564	666.88
520.019	678.88
520.474	638.88
520.928	653.88
521.383	631.88
521.838	670.88
522.292	638.88
522.747	644.88
523.201	592.88
523.656	596.88
524.11	594.88
524.565	623.88
525.019	633.88
525.474	633.88
525.928	598.88
526.382	633.88
526.837	616.88
527.291	575.88
527.745	607.88
528.2	589.88
528.654	625.88
529.108	624.88
529.562	593.88
530.016	593.88
530.47	611.88
530.925	596.88
531.379	587.88
531.833	612.88
532.287	624.88
532.741	597.88
533.195	620.88
533.649	616.88
534.103	592.88
534.556	612.88
535.01	624.88
535.464	595.88
535.918	631.88
536.372	629.88
536.826	625.88
537.279	617.88
537.733	608.88
538.187	599.88
538.64	600.88
539.094	594.88
539.548	624.88
540.001	636.88
540.455	639.88
540.908	633.88
541.362	667.88
541.815	618.88
542.269	675.88
542.722	655.88
543.175	695.88
543.629	659.88
544.082	682.88
544.536	676.88
544.989	639.88
545.442	681.88
545.895	693.88
546.349	678.88
546.802	692.88
547.255	697.88
547.708	663.88
548.161	678.88
548.614	691.88
549.067	691.88
549.52	710.88
549.973	699.88
550.426	661.88
550.879	687.88
551.332	691.88
551.785	671.88
552.238	687.88
552.691	679.88
553.144	689.88
553.596	752.88
554.049	709.88
554.502	717.88
554.955	739.88
555.407	766.88
555.86	712.88
556.313	711.88
556.765	721.88
557.218	687.88
557.67	740.88
558.123	690.88
558.576	727.88
559.028	708.88
559.48	720.88
559.933	713.88
560.385	695.88
560.838	651.88
561.29	652.88
561.742	660.88
562.195	620.88
562.647	623.88
563.099	643.88
563.551	656.88
564.004	627.88
564.456	639.88
564.908	644.88
565.36	607.88
565.812	603.88
566.264	593.88
566.716	601.88
567.168	607.88
567.62	604.88
568.072	567.88
568.524	571.88
568.976	589.88
569.428	579.88
569.88	574.88
570.332	560.88
570.784	567.88
571.235	559.88
571.687	581.88
572.139	606.88
572.59	568.88
573.042	579.88
573.494	601.88
573.945	592.88
574.397	563.88
574.849	571.88
575.3	568.88
575.752	550.88
576.203	566.88
576.655	546.88
577.106	577.88
577.557	512.88
578.009	513.88
578.46	560.88
578.912	510.88
579.363	541.88
579.814	533.88
580.265	551.88
580.717	550.88
581.168	549.88
581.619	558.88
582.07	546.88
582.521	562.88
582.972	535.88
583.423	553.88
583.875	583.88
584.326	599.88
584.777	641.88
585.227	730.88
585.678	815.88
586.129	813.88
586.58	855.88
587.031	870.88
587.482	928.88
587.933	1137.88
588.384	998.88
588.834	854.88
589.285	664.88
589.736	615.88
590.186	647.88
590.637	599.88
591.088	606.88
591.538	604.88
591.989	577.88
592.439	611.88
592.89	598.88
593.34	572.88
593.791	600.88
594.241	608.88
594.692	613.88
595.142	605.88
595.593	584.88
596.043	563.88
596.493	582.88
596.943	607.88
597.394	607.88
597.844	582.88
598.294	579.88
598.744	602.88
599.195	639.88
599.645	669.88
600.095	681.88
600.545	720.88
600.995	733.88
601.445	765.88
601.895	786.88
602.345	835.88
602.795	801.88
603.245	783.88
603.695	726.88
604.145	684.88
604.594	696.88
605.044	671.88
605.494	653.88
605.944	580.88
606.393	601.88
606.843	554.88
607.293	601.88
607.743	578.88
608.192	595.88
608.642	576.88
609.091	569.88
609.541	604.88
609.99	603.88
610.44	577.88
610.889	575.88
611.339	557.88
611.788	555.88
612.238	536.88
612.687	557.88
613.136	579.88
613.586	584.88
614.035	602.88
614.484	602.88
614.933	614.88
615.383	580.88
615.832	575.88
616.281	555.88
616.73	545.88
617.179	519.88
617.628	536.88
618.077	534.88
618.526	552.88
618.975	540.88
619.424	516.88
619.873	493.88
620.322	511.88
620.771	491.88
621.22	497.88
621.669	492.88
622.118	495.88
622.567	491.88
623.015	474.88
623.464	489.88
623.913	469.88
624.361	465.88
624.81	483.88
625.259	440.88
625.707	468.88
626.156	451.88
626.604	444.88
627.053	458.88
627.501	467.88
627.95	471.88
628.398	487.88
628.847	472.88
629.295	447.88
629.744	447.88
630.192	471.88
630.64	531.88
631.089	525.88
631.537	600.88
631.985	599.88
632.433	622.88
632.881	609.88
633.33	682.88
633.778	885.88
634.226	591.88
634.674	542.88
635.122	531.88
635.57	520.88
636.018	621.88
636.466	538.88
636.914	473.88
637.362	484.88
637.81	466.88
638.258	457.88
638.705	479.88
639.153	453.88
639.601	488.88
640.049	482.88
640.497	501.88
640.944	511.88
641.392	511.88
641.84	476.88
642.287	476.88
642.735	461.88
643.182	451.88
643.63	447.88
644.078	445.88
644.525	471.88
644.973	452.88
645.42	471.88
645.867	483.88
646.315	488.88
646.762	499.88
647.21	530.88
647.657	541.88
648.104	572.88
648.551	608.88
648.999	610.88
649.446	682.88
649.893	753.88
650.34	841.88
650.787	1049.88
651.234	1255.88
651.682	1718.88
652.129	2365.88
652.576	3444.88
653.023	4740.88
653.47	5852.88
653.917	6631.88
654.363	6997.88
654.81	7455.88
655.257	7634.88
655.704	5815.88
656.151	3419.88
656.598	2148.88
657.044	1559.88
657.491	1195.88
657.938	983.88
658.385	808.88
658.831	710.88
659.278	659.88
659.724	615.88
660.171	559.88
660.618	517.88
661.064	491.88
661.511	464.88
661.957	473.88
662.404	431.88
662.85	467.88
663.296	448.88
663.743	442.88
664.189	425.88
664.635	411.88
665.082	432.88
665.528	391.88
665.974	386.88
666.42	418.88
666.867	435.88
667.313	419.88
667.759	420.88
668.205	459.88
668.651	485.88
669.097	431.88
669.543	511.88
669.989	498.88
670.435	391.88
670.881	378.88
671.327	411.88
671.773	402.88
672.219	417.88
672.665	470.88
673.11	454.88
673.556	451.88
674.002	476.88
674.448	497.88
674.893	451.88
675.339	381.88
675.785	354.88
676.23	359.88
676.676	332.88
677.122	323.88
677.567	315.88
678.013	313.88
678.458	305.88
678.904	315.88
679.349	315.88
679.794	321.88
680.24	320.88
680.685	307.88
681.131	313.88
681.576	312.88
682.021	298.88
682.466	307.88
682.912	282.88
683.357	317.88
683.802	355.88
684.247	339.88
684.692	376.88
685.137	408.88
685.583	416.88
686.028	392.88
686.473	413.88
686.918	363.88
687.363	354.88
687.807	321.88
688.252	319.88
688.697	312.88
689.142	315.88
689.587	324.88
690.032	306.88
690.477	289.88
690.921	300.88
691.366	376.88
691.811	369.88
692.255	353.88
692.7	393.88
693.145	482.88
693.589	738.88
694.034	907.88
694.478	1016.88
694.923	934.88
695.367	1160.88
695.812	1029.88
696.256	482.88
696.701	350.88
697.145	309.88
697.59	314.88
698.034	285.88
698.478	300.88
698.922	281.88
699.367	304.88
699.811	324.88
700.255	327.88
700.699	350.88
701.143	337.88
701.588	379.88
702.032	390.88
702.476	379.88
702.92	427.88
703.364	479.88
703.808	643.88
704.252	879.88
704.696	989.88
705.14	905.88
705.584	1119.88
706.027	929.88
706.471	483.88
706.915	347.88
707.359	313.88
707.803	283.88
708.246	270.88
708.69	287.88
709.134	315.88
709.577	272.88
710.021	292.88
710.465	273.88
710.908	266.88
711.352	259.88
711.795	297.88
712.239	311.88
712.682	338.88
713.126	337.88
713.569	344.88
714.012	327.88
714.456	273.88
714.899	288.88
715.342	267.88
715.786	267.88
716.229	276.88
716.672	259.88
717.115	253.88
717.558	246.88
718.002	239.88
718.445	241.88
718.888	272.88
719.331	269.88
719.774	277.88
720.217	269.88
720.66	271.88
721.103	248.88
721.546	235.88
721.989	250.88
722.432	214.88
722.874	248.88
723.317	242.88
723.76	241.88
724.203	265.88
724.645	338.88
725.088	368.88
725.531	403.88
725.974	393.88
726.416	429.88
726.859	327.88
727.301	243.88
727.744	246.88
728.187	241.88
728.629	250.88
729.071	253.88
729.514	261.88
729.956	271.88
730.399	259.88
730.841	259.88
731.283	250.88
731.726	248.88
732.168	277.88
732.61	242.88
733.053	279.88
733.495	280.88
733.937	337.88
734.379	354.88
734.821	393.88
735.263	531.88
735.705	817.88
736.148	1381.88
736.59	1591.88
737.032	1463.88
737.474	1513.88
737.916	794.88
738.357	400.88
738.799	289.88
739.241	284.88
739.683	276.88
740.125	281.88
740.567	313.88
741.008	284.88
741.45	312.88
741.892	312.88
742.334	319.88
742.775	294.88
743.217	294.88
743.658	292.88
744.1	266.88
744.542	289.88
744.983	283.88
745.425	295.88
745.866	286.88
746.307	277.88
746.749	274.88
747.19	339.88
747.632	525.88
748.073	945.88
748.514	1419.88
748.956	1716.88
749.397	2297.88
749.838	1827.88
750.279	1555.88
750.72	1136.88
751.162	543.88
751.603	317.88
752.044	277.88
752.485	247.88
752.926	213.88
753.367	215.88
753.808	219.88
754.249	220.88
754.69	212.88
755.131	190.88
755.572	215.88
756.013	195.88
756.453	213.88
756.894	225.88
757.335	207.88
757.776	197.88
758.216	195.88
758.657	210.88
759.098	238.88
759.538	249.88
759.979	279.88
760.42	455.88
760.86	929.88
761.301	2069.88
761.741	3046.88
762.182	3138.88
762.622	2792.88
763.063	1330.88
763.503	595.88
763.943	487.88
764.384	689.88
764.824	798.88
765.264	782.88
765.705	533.88
766.145	337.88
766.585	273.88
767.025	274.88
767.465	364.88
767.906	519.88
768.346	602.88
768.786	606.88
769.226	420.88
769.666	449.88
770.106	771.88
770.546	1303.88
770.986	1379.88
771.426	1341.88
771.866	744.88
772.306	363.88
772.745	227.88
773.185	209.88
773.625	189.88
774.065	212.88
774.505	263.88
774.944	435.88
775.384	725.88
775.824	847.88
776.263	810.88
776.703	538.88
777.142	316.88
777.582	207.88
778.021	211.88
778.461	200.88
778.9	193.88
779.34	168.88
779.779	177.88
780.219	154.88
780.658	168.88
781.097	155.88
781.537	153.88
781.976	151.88
782.415	151.88
782.855	154.88
783.294	157.88
783.733	164.88
784.172	145.88
784.611	143.88
785.05	181.88
785.489	160.88
785.928	164.88
786.367	172.88
786.806	186.88
787.245	173.88
787.684	182.88
788.123	172.88
788.562	167.88
789.001	177.88
789.44	148.88
789.879	178.88
790.317	169.88
790.756	148.88
791.195	166.88
791.634	195.88
792.072	245.88
792.511	520.88
792.95	1001.88
793.388	1263.88
793.827	1079.88
794.265	623.88
794.704	339.88
795.142	231.88
795.581	187.88
796.019	175.88
796.458	169.88
796.896	161.88
797.334	171.88
797.773	208.88
798.211	266.88
798.649	517.88
799.087	773.88
799.526	1204.88
799.964	1299.88
800.402	1109.88
800.84	631.88
801.278	363.88
801.716	228.88
802.154	199.88
802.592	191.88
803.03	196.88
803.468	189.88
803.906	182.88
804.344	197.88
804.782	188.88
805.22	169.88
805.658	167.88
806.096	180.88
806.533	189.88
806.971	195.88
807.409	235.88
807.847	376.88
808.284	805.88
808.722	1499.88
809.16	2099.88
809.597	2833.88
810.035	3648.88
810.472	3036.88
810.91	1676.88
811.347	831.88
811.785	416.88
812.222	273.88
812.66	230.88
813.097	180.88
813.535	164.88
813.972	165.88
814.409	165.88
814.846	159.88
815.284	148.88
815.721	151.88
816.158	149.88
816.595	165.88
817.032	192.88
817.47	177.88
817.907	183.88
818.344	158.88
818.781	158.88
819.218	156.88
819.655	199.88
820.092	215.88
820.529	230.88
820.966	219.88
821.403	174.88
821.839	174.88
822.276	168.88
822.713	169.88
823.15	165.88
823.587	156.88
824.023	208.88
824.46	402.88
824.897	718.88
825.333	720.88
825.77	464.88
826.206	268.88
826.643	197.88
827.08	158.88
827.516	155.88
827.953	131.88
828.389	142.88
828.825	144.88
829.262	120.88
829.698	132.88
830.135	127.88
830.571	127.88
831.007	131.88
831.443	112.88
831.88	131.88
832.316	122.88
832.752	139.88
833.188	129.88
833.624	126.88
834.06	131.88
834.497	119.88
834.933	125.88
835.369	148.88
835.805	163.88
836.241	129.88
836.677	146.88
837.112	149.88
837.548	163.88
837.984	208.88
838.42	269.88
838.856	619.88
839.292	1195.88
839.727	1300.88
840.163	859.88
840.599	992.88
841.034	1520.88
841.47	1165.88
841.906	648.88
842.341	391.88
842.777	314.88
843.212	339.88
843.648	262.88
844.083	204.88
844.519	172.88
844.954	152.88
845.39	134.88
845.825	119.88
846.261	119.88
846.696	122.88
847.131	115.88
847.566	119.88
848.002	121.88
848.437	113.88
848.872	127.88
849.307	114.88
849.742	153.88
850.177	267.88
850.613	476.88
851.048	535.88
851.483	320.88
851.918	233.88
852.353	152.88
852.788	154.88
853.223	137.88
853.657	126.88
854.092	102.88
854.527	115.88
854.962	127.88
855.397	120.88
855.832	117.88
856.266	111.88
856.701	107.88
857.136	108.88
857.57	132.88
858.005	125.88
858.44	114.88
858.874	109.88
859.309	121.88
859.743	111.88
860.178	105.88
860.612	105.88
861.047	121.88
861.481	143.88
861.915	127.88
862.35	128.88
862.784	131.88
863.218	108.88
863.653	103.88
864.087	121.88
864.521	121.88
864.955	138.88
865.39	184.88
865.824	165.88
866.258	179.88
866.692	187.88
867.126	202.88
867.56	158.88
867.994	145.88
868.428	128.88
868.862	135.88
869.296	127.88
869.73	124.88
870.164	131.88
870.598	119.88
871.031	119.88
871.465	103.88
871.899	109.88
872.333	89.88
872.766	101.88
873.2	110.88
873.634	85.88
874.067	88.88
874.501	101.88
874.935	99.88
875.368	103.88
875.802	102.88
876.235	102.88
876.669	120.88
877.102	95.88
877.535	99.88
877.969	103.88
878.402	94.88
878.836	102.88
879.269	100.88
879.702	109.88
880.135	103.88
880.569	101.88
881.002	115.88
881.435	114.88
881.868	91.88
882.301	110.88
882.734	113.88
883.167	85.88
883.601	88.88
884.034	85.88
884.467	103.88
884.899	101.88
885.332	95.88
885.765	97.88
886.198	92.88
886.631	90.88
887.064	96.88
887.497	107.88
887.929	97.88
888.362	88.88
888.795	95.88
889.228	105.88
889.66	97.88
890.093	96.88
890.526	95.88
890.958	85.88
891.391	108.88
891.823	93.88
892.256	97.88
892.688	93.88
893.121	105.88
893.553	103.88
893.985	88.88
894.418	100.88
894.85	93.88
895.282	88.88
895.715	85.88
896.147	103.88
896.579	102.88
897.011	88.88
897.444	77.88
897.876	88.88
898.308	99.88
898.74	105.88
899.172	98.88
899.604	100.88
900.036	89.88
900.468	99.88
900.9	109.88
901.332	91.88
901.764	89.88
902.196	104.88
902.628	92.88
903.06	99.88
903.491	115.88
903.923	100.88
904.355	119.88
904.787	109.88
905.218	104.88
905.65	84.88
906.082	105.88
906.513	79.88
906.945	92.88
907.376	102.88
907.808	98.88
908.239	99.88
908.671	95.88
909.102	109.88
909.534	126.88
909.965	120.88
910.397	171.88
910.828	332.88
911.259	365.88
911.691	219.88
912.122	184.88
912.553	140.88
912.984	96.88
913.415	99.88
913.847	94.88
914.278	98.88
914.709	91.88
915.14	103.88
915.571	101.88
916.002	91.88
916.433	98.88
916.864	91.88
917.295	95.88
917.726	104.88
918.157	105.88
918.587	89.88
919.018	93.88
919.449	104.88
919.88	101.88
920.311	101.88
920.741	135.88
921.172	217.88
921.603	177.88
922.033	118.88
922.464	136.88
922.895	100.88
923.325	105.88
923.756	89.88
924.186	101.88
924.617	91.88
925.047	119.88
925.478	139.88
925.908	121.88
926.338	99.88
926.769	88.88
927.199	104.88
927.629	93.88
928.06	70.88
928.49	100.88
928.92	79.88
929.35	87.88
929.78	100.88
930.21	90.88
930.641	101.88
931.071	79.88
931.501	83.88
931.931	81.88
932.361	82.88
932.791	94.88
933.221	93.88
933.651	95.88
934.08	105.88
934.51	107.88
934.94	111.88
935.37	90.88
935.8	72.88
936.229	77.88
936.659	103.88
937.089	114.88
937.519	78.88
937.948	94.88
938.378	92.88
938.807	77.88
939.237	87.88
939.666	95.88
940.096	91.88
940.525	98.88
940.955	87.88
941.384	81.88
941.814	80.88
942.243	74.88
942.672	72.88
943.102	81.88
943.531	71.88
943.96	81.88
944.39	70.88
944.819	92.88
945.248	100.88
945.677	95.88
946.106	85.88
946.535	81.88
946.964	91.88
947.393	77.88
947.822	81.88
948.251	73.88
948.68	84.88
949.109	75.88
949.538	80.88
949.967	95.88
950.396	89.88
950.825	80.88
951.254	93.88
951.682	73.88
952.111	87.88
952.54	73.88
952.969	71.88
953.397	84.88
953.826	78.88
954.254	79.88
954.683	83.88
955.112	60.88
955.54	85.88
955.969	89.88
956.397	97.88
956.826	95.88
957.254	75.88
957.682	100.88
958.111	69.88
958.539	91.88
958.967	87.88
959.396	81.88
959.824	83.88
960.252	61.88
960.68	76.88
961.109	73.88
961.537	73.88
961.965	69.88
962.393	89.88
962.821	70.88
963.249	81.88
963.677	84.88
964.105	93.88
964.533	95.88
964.961	113.88
965.389	98.88
965.817	86.88
966.245	93.88
966.672	80.88
967.1	79.88
967.528	85.88
967.956	85.88
968.383	79.88
968.811	83.88
969.239	92.88
969.666	87.88
970.094	93.88
970.522	80.88
970.949	90.88
971.377	93.88
971.804	78.88
972.232	88.88
972.659	80.88
973.087	95.88
973.514	78.88
973.941	76.88
974.369	83.88
974.796	88.88
975.223	91.88
975.651	89.88
976.078	73.88
976.505	97.88
976.932	86.88
977.359	105.88
977.786	112.88
978.214	97.88
978.641	84.88
979.068	99.88
979.495	81.88
979.922	78.88
980.349	73.88
980.776	86.88
981.202	101.88
981.629	87.88
982.056	84.88
982.483	87.88
982.91	77.88
983.337	83.88
983.763	74.88
984.19	95.88
984.617	84.88
985.043	89.88
985.47	85.88
985.897	91.88
986.323	94.88
986.75	75.88
987.176	78.88
987.603	85.88
988.029	77.88
988.456	91.88
988.882	75.88
989.308	95.88
989.735	77.88
990.161	66.88
990.587	71.88
991.014	91.88
991.44	83.88
991.866	88.88
992.292	84.88
992.719	68.88
993.145	77.88
993.571	67.88
993.997	86.88
994.423	70.88
994.849	89.88
995.275	79.88
995.701	77.88
996.127	85.88
996.553	57.88
996.979	77.88
997.405	95.88
997.83	82.88
998.256	65.88
998.682	84.88
999.108	91.88
999.534	78.88
999.959	85.88
1000.385	87.88
1000.811	89.88
1001.236	88.88
1001.662	87.88
1002.087	72.88
1002.513	85.88
1002.938	91.88
1003.364	83.88
1003.789	95.88
1004.215	89.88
1004.64	63.88
1005.066	81.88
1005.491	80.88
1005.916	90.88
1006.342	89.88
1006.767	81.88
1007.192	84.88
1007.617	91.88
1008.042	72.88
1008.468	80.88
1008.893	79.88
1009.318	71.88
1009.743	83.88
1010.168	65.88
1010.593	80.88
1011.018	82.88
1011.443	87.88
1011.868	79.88
1012.293	69.88
1012.718	95.88
1013.143	75.88
1013.567	93.88
1013.992	75.88
1014.417	83.88
1014.842	86.88
1015.267	70.88
1015.691	80.88
1016.116	83.88
1016.541	88.88
1016.965	70.88
1017.39	84.88
1017.814	73.88
1018.239	79.88
1018.663	72.88
1019.088	68.88
1019.512	61.88
1019.937	78.88
1020.361	83.88
1020.785	67.88
1021.21	80.88
1021.634	78.88
1022.058	84.88
1022.483	78.88
1022.907	76.88
1023.331	85.88
1023.755	86.88
1024.179	83.88
1024.604	88.88
1025.028	86.88
1025.452	85.88
1025.876	91.88
1026.3	64.88
1026.724	93.88
1027.148	84.88
1027.572	68.88
1027.996	65.88
1028.42	86.88
1028.843	77.88
1029.267	79.88
1029.691	73.88
1030.115	85.88
1030.539	87.88
1030.962	89.88
1031.386	73.88
1031.81	86.88
1032.233	71.88
1032.657	74.88
1033.08	95.88
1033.504	89.88
1033.927	97.88
1034.351	58.88
1034.774	77.88
1035.198	80.88
1035.621	72.88
1036.045	88.88
1036.468	77.88
1036.891	80.88
1037.315	81.88
1037.738	76.88
1038.161	63.88
1038.584	81.88
1039.008	91.88
1039.431	74.88
1039.854	75.88
1040.277	88.88
1040.7	69.88
1041.123	79.88
1041.546	81.88
1041.969	76.88
1042.392	87.88
1042.815	104.88
1043.238	93.88
1043.661	89.88
1044.084	70.88
1044.507	76.88
1044.93	80.88
1045.352	77.88
1045.775	86.88
1046.198	79.88
1046.621	93.88
1047.043	71.88
1047.466	85.88
1047.889	84.88
1048.311	85.88
1048.734	89.88
1049.156	89.88
1049.579	77.88
1050.001	93.88
1050.424	66.88
1050.846	67.88
1051.269	81.88
1051.691	77.88
1052.113	95.88
1052.536	79.88
1052.958	70.88
1053.38	66.88
1053.802	71.88
1054.225	99.88
1054.647	64.88
1055.069	81.88
1055.491	97.88
1055.913	76.88
1056.335	69.88
1056.757	80.88
1057.179	89.88
1057.601	108.88
1058.023	86.88
1058.445	99.88
1058.867	97.88
1059.289	86.88
1059.711	71.88
1060.133	81.88
1060.555	72.88
1060.976	81.88
1061.398	85.88
1061.82	86.88
1062.241	80.88
1062.663	92.88
1063.085	78.88
1063.506	72.88
1063.928	107.88
1064.35	85.88
1064.771	76.88
1065.193	78.88
1065.614	69.88
1066.035	78.88
1066.457	84.88
1066.878	89.88
1067.3	84.88
1067.721	68.88
1068.142	79.88
1068.564	90.88
1068.985	94.88
1069.406	71.88
1069.827	81.88
1070.248	84.88
1070.67	80.88
1071.091	105.88
1071.512	78.88
1071.933	69.88
1072.354	87.88
1072.775	68.88
1073.196	82.88
1073.617	87.88
1074.038	80.88
1074.459	91.88
1074.88	87.88
1075.3	91.88
1075.721	89.88
1076.142	81.88
1076.563	86.88
1076.983	72.88
1077.404	80.88
1077.825	78.88
1078.246	76.88
1078.666	83.88
1079.087	98.88
1079.507	79.88
1079.928	77.88
1080.348	92.88
1080.769	79.88
1081.189	96.88
1081.61	88.88
1082.03	79.88
1082.451	65.88
1082.871	67.88
1083.291	80.88
1083.711	89.88
1084.132	91.88
1084.552	83.88
1084.972	66.88
1085.392	84.88
1085.813	67.88
1086.233	79.88
1086.653	68.88
1087.073	75.88
1087.493	72.88
1087.913	89.88
1088.333	76.88
1088.753	74.88
1089.173	69.88
1089.593	79.88
1090.013	84.88
1090.433	83.88
1090.852	80.88
1091.272	81.88
1091.692	75.88
1092.112	74.88
1092.531	75.88
1092.951	89.88
1093.371	66.88
1093.79	77.88
1094.21	75.88
1094.63	82.88
1095.049	65.88
1095.469	85.88
1095.888	87.88
1096.308	75.88
1096.727	82.88
1097.146	69.88
1097.566	96.88
1097.985	83.88
1098.405	72.88
1098.824	71.88
1099.243	80.88
1099.662	84.88
1100.082	83.88
1100.501	84.88
1100.92	87.88
1101.339	70.88
1101.758	73.88
