Data from 20170802-ORNL-NYSim-Air_HRD10391_10-38-15-657.txt Node
Date: Wed Aug 02 10:38:15 EDT 2017
User: Ender
Spectrometer: HR+D1039
Trigger mode: 0
Integration Time (sec): 1.100000E-3
Scans to average: 1
Electric dark correction enabled: true
Nonlinearity correction enabled: false
Boxcar width: 0
XAxis mode: Wavelengths
Number of Pixels in Spectrum: 2048
>>>>>Begin Spectral Data<<<<<
187.836	6.5
188.309	6.5
188.782	6.5
189.255	-16.5
189.728	-4.5
190.201	-12.5
190.674	-7.5
191.147	2.5
191.619	-12.5
192.092	-4.5
192.565	-2.5
193.038	3.5
193.511	7.5
193.984	2.5
194.456	5.5
194.929	14.5
195.402	4.5
195.874	13.5
196.347	23.5
196.82	35.5
197.292	28.5
197.765	45.5
198.237	35.5
198.71	50.5
199.182	46.5
199.655	47.5
200.127	61.5
200.6	65.5
201.072	57.5
201.544	77.5
202.017	69.5
202.489	74.5
202.961	49.5
203.433	76.5
203.906	76.5
204.378	77.5
204.85	68.5
205.322	83.5
205.794	82.5
206.266	70.5
206.739	76.5
207.211	72.5
207.683	83.5
208.155	101.5
208.627	95.5
209.099	93.5
209.57	86.5
210.042	94.5
210.514	95.5
210.986	104.5
211.458	97.5
211.93	89.5
212.402	93.5
212.873	80.5
213.345	88.5
213.817	87.5
214.288	84.5
214.76	93.5
215.232	73.5
215.703	78.5
216.175	80.5
216.646	89.5
217.118	84.5
217.589	77.5
218.061	97.5
218.532	80.5
219.004	93.5
219.475	98.5
219.946	102.5
220.418	74.5
220.889	73.5
221.36	92.5
221.832	82.5
222.303	63.5
222.774	71.5
223.245	72.5
223.717	86.5
224.188	85.5
224.659	74.5
225.13	77.5
225.601	79.5
226.072	74.5
226.543	76.5
227.014	81.5
227.485	95.5
227.956	102.5
228.427	87.5
228.898	88.5
229.369	74.5
229.839	87.5
230.31	94.5
230.781	73.5
231.252	76.5
231.722	83.5
232.193	83.5
232.664	82.5
233.135	85.5
233.605	91.5
234.076	91.5
234.546	104.5
235.017	76.5
235.487	77.5
235.958	69.5
236.428	88.5
236.899	85.5
237.369	85.5
237.84	79.5
238.31	89.5
238.78	97.5
239.251	103.5
239.721	82.5
240.191	85.5
240.662	75.5
241.132	98.5
241.602	82.5
242.072	98.5
242.542	91.5
243.013	80.5
243.483	90.5
243.953	74.5
244.423	92.5
244.893	95.5
245.363	80.5
245.833	90.5
246.303	92.5
246.773	84.5
247.243	94.5
247.712	76.5
248.182	85.5
248.652	96.5
249.122	81.5
249.592	124.5
250.061	155.5
250.531	153.5
251.001	162.5
251.471	125.5
251.94	118.5
252.41	116.5
252.879	102.5
253.349	86.5
253.818	98.5
254.288	93.5
254.757	87.5
255.227	112.5
255.696	107.5
256.166	98.5
256.635	95.5
257.105	105.5
257.574	101.5
258.043	98.5
258.513	108.5
258.982	107.5
259.451	126.5
259.92	119.5
260.389	115.5
260.859	109.5
261.328	106.5
261.797	117.5
262.266	127.5
262.735	88.5
263.204	99.5
263.673	105.5
264.142	93.5
264.611	96.5
265.08	99.5
265.549	106.5
266.018	96.5
266.487	107.5
266.955	88.5
267.424	95.5
267.893	89.5
268.362	100.5
268.83	91.5
269.299	114.5
269.768	106.5
270.236	109.5
270.705	102.5
271.174	107.5
271.642	102.5
272.111	107.5
272.579	108.5
273.048	136.5
273.516	137.5
273.985	130.5
274.453	130.5
274.922	108.5
275.39	105.5
275.858	104.5
276.327	82.5
276.795	97.5
277.263	87.5
277.731	104.5
278.2	131.5
278.668	127.5
279.136	121.5
279.604	109.5
280.072	98.5
280.54	118.5
281.008	104.5
281.477	92.5
281.945	121.5
282.413	106.5
282.881	100.5
283.348	98.5
283.816	106.5
284.284	96.5
284.752	111.5
285.22	111.5
285.688	101.5
286.156	126.5
286.623	169.5
287.091	236.5
287.559	187.5
288.026	115.5
288.494	117.5
288.962	114.5
289.429	114.5
289.897	115.5
290.364	92.5
290.832	107.5
291.3	108.5
291.767	112.5
292.234	101.5
292.702	94.5
293.169	89.5
293.637	108.5
294.104	107.5
294.571	82.5
295.039	109.5
295.506	119.5
295.973	104.5
296.44	102.5
296.908	100.5
297.375	117.5
297.842	113.5
298.309	98.5
298.776	104.5
299.243	117.5
299.71	106.5
300.177	107.5
300.644	106.5
301.111	107.5
301.578	114.5
302.045	115.5
302.512	109.5
302.979	107.5
303.446	118.5
303.913	101.5
304.379	105.5
304.846	118.5
305.313	105.5
305.78	126.5
306.246	123.5
306.713	128.5
307.18	123.5
307.646	126.5
308.113	127.5
308.579	128.5
309.046	125.5
309.512	117.5
309.979	114.5
310.445	115.5
310.912	119.5
311.378	101.5
311.845	112.5
312.311	113.5
312.777	115.5
313.244	126.5
313.71	119.5
314.176	122.5
314.642	109.5
315.109	130.5
315.575	115.5
316.041	132.5
316.507	128.5
316.973	126.5
317.439	124.5
317.905	137.5
318.371	137.5
318.837	140.5
319.303	137.5
319.769	138.5
320.235	140.5
320.701	142.5
321.167	137.5
321.633	155.5
322.099	166.5
322.564	212.5
323.03	182.5
323.496	147.5
323.962	144.5
324.427	133.5
324.893	143.5
325.359	126.5
325.824	134.5
326.29	131.5
326.755	155.5
327.221	149.5
327.686	142.5
328.152	137.5
328.617	124.5
329.083	141.5
329.548	141.5
330.014	146.5
330.479	142.5
330.944	155.5
331.41	149.5
331.875	156.5
332.34	138.5
332.805	175.5
333.271	169.5
333.736	192.5
334.201	218.5
334.666	194.5
335.131	174.5
335.596	201.5
336.061	167.5
336.526	176.5
336.991	167.5
337.456	153.5
337.921	172.5
338.386	155.5
338.851	139.5
339.316	137.5
339.781	119.5
340.246	157.5
340.711	145.5
341.175	132.5
341.64	119.5
342.105	151.5
342.569	160.5
343.034	153.5
343.499	148.5
343.963	158.5
344.428	145.5
344.893	140.5
345.357	147.5
345.822	140.5
346.286	168.5
346.751	158.5
347.215	154.5
347.679	153.5
348.144	159.5
348.608	157.5
349.073	147.5
349.537	169.5
350.001	155.5
350.465	173.5
350.93	154.5
351.394	159.5
351.858	147.5
352.322	164.5
352.786	160.5
353.25	144.5
353.715	151.5
354.179	161.5
354.643	174.5
355.107	171.5
355.571	183.5
356.035	186.5
356.498	175.5
356.962	173.5
357.426	154.5
357.89	183.5
358.354	180.5
358.818	179.5
359.281	159.5
359.745	186.5
360.209	194.5
360.673	160.5
361.136	181.5
361.6	162.5
362.064	169.5
362.527	182.5
362.991	188.5
363.454	183.5
363.918	177.5
364.381	163.5
364.845	159.5
365.308	182.5
365.772	174.5
366.235	185.5
366.698	195.5
367.162	204.5
367.625	214.5
368.088	187.5
368.552	197.5
369.015	205.5
369.478	172.5
369.941	188.5
370.404	198.5
370.867	183.5
371.331	197.5
371.794	186.5
372.257	231.5
372.72	215.5
373.183	223.5
373.646	241.5
374.109	231.5
374.572	235.5
375.035	253.5
375.497	231.5
375.96	202.5
376.423	194.5
376.886	201.5
377.349	197.5
377.811	199.5
378.274	187.5
378.737	185.5
379.199	207.5
379.662	203.5
380.125	222.5
380.587	225.5
381.05	242.5
381.512	250.5
381.975	223.5
382.437	234.5
382.9	233.5
383.362	247.5
383.825	223.5
384.287	275.5
384.75	274.5
385.212	274.5
385.674	270.5
386.136	235.5
386.599	226.5
387.061	225.5
387.523	248.5
387.985	253.5
388.447	279.5
388.91	267.5
389.372	292.5
389.834	291.5
390.296	256.5
390.758	259.5
391.22	258.5
391.682	307.5
392.144	389.5
392.606	391.5
393.068	287.5
393.529	253.5
393.991	263.5
394.453	257.5
394.915	273.5
395.377	305.5
395.838	343.5
396.3	284.5
396.762	222.5
397.224	235.5
397.685	245.5
398.147	235.5
398.608	233.5
399.07	227.5
399.531	216.5
399.993	224.5
400.454	233.5
400.916	243.5
401.377	242.5
401.839	229.5
402.3	253.5
402.762	264.5
403.223	267.5
403.684	279.5
404.145	258.5
404.607	237.5
405.068	264.5
405.529	266.5
405.99	268.5
406.451	284.5
406.913	237.5
407.374	275.5
407.835	279.5
408.296	252.5
408.757	268.5
409.218	285.5
409.679	281.5
410.14	293.5
410.601	299.5
411.062	314.5
411.522	316.5
411.983	347.5
412.444	320.5
412.905	283.5
413.366	295.5
413.826	300.5
414.287	316.5
414.748	350.5
415.208	375.5
415.669	326.5
416.13	306.5
416.59	295.5
417.051	314.5
417.511	307.5
417.972	342.5
418.432	343.5
418.893	385.5
419.353	381.5
419.814	298.5
420.274	259.5
420.734	262.5
421.195	302.5
421.655	283.5
422.115	300.5
422.576	283.5
423.036	265.5
423.496	309.5
423.956	320.5
424.416	350.5
424.876	353.5
425.336	332.5
425.797	351.5
426.257	338.5
426.717	327.5
427.177	315.5
427.637	334.5
428.097	329.5
428.556	336.5
429.016	353.5
429.476	388.5
429.936	359.5
430.396	355.5
430.856	373.5
431.315	356.5
431.775	377.5
432.235	419.5
432.694	417.5
433.154	425.5
433.614	414.5
434.073	396.5
434.533	354.5
434.993	351.5
435.452	357.5
435.912	336.5
436.371	319.5
436.83	335.5
437.29	361.5
437.749	332.5
438.209	323.5
438.668	327.5
439.127	336.5
439.587	337.5
440.046	313.5
440.505	314.5
440.964	309.5
441.424	338.5
441.883	342.5
442.342	326.5
442.801	325.5
443.26	309.5
443.719	308.5
444.178	325.5
444.637	313.5
445.096	328.5
445.555	314.5
446.014	323.5
446.473	320.5
446.932	325.5
447.391	320.5
447.849	315.5
448.308	315.5
448.767	312.5
449.226	309.5
449.685	325.5
450.143	340.5
450.602	313.5
451.061	310.5
451.519	347.5
451.978	330.5
452.436	349.5
452.895	316.5
453.353	318.5
453.812	337.5
454.27	328.5
454.729	313.5
455.187	338.5
455.646	354.5
456.104	341.5
456.562	333.5
457.021	311.5
457.479	338.5
457.937	329.5
458.395	336.5
458.854	319.5
459.312	326.5
459.77	335.5
460.228	324.5
460.686	330.5
461.144	339.5
461.602	324.5
462.06	306.5
462.518	339.5
462.976	356.5
463.434	347.5
463.892	337.5
464.35	342.5
464.808	353.5
465.266	343.5
465.724	356.5
466.181	348.5
466.639	354.5
467.097	381.5
467.555	357.5
468.012	390.5
468.47	380.5
468.928	391.5
469.385	377.5
469.843	379.5
470.3	385.5
470.758	426.5
471.215	403.5
471.673	412.5
472.13	432.5
472.588	433.5
473.045	431.5
473.503	440.5
473.96	466.5
474.417	457.5
474.875	481.5
475.332	539.5
475.789	503.5
476.246	504.5
476.704	527.5
477.161	556.5
477.618	550.5
478.075	589.5
478.532	654.5
478.989	680.5
479.446	734.5
479.903	761.5
480.36	855.5
480.817	855.5
481.274	948.5
481.731	1067.5
482.188	1140.5
482.645	1207.5
483.102	1235.5
483.558	1331.5
484.015	1427.5
484.472	1423.5
484.929	1379.5
485.385	1339.5
485.842	1294.5
486.299	1263.5
486.755	1144.5
487.212	1047.5
487.668	946.5
488.125	895.5
488.582	797.5
489.038	758.5
489.494	749.5
489.951	732.5
490.407	707.5
490.864	694.5
491.32	687.5
491.776	660.5
492.233	675.5
492.689	677.5
493.145	634.5
493.602	643.5
494.058	661.5
494.514	683.5
494.97	654.5
495.426	665.5
495.882	684.5
496.338	672.5
496.794	694.5
497.251	698.5
497.707	675.5
498.163	689.5
498.618	693.5
499.074	687.5
499.53	703.5
499.986	709.5
500.442	725.5
500.898	707.5
501.354	717.5
501.809	727.5
502.265	733.5
502.721	757.5
503.177	754.5
503.632	743.5
504.088	761.5
504.543	817.5
504.999	775.5
505.455	690.5
505.91	682.5
506.366	686.5
506.821	685.5
507.277	681.5
507.732	663.5
508.187	687.5
508.643	690.5
509.098	680.5
509.553	717.5
510.009	690.5
510.464	713.5
510.919	680.5
511.375	720.5
511.83	739.5
512.285	750.5
512.74	738.5
513.195	750.5
513.65	763.5
514.105	790.5
514.56	767.5
515.015	811.5
515.47	765.5
515.925	811.5
516.38	813.5
516.835	786.5
517.29	814.5
517.745	807.5
518.2	795.5
518.655	817.5
519.109	750.5
519.564	747.5
520.019	747.5
520.474	748.5
520.928	770.5
521.383	738.5
521.838	747.5
522.292	739.5
522.747	711.5
523.201	722.5
523.656	722.5
524.11	756.5
524.565	725.5
525.019	708.5
525.474	741.5
525.928	741.5
526.382	716.5
526.837	715.5
527.291	685.5
527.745	709.5
528.2	682.5
528.654	687.5
529.108	721.5
529.562	690.5
530.016	691.5
530.47	730.5
530.925	703.5
531.379	733.5
531.833	694.5
532.287	691.5
532.741	686.5
533.195	684.5
533.649	712.5
534.103	729.5
534.556	713.5
535.01	734.5
535.464	702.5
535.918	713.5
536.372	704.5
536.826	722.5
537.279	716.5
537.733	712.5
538.187	719.5
538.64	699.5
539.094	712.5
539.548	722.5
540.001	744.5
540.455	735.5
540.908	719.5
541.362	759.5
541.815	747.5
542.269	782.5
542.722	765.5
543.175	755.5
543.629	765.5
544.082	761.5
544.536	761.5
544.989	755.5
545.442	779.5
545.895	804.5
546.349	775.5
546.802	790.5
547.255	797.5
547.708	789.5
548.161	763.5
548.614	789.5
549.067	807.5
549.52	797.5
549.973	794.5
550.426	795.5
550.879	785.5
551.332	786.5
551.785	753.5
552.238	804.5
552.691	772.5
553.144	799.5
553.596	813.5
554.049	798.5
554.502	827.5
554.955	861.5
555.407	855.5
555.86	854.5
556.313	838.5
556.765	864.5
557.218	841.5
557.67	846.5
558.123	816.5
558.576	817.5
559.028	812.5
559.48	852.5
559.933	832.5
560.385	768.5
560.838	806.5
561.29	753.5
561.742	800.5
562.195	725.5
562.647	743.5
563.099	748.5
563.551	734.5
564.004	756.5
564.456	754.5
564.908	724.5
565.36	706.5
565.812	666.5
566.264	693.5
566.716	680.5
567.168	689.5
567.62	668.5
568.072	644.5
568.524	669.5
568.976	676.5
569.428	675.5
569.88	664.5
570.332	661.5
570.784	678.5
571.235	668.5
571.687	659.5
572.139	680.5
572.59	680.5
573.042	681.5
573.494	701.5
573.945	701.5
574.397	672.5
574.849	664.5
575.3	665.5
575.752	675.5
576.203	637.5
576.655	655.5
577.106	654.5
577.557	641.5
578.009	649.5
578.46	646.5
578.912	622.5
579.363	639.5
579.814	612.5
580.265	602.5
580.717	624.5
581.168	617.5
581.619	633.5
582.07	611.5
582.521	627.5
582.972	647.5
583.423	657.5
583.875	659.5
584.326	658.5
584.777	729.5
585.227	763.5
585.678	877.5
586.129	889.5
586.58	942.5
587.031	977.5
587.482	1009.5
587.933	1159.5
588.384	1073.5
588.834	923.5
589.285	777.5
589.736	688.5
590.186	703.5
590.637	712.5
591.088	705.5
591.538	694.5
591.989	680.5
592.439	680.5
592.89	688.5
593.34	681.5
593.791	683.5
594.241	660.5
594.692	673.5
595.142	681.5
595.593	671.5
596.043	658.5
596.493	667.5
596.943	696.5
597.394	661.5
597.844	689.5
598.294	686.5
598.744	693.5
599.195	710.5
599.645	738.5
600.095	778.5
600.545	826.5
600.995	877.5
601.445	891.5
601.895	948.5
602.345	924.5
602.795	955.5
603.245	935.5
603.695	859.5
604.145	831.5
604.594	791.5
605.044	773.5
605.494	701.5
605.944	681.5
606.393	691.5
606.843	652.5
607.293	669.5
607.743	679.5
608.192	659.5
608.642	651.5
609.091	661.5
609.541	658.5
609.99	666.5
610.44	642.5
610.889	632.5
611.339	630.5
611.788	617.5
612.238	653.5
612.687	633.5
613.136	639.5
613.586	659.5
614.035	650.5
614.484	641.5
614.933	654.5
615.383	647.5
615.832	623.5
616.281	634.5
616.73	596.5
617.179	611.5
617.628	612.5
618.077	613.5
618.526	572.5
618.975	567.5
619.424	596.5
619.873	585.5
620.322	551.5
620.771	587.5
621.22	557.5
621.669	543.5
622.118	558.5
622.567	536.5
623.015	503.5
623.464	519.5
623.913	515.5
624.361	515.5
624.81	536.5
625.259	524.5
625.707	556.5
626.156	519.5
626.604	529.5
627.053	516.5
627.501	542.5
627.95	540.5
628.398	559.5
628.847	528.5
629.295	513.5
629.744	521.5
630.192	531.5
630.64	554.5
631.089	598.5
631.537	614.5
631.985	632.5
632.433	641.5
632.881	655.5
633.33	687.5
633.778	771.5
634.226	625.5
634.674	565.5
635.122	575.5
635.57	570.5
636.018	633.5
636.466	569.5
636.914	520.5
637.362	509.5
637.81	524.5
638.258	531.5
638.705	560.5
639.153	571.5
639.601	569.5
640.049	581.5
640.497	595.5
640.944	586.5
641.392	585.5
641.84	564.5
642.287	513.5
642.735	528.5
643.182	499.5
643.63	501.5
644.078	528.5
644.525	516.5
644.973	547.5
645.42	558.5
645.867	534.5
646.315	543.5
646.762	565.5
647.21	603.5
647.657	635.5
648.104	649.5
648.551	688.5
648.999	715.5
649.446	804.5
649.893	815.5
650.34	967.5
650.787	1136.5
651.234	1444.5
651.682	1934.5
652.129	2691.5
652.576	3859.5
653.023	5250.5
653.47	6596.5
653.917	7360.5
654.363	7749.5
654.81	8263.5
655.257	8534.5
655.704	6498.5
656.151	3882.5
656.598	2501.5
657.044	1751.5
657.491	1361.5
657.938	1116.5
658.385	937.5
658.831	828.5
659.278	773.5
659.724	677.5
660.171	635.5
660.618	597.5
661.064	570.5
661.511	548.5
661.957	534.5
662.404	507.5
662.85	497.5
663.296	491.5
663.743	468.5
664.189	478.5
664.635	455.5
665.082	468.5
665.528	474.5
665.974	475.5
666.42	448.5
666.867	478.5
667.313	443.5
667.759	479.5
668.205	462.5
668.651	505.5
669.097	490.5
669.543	519.5
669.989	513.5
670.435	451.5
670.881	445.5
671.327	407.5
671.773	451.5
672.219	458.5
672.665	522.5
673.11	516.5
673.556	547.5
674.002	562.5
674.448	575.5
674.893	521.5
675.339	466.5
675.785	422.5
676.23	393.5
676.676	377.5
677.122	378.5
677.567	372.5
678.013	356.5
678.458	377.5
678.904	354.5
679.349	368.5
679.794	352.5
680.24	369.5
680.685	374.5
681.131	347.5
681.576	349.5
682.021	358.5
682.466	341.5
682.912	361.5
683.357	381.5
683.802	374.5
684.247	410.5
684.692	401.5
685.137	452.5
685.583	446.5
686.028	465.5
686.473	466.5
686.918	435.5
687.363	390.5
687.807	361.5
688.252	365.5
688.697	358.5
689.142	330.5
689.587	327.5
690.032	352.5
690.477	341.5
690.921	350.5
691.366	372.5
691.811	397.5
692.255	403.5
692.7	453.5
693.145	580.5
693.589	821.5
694.034	1117.5
694.478	1162.5
694.923	1089.5
695.367	1305.5
695.812	1176.5
696.256	538.5
696.701	389.5
697.145	328.5
697.59	301.5
698.034	327.5
698.478	305.5
698.922	318.5
699.367	335.5
699.811	346.5
700.255	365.5
700.699	379.5
701.143	411.5
701.588	430.5
702.032	446.5
702.476	452.5
702.92	452.5
703.364	533.5
703.808	750.5
704.252	1009.5
704.696	1147.5
705.14	1056.5
705.584	1317.5
706.027	1078.5
706.471	516.5
706.915	402.5
707.359	362.5
707.803	327.5
708.246	314.5
708.69	323.5
709.134	310.5
709.577	329.5
710.021	305.5
710.465	312.5
710.908	327.5
711.352	329.5
711.795	335.5
712.239	362.5
712.682	369.5
713.126	364.5
713.569	393.5
714.012	379.5
714.456	341.5
714.899	310.5
715.342	302.5
715.786	286.5
716.229	284.5
716.672	293.5
717.115	255.5
717.558	269.5
718.002	275.5
718.445	298.5
718.888	283.5
719.331	301.5
719.774	305.5
720.217	310.5
720.66	305.5
721.103	279.5
721.546	275.5
721.989	270.5
722.432	262.5
722.874	264.5
723.317	261.5
723.76	290.5
724.203	306.5
724.645	379.5
725.088	445.5
725.531	459.5
725.974	457.5
726.416	512.5
726.859	340.5
727.301	283.5
727.744	262.5
728.187	275.5
728.629	277.5
729.071	273.5
729.514	283.5
729.956	299.5
730.399	275.5
730.841	304.5
731.283	290.5
731.726	273.5
732.168	267.5
732.61	286.5
733.053	322.5
733.495	322.5
733.937	351.5
734.379	385.5
734.821	457.5
735.263	590.5
735.705	997.5
736.148	1559.5
736.59	1821.5
737.032	1697.5
737.474	1792.5
737.916	891.5
738.357	454.5
738.799	361.5
739.241	328.5
739.683	321.5
740.125	318.5
740.567	318.5
741.008	330.5
741.45	336.5
741.892	348.5
742.334	336.5
742.775	334.5
743.217	342.5
743.658	321.5
744.1	294.5
744.542	308.5
744.983	352.5
745.425	326.5
745.866	345.5
746.307	327.5
746.749	316.5
747.19	391.5
747.632	621.5
748.073	1083.5
748.514	1618.5
748.956	2014.5
749.397	2692.5
749.838	2165.5
750.279	1787.5
750.72	1340.5
751.162	630.5
751.603	348.5
752.044	272.5
752.485	246.5
752.926	227.5
753.367	220.5
753.808	221.5
754.249	221.5
754.69	230.5
755.131	244.5
755.572	239.5
756.013	239.5
756.453	243.5
756.894	255.5
757.335	239.5
757.776	217.5
758.216	249.5
758.657	242.5
759.098	273.5
759.538	291.5
759.979	349.5
760.42	535.5
760.86	1066.5
761.301	2394.5
761.741	3531.5
762.182	3653.5
762.622	3317.5
763.063	1555.5
763.503	726.5
763.943	532.5
764.384	712.5
764.824	811.5
765.264	835.5
765.705	561.5
766.145	338.5
766.585	282.5
767.025	295.5
767.465	352.5
767.906	567.5
768.346	635.5
768.786	635.5
769.226	449.5
769.666	472.5
770.106	901.5
770.546	1493.5
770.986	1637.5
771.426	1519.5
771.866	865.5
772.306	426.5
772.745	273.5
773.185	231.5
773.625	223.5
774.065	225.5
774.505	255.5
774.944	412.5
775.384	706.5
775.824	782.5
776.263	765.5
776.703	523.5
777.142	299.5
777.582	243.5
778.021	222.5
778.461	213.5
778.9	200.5
779.34	196.5
779.779	177.5
780.219	179.5
780.658	180.5
781.097	165.5
781.537	177.5
781.976	147.5
782.415	176.5
782.855	180.5
783.294	180.5
783.733	164.5
784.172	163.5
784.611	165.5
785.05	167.5
785.489	174.5
785.928	171.5
786.367	179.5
786.806	163.5
787.245	179.5
787.684	179.5
788.123	194.5
788.562	195.5
789.001	180.5
789.44	173.5
789.879	175.5
790.317	200.5
790.756	186.5
791.195	216.5
791.634	226.5
792.072	300.5
792.511	549.5
792.95	1155.5
793.388	1418.5
793.827	1263.5
794.265	751.5
794.704	381.5
795.142	247.5
795.581	213.5
796.019	181.5
796.458	193.5
796.896	189.5
797.334	199.5
797.773	214.5
798.211	305.5
798.649	549.5
799.087	883.5
799.526	1321.5
799.964	1522.5
800.402	1275.5
800.84	747.5
801.278	401.5
801.716	257.5
802.154	227.5
802.592	187.5
803.03	192.5
803.468	197.5
803.906	195.5
804.344	199.5
804.782	177.5
805.22	212.5
805.658	188.5
806.096	182.5
806.533	216.5
806.971	250.5
807.409	301.5
807.847	439.5
808.284	958.5
808.722	1771.5
809.16	2401.5
809.597	3327.5
810.035	4222.5
810.472	3609.5
810.91	1952.5
811.347	999.5
811.785	497.5
812.222	321.5
812.66	260.5
813.097	213.5
813.535	185.5
813.972	174.5
814.409	189.5
814.846	198.5
815.284	153.5
815.721	163.5
816.158	153.5
816.595	191.5
817.032	198.5
817.47	212.5
817.907	181.5
818.344	187.5
818.781	173.5
819.218	161.5
819.655	207.5
820.092	255.5
820.529	267.5
820.966	229.5
821.403	214.5
821.839	180.5
822.276	190.5
822.713	179.5
823.15	194.5
823.587	211.5
824.023	237.5
824.46	463.5
824.897	849.5
825.333	866.5
825.77	531.5
826.206	307.5
826.643	198.5
827.08	167.5
827.516	147.5
827.953	145.5
828.389	156.5
828.825	139.5
829.262	136.5
829.698	135.5
830.135	135.5
830.571	135.5
831.007	152.5
831.443	112.5
831.88	135.5
832.316	134.5
832.752	157.5
833.188	135.5
833.624	148.5
834.06	131.5
834.497	145.5
834.933	141.5
835.369	153.5
835.805	150.5
836.241	167.5
836.677	179.5
837.112	168.5
837.548	175.5
837.984	229.5
838.42	308.5
838.856	683.5
839.292	1381.5
839.727	1493.5
840.163	1008.5
840.599	1193.5
841.034	1741.5
841.47	1346.5
841.906	765.5
842.341	449.5
842.777	345.5
843.212	327.5
843.648	267.5
844.083	210.5
844.519	167.5
844.954	161.5
845.39	147.5
845.825	133.5
846.261	125.5
846.696	138.5
847.131	132.5
847.566	144.5
848.002	119.5
848.437	126.5
848.872	130.5
849.307	130.5
849.742	160.5
850.177	278.5
850.613	575.5
851.048	606.5
851.483	364.5
851.918	257.5
852.353	185.5
852.788	154.5
853.223	144.5
853.657	135.5
854.092	123.5
854.527	132.5
854.962	123.5
855.397	122.5
855.832	128.5
856.266	123.5
856.701	115.5
857.136	118.5
857.57	111.5
858.005	125.5
858.44	133.5
858.874	138.5
859.309	127.5
859.743	147.5
860.178	130.5
860.612	127.5
861.047	121.5
861.481	136.5
861.915	129.5
862.35	121.5
862.784	126.5
863.218	105.5
863.653	118.5
864.087	140.5
864.521	156.5
864.955	165.5
865.39	207.5
865.824	226.5
866.258	189.5
866.692	253.5
867.126	224.5
867.56	173.5
867.994	154.5
868.428	131.5
868.862	127.5
869.296	131.5
869.73	147.5
870.164	132.5
870.598	122.5
871.031	111.5
871.465	115.5
871.899	101.5
872.333	106.5
872.766	106.5
873.2	102.5
873.634	107.5
874.067	111.5
874.501	107.5
874.935	114.5
875.368	125.5
875.802	107.5
876.235	109.5
876.669	120.5
877.102	101.5
877.535	105.5
877.969	96.5
878.402	122.5
878.836	112.5
879.269	105.5
879.702	105.5
880.135	86.5
880.569	106.5
881.002	92.5
881.435	95.5
881.868	106.5
882.301	109.5
882.734	95.5
883.167	113.5
883.601	106.5
884.034	101.5
884.467	115.5
884.899	101.5
885.332	101.5
885.765	110.5
886.198	112.5
886.631	107.5
887.064	105.5
887.497	110.5
887.929	85.5
888.362	106.5
888.795	88.5
889.228	114.5
889.66	102.5
890.093	103.5
890.526	97.5
890.958	105.5
891.391	87.5
891.823	73.5
892.256	99.5
892.688	108.5
893.121	117.5
893.553	102.5
893.985	93.5
894.418	105.5
894.85	101.5
895.282	103.5
895.715	105.5
896.147	97.5
896.579	101.5
897.011	109.5
897.444	89.5
897.876	98.5
898.308	114.5
898.74	114.5
899.172	97.5
899.604	98.5
900.036	108.5
900.468	104.5
900.9	94.5
901.332	102.5
901.764	100.5
902.196	103.5
902.628	101.5
903.06	108.5
903.491	97.5
903.923	126.5
904.355	91.5
904.787	105.5
905.218	113.5
905.65	100.5
906.082	107.5
906.513	92.5
906.945	106.5
907.376	105.5
907.808	112.5
908.239	103.5
908.671	94.5
909.102	117.5
909.534	118.5
909.965	125.5
910.397	178.5
910.828	375.5
911.259	407.5
911.691	272.5
912.122	197.5
912.553	142.5
912.984	107.5
913.415	108.5
913.847	107.5
914.278	96.5
914.709	92.5
915.14	91.5
915.571	110.5
916.002	106.5
916.433	117.5
916.864	114.5
917.295	118.5
917.726	116.5
918.157	100.5
918.587	103.5
919.018	97.5
919.449	101.5
919.88	108.5
920.311	119.5
920.741	129.5
921.172	222.5
921.603	177.5
922.033	155.5
922.464	129.5
922.895	109.5
923.325	119.5
923.756	115.5
924.186	89.5
924.617	110.5
925.047	122.5
925.478	139.5
925.908	103.5
926.338	109.5
926.769	107.5
927.199	97.5
927.629	109.5
928.06	115.5
928.49	89.5
928.92	99.5
929.35	94.5
929.78	109.5
930.21	93.5
930.641	101.5
931.071	84.5
931.501	81.5
931.931	81.5
932.361	105.5
932.791	90.5
933.221	88.5
933.651	93.5
934.08	81.5
934.51	107.5
934.94	107.5
935.37	93.5
935.8	93.5
936.229	102.5
936.659	105.5
937.089	92.5
937.519	87.5
937.948	118.5
938.378	111.5
938.807	112.5
939.237	97.5
939.666	102.5
940.096	85.5
940.525	81.5
940.955	92.5
941.384	99.5
941.814	87.5
942.243	92.5
942.672	91.5
943.102	81.5
943.531	93.5
943.96	86.5
944.39	81.5
944.819	88.5
945.248	59.5
945.677	113.5
946.106	83.5
946.535	96.5
946.964	79.5
947.393	89.5
947.822	95.5
948.251	102.5
948.68	91.5
949.109	69.5
949.538	86.5
949.967	95.5
950.396	104.5
950.825	101.5
951.254	98.5
951.682	109.5
952.111	100.5
952.54	90.5
952.969	100.5
953.397	100.5
953.826	86.5
954.254	98.5
954.683	102.5
955.112	94.5
955.54	85.5
955.969	93.5
956.397	82.5
956.826	88.5
957.254	86.5
957.682	94.5
958.111	91.5
958.539	90.5
958.967	91.5
959.396	80.5
959.824	87.5
960.252	111.5
960.68	78.5
961.109	87.5
961.537	99.5
961.965	82.5
962.393	107.5
962.821	96.5
963.249	79.5
963.677	91.5
964.105	94.5
964.533	120.5
964.961	107.5
965.389	117.5
965.817	112.5
966.245	81.5
966.672	90.5
967.1	84.5
967.528	86.5
967.956	91.5
968.383	96.5
968.811	84.5
969.239	80.5
969.666	84.5
970.094	96.5
970.522	104.5
970.949	75.5
971.377	103.5
971.804	101.5
972.232	101.5
972.659	89.5
973.087	71.5
973.514	95.5
973.941	88.5
974.369	82.5
974.796	98.5
975.223	94.5
975.651	107.5
976.078	102.5
976.505	86.5
976.932	90.5
977.359	93.5
977.786	70.5
978.214	93.5
978.641	85.5
979.068	81.5
979.495	94.5
979.922	96.5
980.349	101.5
980.776	101.5
981.202	90.5
981.629	85.5
982.056	97.5
982.483	79.5
982.91	102.5
983.337	91.5
983.763	81.5
984.19	107.5
984.617	85.5
985.043	88.5
985.47	112.5
985.897	98.5
986.323	101.5
986.75	101.5
987.176	68.5
987.603	91.5
988.029	91.5
988.456	73.5
988.882	87.5
989.308	79.5
989.735	73.5
990.161	84.5
990.587	90.5
991.014	80.5
991.44	83.5
991.866	95.5
992.292	83.5
992.719	87.5
993.145	94.5
993.571	109.5
993.997	77.5
994.423	68.5
994.849	84.5
995.275	70.5
995.701	95.5
996.127	69.5
996.553	99.5
996.979	88.5
997.405	77.5
997.83	92.5
998.256	92.5
998.682	85.5
999.108	92.5
999.534	89.5
999.959	73.5
1000.385	85.5
1000.811	84.5
1001.236	85.5
1001.662	75.5
1002.087	84.5
1002.513	93.5
1002.938	98.5
1003.364	86.5
1003.789	98.5
1004.215	88.5
1004.64	85.5
1005.066	79.5
1005.491	89.5
1005.916	79.5
1006.342	87.5
1006.767	65.5
1007.192	91.5
1007.617	91.5
1008.042	93.5
1008.468	101.5
1008.893	80.5
1009.318	93.5
1009.743	84.5
1010.168	91.5
1010.593	102.5
1011.018	97.5
1011.443	91.5
1011.868	90.5
1012.293	82.5
1012.718	83.5
1013.143	75.5
1013.567	84.5
1013.992	80.5
1014.417	87.5
1014.842	83.5
1015.267	83.5
1015.691	91.5
1016.116	86.5
1016.541	89.5
1016.965	83.5
1017.39	85.5
1017.814	88.5
1018.239	84.5
1018.663	89.5
1019.088	92.5
1019.512	86.5
1019.937	98.5
1020.361	105.5
1020.785	92.5
1021.21	86.5
1021.634	94.5
1022.058	73.5
1022.483	86.5
1022.907	73.5
1023.331	77.5
1023.755	84.5
1024.179	89.5
1024.604	83.5
1025.028	77.5
1025.452	76.5
1025.876	96.5
1026.3	73.5
1026.724	87.5
1027.148	70.5
1027.572	90.5
1027.996	85.5
1028.42	88.5
1028.843	82.5
1029.267	66.5
1029.691	83.5
1030.115	83.5
1030.539	95.5
1030.962	87.5
1031.386	83.5
1031.81	83.5
1032.233	93.5
1032.657	94.5
1033.08	75.5
1033.504	89.5
1033.927	90.5
1034.351	90.5
1034.774	92.5
1035.198	79.5
1035.621	92.5
1036.045	84.5
1036.468	83.5
1036.891	82.5
1037.315	93.5
1037.738	94.5
1038.161	89.5
1038.584	81.5
1039.008	83.5
1039.431	87.5
1039.854	75.5
1040.277	95.5
1040.7	87.5
1041.123	100.5
1041.546	84.5
1041.969	75.5
1042.392	98.5
1042.815	76.5
1043.238	89.5
1043.661	74.5
1044.084	81.5
1044.507	82.5
1044.93	74.5
1045.352	87.5
1045.775	71.5
1046.198	79.5
1046.621	81.5
1047.043	76.5
1047.466	95.5
1047.889	84.5
1048.311	90.5
1048.734	92.5
1049.156	80.5
1049.579	84.5
1050.001	93.5
1050.424	73.5
1050.846	86.5
1051.269	70.5
1051.691	91.5
1052.113	72.5
1052.536	76.5
1052.958	90.5
1053.38	58.5
1053.802	91.5
1054.225	91.5
1054.647	92.5
1055.069	69.5
1055.491	58.5
1055.913	92.5
1056.335	82.5
1056.757	97.5
1057.179	80.5
1057.601	89.5
1058.023	77.5
1058.445	81.5
1058.867	87.5
1059.289	104.5
1059.711	74.5
1060.133	86.5
1060.555	75.5
1060.976	91.5
1061.398	78.5
1061.82	88.5
1062.241	87.5
1062.663	90.5
1063.085	78.5
1063.506	79.5
1063.928	86.5
1064.35	80.5
1064.771	79.5
1065.193	77.5
1065.614	84.5
1066.035	108.5
1066.457	100.5
1066.878	79.5
1067.3	84.5
1067.721	80.5
1068.142	70.5
1068.564	91.5
1068.985	86.5
1069.406	93.5
1069.827	79.5
1070.248	81.5
1070.67	89.5
1071.091	84.5
1071.512	82.5
1071.933	72.5
1072.354	91.5
1072.775	80.5
1073.196	86.5
1073.617	82.5
1074.038	79.5
1074.459	77.5
1074.88	100.5
1075.3	96.5
1075.721	89.5
1076.142	75.5
1076.563	69.5
1076.983	74.5
1077.404	76.5
1077.825	91.5
1078.246	93.5
1078.666	99.5
1079.087	91.5
1079.507	75.5
1079.928	80.5
1080.348	82.5
1080.769	79.5
1081.189	101.5
1081.61	76.5
1082.03	89.5
1082.451	72.5
1082.871	92.5
1083.291	84.5
1083.711	89.5
1084.132	91.5
1084.552	72.5
1084.972	105.5
1085.392	84.5
1085.813	87.5
1086.233	68.5
1086.653	93.5
1087.073	66.5
1087.493	65.5
1087.913	90.5
1088.333	67.5
1088.753	91.5
1089.173	85.5
1089.593	85.5
1090.013	71.5
1090.433	81.5
1090.852	88.5
1091.272	81.5
1091.692	98.5
1092.112	86.5
1092.531	78.5
1092.951	91.5
1093.371	81.5
1093.79	72.5
1094.21	90.5
1094.63	85.5
1095.049	100.5
1095.469	87.5
1095.888	73.5
1096.308	85.5
1096.727	81.5
1097.146	80.5
1097.566	94.5
1097.985	80.5
1098.405	87.5
1098.824	86.5
1099.243	98.5
1099.662	88.5
1100.082	93.5
1100.501	72.5
1100.92	86.5
1101.339	78.5
1101.758	84.5
