Data from 20170802-ORNL-NYSim-Air_HRD10391_10-37-59-652.txt Node
Date: Wed Aug 02 10:37:59 EDT 2017
User: Ender
Spectrometer: HR+D1039
Trigger mode: 0
Integration Time (sec): 1.100000E-3
Scans to average: 1
Electric dark correction enabled: true
Nonlinearity correction enabled: false
Boxcar width: 0
XAxis mode: Wavelengths
Number of Pixels in Spectrum: 2048
>>>>>Begin Spectral Data<<<<<
187.836	2.88
188.309	2.88
188.782	2.88
189.255	0.88
189.728	1.88
190.201	-18.12
190.674	9.88
191.147	-3.12
191.619	-10.12
192.092	-7.12
192.565	-10.12
193.038	-1.12
193.511	9.88
193.984	-2.12
194.456	3.88
194.929	-5.12
195.402	10.88
195.874	16.88
196.347	21.88
196.82	37.88
197.292	18.88
197.765	31.88
198.237	35.88
198.71	40.88
199.182	34.88
199.655	29.88
200.127	39.88
200.6	58.88
201.072	58.88
201.544	60.88
202.017	48.88
202.489	73.88
202.961	61.88
203.433	74.88
203.906	73.88
204.378	79.88
204.85	69.88
205.322	90.88
205.794	74.88
206.266	85.88
206.739	92.88
207.211	89.88
207.683	77.88
208.155	87.88
208.627	86.88
209.099	78.88
209.57	92.88
210.042	65.88
210.514	53.88
210.986	80.88
211.458	87.88
211.93	90.88
212.402	95.88
212.873	102.88
213.345	86.88
213.817	92.88
214.288	83.88
214.76	75.88
215.232	67.88
215.703	74.88
216.175	79.88
216.646	73.88
217.118	78.88
217.589	67.88
218.061	60.88
218.532	77.88
219.004	78.88
219.475	71.88
219.946	80.88
220.418	85.88
220.889	78.88
221.36	91.88
221.832	69.88
222.303	95.88
222.774	82.88
223.245	74.88
223.717	90.88
224.188	47.88
224.659	89.88
225.13	66.88
225.601	77.88
226.072	60.88
226.543	80.88
227.014	79.88
227.485	78.88
227.956	60.88
228.427	84.88
228.898	78.88
229.369	62.88
229.839	71.88
230.31	73.88
230.781	74.88
231.252	82.88
231.722	71.88
232.193	85.88
232.664	93.88
233.135	98.88
233.605	99.88
234.076	71.88
234.546	74.88
235.017	90.88
235.487	90.88
235.958	79.88
236.428	88.88
236.899	95.88
237.369	82.88
237.84	103.88
238.31	92.88
238.78	109.88
239.251	111.88
239.721	105.88
240.191	91.88
240.662	79.88
241.132	95.88
241.602	75.88
242.072	85.88
242.542	89.88
243.013	107.88
243.483	102.88
243.953	98.88
244.423	100.88
244.893	77.88
245.363	101.88
245.833	111.88
246.303	104.88
246.773	93.88
247.243	90.88
247.712	112.88
248.182	112.88
248.652	104.88
249.122	114.88
249.592	144.88
250.061	170.88
250.531	227.88
251.001	197.88
251.471	189.88
251.94	154.88
252.41	119.88
252.879	120.88
253.349	99.88
253.818	107.88
254.288	84.88
254.757	93.88
255.227	101.88
255.696	109.88
256.166	108.88
256.635	97.88
257.105	99.88
257.574	91.88
258.043	95.88
258.513	136.88
258.982	141.88
259.451	118.88
259.92	119.88
260.389	117.88
260.859	99.88
261.328	119.88
261.797	128.88
262.266	124.88
262.735	89.88
263.204	98.88
263.673	98.88
264.142	94.88
264.611	84.88
265.08	81.88
265.549	105.88
266.018	87.88
266.487	96.88
266.955	94.88
267.424	92.88
267.893	94.88
268.362	100.88
268.83	98.88
269.299	98.88
269.768	96.88
270.236	100.88
270.705	112.88
271.174	112.88
271.642	133.88
272.111	99.88
272.579	113.88
273.048	144.88
273.516	184.88
273.985	159.88
274.453	132.88
274.922	131.88
275.39	117.88
275.858	91.88
276.327	87.88
276.795	103.88
277.263	99.88
277.731	98.88
278.2	133.88
278.668	146.88
279.136	127.88
279.604	104.88
280.072	98.88
280.54	110.88
281.008	121.88
281.477	97.88
281.945	104.88
282.413	100.88
282.881	103.88
283.348	91.88
283.816	111.88
284.284	91.88
284.752	107.88
285.22	88.88
285.688	99.88
286.156	121.88
286.623	204.88
287.091	336.88
287.559	217.88
288.026	141.88
288.494	111.88
288.962	99.88
289.429	105.88
289.897	91.88
290.364	99.88
290.832	100.88
291.3	106.88
291.767	102.88
292.234	96.88
292.702	101.88
293.169	113.88
293.637	101.88
294.104	120.88
294.571	115.88
295.039	110.88
295.506	121.88
295.973	107.88
296.44	105.88
296.908	107.88
297.375	103.88
297.842	123.88
298.309	112.88
298.776	116.88
299.243	122.88
299.71	107.88
300.177	120.88
300.644	109.88
301.111	111.88
301.578	108.88
302.045	127.88
302.512	105.88
302.979	129.88
303.446	112.88
303.913	117.88
304.379	109.88
304.846	125.88
305.313	133.88
305.78	123.88
306.246	149.88
306.713	142.88
307.18	142.88
307.646	136.88
308.113	143.88
308.579	128.88
309.046	114.88
309.512	138.88
309.979	109.88
310.445	123.88
310.912	117.88
311.378	120.88
311.845	127.88
312.311	120.88
312.777	134.88
313.244	117.88
313.71	117.88
314.176	129.88
314.642	123.88
315.109	133.88
315.575	133.88
316.041	137.88
316.507	146.88
316.973	151.88
317.439	130.88
317.905	140.88
318.371	131.88
318.837	130.88
319.303	146.88
319.769	135.88
320.235	146.88
320.701	162.88
321.167	161.88
321.633	171.88
322.099	225.88
322.564	262.88
323.03	223.88
323.496	176.88
323.962	172.88
324.427	157.88
324.893	151.88
325.359	138.88
325.824	140.88
326.29	132.88
326.755	144.88
327.221	140.88
327.686	143.88
328.152	138.88
328.617	143.88
329.083	137.88
329.548	148.88
330.014	145.88
330.479	152.88
330.944	160.88
331.41	161.88
331.875	177.88
332.34	168.88
332.805	177.88
333.271	219.88
333.736	261.88
334.201	267.88
334.666	213.88
335.131	208.88
335.596	185.88
336.061	189.88
336.526	204.88
336.991	199.88
337.456	200.88
337.921	184.88
338.386	151.88
338.851	156.88
339.316	138.88
339.781	145.88
340.246	143.88
340.711	127.88
341.175	160.88
341.64	156.88
342.105	157.88
342.569	136.88
343.034	145.88
343.499	144.88
343.963	154.88
344.428	151.88
344.893	164.88
345.357	135.88
345.822	163.88
346.286	170.88
346.751	163.88
347.215	144.88
347.679	148.88
348.144	168.88
348.608	163.88
349.073	167.88
349.537	174.88
350.001	191.88
350.465	173.88
350.93	163.88
351.394	181.88
351.858	168.88
352.322	174.88
352.786	167.88
353.25	182.88
353.715	184.88
354.179	176.88
354.643	191.88
355.107	202.88
355.571	204.88
356.035	201.88
356.498	192.88
356.962	209.88
357.426	210.88
357.89	181.88
358.354	184.88
358.818	185.88
359.281	177.88
359.745	200.88
360.209	185.88
360.673	195.88
361.136	186.88
361.6	193.88
362.064	182.88
362.527	215.88
362.991	190.88
363.454	183.88
363.918	194.88
364.381	194.88
364.845	202.88
365.308	200.88
365.772	175.88
366.235	215.88
366.698	207.88
367.162	242.88
367.625	228.88
368.088	202.88
368.552	176.88
369.015	198.88
369.478	207.88
369.941	228.88
370.404	211.88
370.867	223.88
371.331	229.88
371.794	217.88
372.257	268.88
372.72	267.88
373.183	254.88
373.646	277.88
374.109	236.88
374.572	262.88
375.035	317.88
375.497	251.88
375.96	199.88
376.423	224.88
376.886	221.88
377.349	209.88
377.811	221.88
378.274	208.88
378.737	233.88
379.199	235.88
379.662	231.88
380.125	263.88
380.587	268.88
381.05	263.88
381.512	276.88
381.975	266.88
382.437	273.88
382.9	267.88
383.362	254.88
383.825	277.88
384.287	319.88
384.75	336.88
385.212	318.88
385.674	284.88
386.136	257.88
386.599	254.88
387.061	271.88
387.523	273.88
387.985	291.88
388.447	291.88
388.91	310.88
389.372	386.88
389.834	348.88
390.296	308.88
390.758	305.88
391.22	309.88
391.682	343.88
392.144	522.88
392.606	479.88
393.068	324.88
393.529	311.88
393.991	318.88
394.453	311.88
394.915	317.88
395.377	336.88
395.838	416.88
396.3	336.88
396.762	269.88
397.224	259.88
397.685	259.88
398.147	263.88
398.608	254.88
399.07	263.88
399.531	235.88
399.993	243.88
400.454	256.88
400.916	281.88
401.377	264.88
401.839	251.88
402.3	264.88
402.762	279.88
403.223	320.88
403.684	299.88
404.145	295.88
404.607	283.88
405.068	304.88
405.529	299.88
405.99	291.88
406.451	296.88
406.913	286.88
407.374	294.88
407.835	272.88
408.296	278.88
408.757	299.88
409.218	316.88
409.679	298.88
410.14	311.88
410.601	303.88
411.062	309.88
411.522	335.88
411.983	367.88
412.444	357.88
412.905	318.88
413.366	299.88
413.826	307.88
414.287	343.88
414.748	401.88
415.208	407.88
415.669	353.88
416.13	326.88
416.59	310.88
417.051	330.88
417.511	327.88
417.972	357.88
418.432	384.88
418.893	416.88
419.353	379.88
419.814	328.88
420.274	300.88
420.734	316.88
421.195	326.88
421.655	345.88
422.115	331.88
422.576	302.88
423.036	314.88
423.496	352.88
423.956	334.88
424.416	359.88
424.876	387.88
425.336	383.88
425.797	385.88
426.257	386.88
426.717	353.88
427.177	379.88
427.637	369.88
428.097	377.88
428.556	388.88
429.016	421.88
429.476	427.88
429.936	424.88
430.396	413.88
430.856	392.88
431.315	416.88
431.775	473.88
432.235	500.88
432.694	497.88
433.154	463.88
433.614	439.88
434.073	431.88
434.533	405.88
434.993	379.88
435.452	393.88
435.912	382.88
436.371	375.88
436.83	377.88
437.29	383.88
437.749	370.88
438.209	359.88
438.668	367.88
439.127	346.88
439.587	344.88
440.046	346.88
440.505	363.88
440.964	363.88
441.424	361.88
441.883	381.88
442.342	373.88
442.801	336.88
443.26	357.88
443.719	348.88
444.178	344.88
444.637	343.88
445.096	333.88
445.555	363.88
446.014	349.88
446.473	324.88
446.932	307.88
447.391	364.88
447.849	362.88
448.308	342.88
448.767	357.88
449.226	360.88
449.685	353.88
450.143	395.88
450.602	367.88
451.061	353.88
451.519	379.88
451.978	379.88
452.436	390.88
452.895	376.88
453.353	367.88
453.812	365.88
454.27	362.88
454.729	343.88
455.187	355.88
455.646	346.88
456.104	351.88
456.562	339.88
457.021	368.88
457.479	339.88
457.937	347.88
458.395	350.88
458.854	367.88
459.312	361.88
459.77	349.88
460.228	350.88
460.686	348.88
461.144	352.88
461.602	353.88
462.06	351.88
462.518	338.88
462.976	360.88
463.434	369.88
463.892	369.88
464.35	349.88
464.808	381.88
465.266	375.88
465.724	385.88
466.181	394.88
466.639	410.88
467.097	401.88
467.555	396.88
468.012	395.88
468.47	407.88
468.928	417.88
469.385	429.88
469.843	428.88
470.3	424.88
470.758	456.88
471.215	448.88
471.673	481.88
472.13	456.88
472.588	487.88
473.045	487.88
473.503	479.88
473.96	495.88
474.417	528.88
474.875	547.88
475.332	517.88
475.789	560.88
476.246	564.88
476.704	573.88
477.161	597.88
477.618	639.88
478.075	671.88
478.532	728.88
478.989	791.88
479.446	807.88
479.903	885.88
480.36	973.88
480.817	1089.88
481.274	1086.88
481.731	1240.88
482.188	1352.88
482.645	1437.88
483.102	1559.88
483.558	1669.88
484.015	1791.88
484.472	1851.88
484.929	1747.88
485.385	1648.88
485.842	1616.88
486.299	1495.88
486.755	1369.88
487.212	1250.88
487.668	1114.88
488.125	1005.88
488.582	899.88
489.038	877.88
489.494	860.88
489.951	842.88
490.407	763.88
490.864	765.88
491.32	776.88
491.776	729.88
492.233	729.88
492.689	734.88
493.145	697.88
493.602	724.88
494.058	728.88
494.514	738.88
494.97	774.88
495.426	748.88
495.882	799.88
496.338	741.88
496.794	780.88
497.251	784.88
497.707	816.88
498.163	776.88
498.618	794.88
499.074	789.88
499.53	824.88
499.986	815.88
500.442	850.88
500.898	832.88
501.354	836.88
501.809	832.88
502.265	859.88
502.721	885.88
503.177	879.88
503.632	839.88
504.088	867.88
504.543	937.88
504.999	890.88
505.455	788.88
505.91	728.88
506.366	730.88
506.821	750.88
507.277	737.88
507.732	743.88
508.187	737.88
508.643	746.88
509.098	724.88
509.553	740.88
510.009	735.88
510.464	768.88
510.919	758.88
511.375	807.88
511.83	793.88
512.285	790.88
512.74	804.88
513.195	834.88
513.65	868.88
514.105	853.88
514.56	875.88
515.015	864.88
515.47	893.88
515.925	887.88
516.38	908.88
516.835	866.88
517.29	854.88
517.745	913.88
518.2	869.88
518.655	893.88
519.109	836.88
519.564	818.88
520.019	839.88
520.474	817.88
520.928	833.88
521.383	843.88
521.838	809.88
522.292	817.88
522.747	805.88
523.201	797.88
523.656	779.88
524.11	791.88
524.565	795.88
525.019	807.88
525.474	818.88
525.928	797.88
526.382	780.88
526.837	758.88
527.291	749.88
527.745	776.88
528.2	759.88
528.654	743.88
529.108	766.88
529.562	795.88
530.016	810.88
530.47	749.88
530.925	801.88
531.379	791.88
531.833	808.88
532.287	773.88
532.741	775.88
533.195	781.88
533.649	784.88
534.103	779.88
534.556	756.88
535.01	794.88
535.464	764.88
535.918	755.88
536.372	788.88
536.826	794.88
537.279	746.88
537.733	771.88
538.187	778.88
538.64	798.88
539.094	799.88
539.548	803.88
540.001	811.88
540.455	822.88
540.908	796.88
541.362	805.88
541.815	817.88
542.269	848.88
542.722	850.88
543.175	838.88
543.629	885.88
544.082	836.88
544.536	860.88
544.989	861.88
545.442	847.88
545.895	854.88
546.349	849.88
546.802	873.88
547.255	849.88
547.708	861.88
548.161	889.88
548.614	866.88
549.067	872.88
549.52	869.88
549.973	882.88
550.426	871.88
550.879	869.88
551.332	825.88
551.785	856.88
552.238	881.88
552.691	865.88
553.144	903.88
553.596	884.88
554.049	898.88
554.502	919.88
554.955	938.88
555.407	917.88
555.86	944.88
556.313	957.88
556.765	923.88
557.218	919.88
557.67	916.88
558.123	924.88
558.576	900.88
559.028	922.88
559.48	881.88
559.933	892.88
560.385	863.88
560.838	860.88
561.29	842.88
561.742	842.88
562.195	820.88
562.647	784.88
563.099	832.88
563.551	823.88
564.004	793.88
564.456	854.88
564.908	791.88
565.36	793.88
565.812	801.88
566.264	787.88
566.716	772.88
567.168	752.88
567.62	752.88
568.072	730.88
568.524	740.88
568.976	759.88
569.428	697.88
569.88	719.88
570.332	730.88
570.784	711.88
571.235	723.88
571.687	744.88
572.139	721.88
572.59	746.88
573.042	722.88
573.494	725.88
573.945	731.88
574.397	727.88
574.849	721.88
575.3	707.88
575.752	707.88
576.203	713.88
576.655	721.88
577.106	697.88
577.557	717.88
578.009	696.88
578.46	690.88
578.912	705.88
579.363	679.88
579.814	705.88
580.265	688.88
580.717	681.88
581.168	696.88
581.619	680.88
582.07	716.88
582.521	726.88
582.972	708.88
583.423	731.88
583.875	737.88
584.326	791.88
584.777	852.88
585.227	1031.88
585.678	1097.88
586.129	1177.88
586.58	1285.88
587.031	1319.88
587.482	1374.88
587.933	1804.88
588.384	1617.88
588.834	1279.88
589.285	887.88
589.736	787.88
590.186	821.88
590.637	803.88
591.088	788.88
591.538	800.88
591.989	751.88
592.439	766.88
592.89	773.88
593.34	778.88
593.791	737.88
594.241	755.88
594.692	757.88
595.142	756.88
595.593	723.88
596.043	764.88
596.493	748.88
596.943	766.88
597.394	805.88
597.844	761.88
598.294	762.88
598.744	789.88
599.195	782.88
599.645	811.88
600.095	852.88
600.545	867.88
600.995	963.88
601.445	993.88
601.895	1037.88
602.345	1058.88
602.795	1017.88
603.245	1021.88
603.695	961.88
604.145	928.88
604.594	902.88
605.044	846.88
605.494	798.88
605.944	728.88
606.393	749.88
606.843	747.88
607.293	751.88
607.743	698.88
608.192	744.88
608.642	720.88
609.091	751.88
609.541	764.88
609.99	731.88
610.44	717.88
610.889	728.88
611.339	709.88
611.788	694.88
612.238	719.88
612.687	718.88
613.136	717.88
613.586	751.88
614.035	748.88
614.484	781.88
614.933	787.88
615.383	767.88
615.832	756.88
616.281	715.88
616.73	711.88
617.179	702.88
617.628	663.88
618.077	656.88
618.526	644.88
618.975	618.88
619.424	648.88
619.873	670.88
620.322	612.88
620.771	625.88
621.22	628.88
621.669	611.88
622.118	590.88
622.567	611.88
623.015	591.88
623.464	601.88
623.913	590.88
624.361	599.88
624.81	590.88
625.259	567.88
625.707	562.88
626.156	569.88
626.604	580.88
627.053	599.88
627.501	583.88
627.95	602.88
628.398	607.88
628.847	584.88
629.295	598.88
629.744	601.88
630.192	600.88
630.64	648.88
631.089	670.88
631.537	749.88
631.985	721.88
632.433	753.88
632.881	785.88
633.33	866.88
633.778	1042.88
634.226	761.88
634.674	665.88
635.122	675.88
635.57	672.88
636.018	761.88
636.466	661.88
636.914	575.88
637.362	571.88
637.81	585.88
638.258	609.88
638.705	588.88
639.153	598.88
639.601	625.88
640.049	621.88
640.497	632.88
640.944	637.88
641.392	664.88
641.84	612.88
642.287	586.88
642.735	542.88
643.182	582.88
643.63	573.88
644.078	564.88
644.525	599.88
644.973	605.88
645.42	609.88
645.867	663.88
646.315	622.88
646.762	637.88
647.21	650.88
647.657	715.88
648.104	729.88
648.551	772.88
648.999	838.88
649.446	877.88
649.893	1027.88
650.34	1180.88
650.787	1407.88
651.234	1794.88
651.682	2437.88
652.129	3423.88
652.576	4936.88
653.023	7001.88
653.47	8668.88
653.917	9616.88
654.363	10117.88
654.81	10755.88
655.257	11465.88
655.704	8494.88
656.151	5051.88
656.598	3111.88
657.044	2175.88
657.491	1681.88
657.938	1322.88
658.385	1143.88
658.831	975.88
659.278	873.88
659.724	791.88
660.171	750.88
660.618	693.88
661.064	666.88
661.511	598.88
661.957	611.88
662.404	592.88
662.85	552.88
663.296	567.88
663.743	557.88
664.189	539.88
664.635	513.88
665.082	527.88
665.528	510.88
665.974	537.88
666.42	536.88
666.867	534.88
667.313	569.88
667.759	572.88
668.205	615.88
668.651	636.88
669.097	643.88
669.543	679.88
669.989	664.88
670.435	550.88
670.881	478.88
671.327	475.88
671.773	495.88
672.219	538.88
672.665	578.88
673.11	598.88
673.556	604.88
674.002	613.88
674.448	635.88
674.893	539.88
675.339	496.88
675.785	486.88
676.23	434.88
676.676	440.88
677.122	411.88
677.567	397.88
678.013	386.88
678.458	405.88
678.904	400.88
679.349	390.88
679.794	382.88
680.24	404.88
680.685	357.88
681.131	373.88
681.576	383.88
682.021	387.88
682.466	370.88
682.912	359.88
683.357	394.88
683.802	430.88
684.247	425.88
684.692	481.88
685.137	501.88
685.583	518.88
686.028	503.88
686.473	506.88
686.918	469.88
687.363	404.88
687.807	420.88
688.252	377.88
688.697	351.88
689.142	351.88
689.587	358.88
690.032	354.88
690.477	385.88
690.921	380.88
691.366	410.88
691.811	447.88
692.255	450.88
692.7	474.88
693.145	623.88
693.589	883.88
694.034	1139.88
694.478	1281.88
694.923	1188.88
695.367	1402.88
695.812	1270.88
696.256	601.88
696.701	419.88
697.145	365.88
697.59	357.88
698.034	358.88
698.478	351.88
698.922	359.88
699.367	357.88
699.811	377.88
700.255	401.88
700.699	415.88
701.143	451.88
701.588	463.88
702.032	505.88
702.476	493.88
702.92	503.88
703.364	581.88
703.808	790.88
704.252	1113.88
704.696	1209.88
705.14	1133.88
705.584	1425.88
706.027	1164.88
706.471	594.88
706.915	411.88
707.359	391.88
707.803	349.88
708.246	359.88
708.69	346.88
709.134	365.88
709.577	349.88
710.021	337.88
710.465	341.88
710.908	341.88
711.352	341.88
711.795	369.88
712.239	369.88
712.682	412.88
713.126	417.88
713.569	448.88
714.012	441.88
714.456	358.88
714.899	337.88
715.342	319.88
715.786	310.88
716.229	310.88
716.672	306.88
717.115	299.88
717.558	307.88
718.002	327.88
718.445	321.88
718.888	326.88
719.331	351.88
719.774	329.88
720.217	333.88
720.66	311.88
721.103	299.88
721.546	275.88
721.989	284.88
722.432	295.88
722.874	272.88
723.317	304.88
723.76	294.88
724.203	327.88
724.645	409.88
725.088	503.88
725.531	489.88
725.974	478.88
726.416	531.88
726.859	371.88
727.301	296.88
727.744	301.88
728.187	274.88
728.629	292.88
729.071	279.88
729.514	326.88
729.956	319.88
730.399	333.88
730.841	331.88
731.283	313.88
731.726	300.88
732.168	294.88
732.61	302.88
733.053	334.88
733.495	348.88
733.937	365.88
734.379	449.88
734.821	483.88
735.263	639.88
735.705	1087.88
736.148	1676.88
736.59	1981.88
737.032	1795.88
737.474	1972.88
737.916	969.88
738.357	512.88
738.799	372.88
739.241	352.88
739.683	322.88
740.125	321.88
740.567	353.88
741.008	337.88
741.45	331.88
741.892	387.88
742.334	353.88
742.775	373.88
743.217	375.88
743.658	315.88
744.1	314.88
744.542	342.88
744.983	356.88
745.425	359.88
745.866	349.88
746.307	321.88
746.749	339.88
747.19	396.88
747.632	637.88
748.073	1161.88
748.514	1748.88
748.956	2169.88
749.397	2905.88
749.838	2318.88
750.279	1915.88
750.72	1443.88
751.162	687.88
751.603	389.88
752.044	310.88
752.485	261.88
752.926	271.88
753.367	263.88
753.808	216.88
754.249	224.88
754.69	243.88
755.131	277.88
755.572	247.88
756.013	252.88
756.453	229.88
756.894	239.88
757.335	233.88
757.776	241.88
758.216	262.88
758.657	257.88
759.098	285.88
759.538	297.88
759.979	364.88
760.42	551.88
760.86	1149.88
761.301	2535.88
761.741	3848.88
762.182	3952.88
762.622	3595.88
763.063	1717.88
763.503	840.88
763.943	765.88
764.384	1241.88
764.824	1521.88
765.264	1519.88
765.705	930.88
766.145	479.88
766.585	347.88
767.025	367.88
767.465	580.88
767.906	997.88
768.346	1109.88
768.786	1123.88
769.226	643.88
769.666	589.88
770.106	993.88
770.546	1559.88
770.986	1668.88
771.426	1640.88
771.866	940.88
772.306	445.88
772.745	287.88
773.185	247.88
773.625	246.88
774.065	273.88
774.505	317.88
774.944	581.88
775.384	895.88
775.824	1083.88
776.263	1054.88
776.703	688.88
777.142	387.88
777.582	262.88
778.021	278.88
778.461	269.88
778.9	270.88
779.34	223.88
779.779	210.88
780.219	181.88
780.658	167.88
781.097	183.88
781.537	185.88
781.976	171.88
782.415	158.88
782.855	175.88
783.294	182.88
783.733	187.88
784.172	173.88
784.611	177.88
785.05	183.88
785.489	176.88
785.928	180.88
786.367	175.88
786.806	181.88
787.245	193.88
787.684	197.88
788.123	209.88
788.562	198.88
789.001	193.88
789.44	169.88
789.879	181.88
790.317	192.88
790.756	200.88
791.195	197.88
791.634	194.88
792.072	306.88
792.511	606.88
792.95	1244.88
793.388	1519.88
793.827	1316.88
794.265	805.88
794.704	414.88
795.142	239.88
795.581	216.88
796.019	196.88
796.458	219.88
796.896	196.88
797.334	215.88
797.773	230.88
798.211	340.88
798.649	622.88
799.087	974.88
799.526	1473.88
799.964	1641.88
800.402	1356.88
800.84	801.88
801.278	435.88
801.716	263.88
802.154	237.88
802.592	187.88
803.03	221.88
803.468	221.88
803.906	200.88
804.344	201.88
804.782	207.88
805.22	225.88
805.658	205.88
806.096	219.88
806.533	223.88
806.971	243.88
807.409	279.88
807.847	440.88
808.284	971.88
808.722	1880.88
809.16	2649.88
809.597	3567.88
810.035	4537.88
810.472	3879.88
810.91	2124.88
811.347	1057.88
811.785	538.88
812.222	322.88
812.66	247.88
813.097	223.88
813.535	214.88
813.972	209.88
814.409	183.88
814.846	180.88
815.284	169.88
815.721	178.88
816.158	189.88
816.595	187.88
817.032	215.88
817.47	232.88
817.907	204.88
818.344	180.88
818.781	174.88
819.218	221.88
819.655	222.88
820.092	260.88
820.529	263.88
820.966	242.88
821.403	222.88
821.839	181.88
822.276	183.88
822.713	197.88
823.15	186.88
823.587	193.88
824.023	274.88
824.46	481.88
824.897	867.88
825.333	912.88
825.77	566.88
826.206	324.88
826.643	230.88
827.08	184.88
827.516	163.88
827.953	155.88
828.389	153.88
828.825	137.88
829.262	150.88
829.698	145.88
830.135	146.88
830.571	130.88
831.007	149.88
831.443	149.88
831.88	130.88
832.316	135.88
832.752	136.88
833.188	153.88
833.624	127.88
834.06	151.88
834.497	140.88
834.933	149.88
835.369	145.88
835.805	137.88
836.241	158.88
836.677	152.88
837.112	176.88
837.548	173.88
837.984	212.88
838.42	323.88
838.856	725.88
839.292	1455.88
839.727	1583.88
840.163	1101.88
840.599	1273.88
841.034	1860.88
841.47	1446.88
841.906	840.88
842.341	493.88
842.777	357.88
843.212	386.88
843.648	330.88
844.083	236.88
844.519	187.88
844.954	165.88
845.39	145.88
845.825	124.88
846.261	125.88
846.696	124.88
847.131	147.88
847.566	123.88
848.002	136.88
848.437	132.88
848.872	135.88
849.307	141.88
849.742	161.88
850.177	314.88
850.613	609.88
851.048	628.88
851.483	370.88
851.918	270.88
852.353	207.88
852.788	152.88
853.223	134.88
853.657	127.88
854.092	123.88
854.527	129.88
854.962	134.88
855.397	132.88
855.832	129.88
856.266	109.88
856.701	113.88
857.136	144.88
857.57	119.88
858.005	137.88
858.44	130.88
858.874	126.88
859.309	120.88
859.743	117.88
860.178	111.88
860.612	125.88
861.047	103.88
861.481	125.88
861.915	139.88
862.35	140.88
862.784	108.88
863.218	115.88
863.653	102.88
864.087	126.88
864.521	137.88
864.955	175.88
865.39	205.88
865.824	210.88
866.258	220.88
866.692	245.88
867.126	250.88
867.56	179.88
867.994	145.88
868.428	127.88
868.862	128.88
869.296	131.88
869.73	123.88
870.164	150.88
870.598	137.88
871.031	120.88
871.465	118.88
871.899	94.88
872.333	104.88
872.766	108.88
873.2	103.88
873.634	107.88
874.067	100.88
874.501	110.88
874.935	114.88
875.368	111.88
875.802	111.88
876.235	95.88
876.669	103.88
877.102	120.88
877.535	99.88
877.969	99.88
878.402	89.88
878.836	105.88
879.269	120.88
879.702	102.88
880.135	111.88
880.569	100.88
881.002	105.88
881.435	104.88
881.868	103.88
882.301	104.88
882.734	109.88
883.167	92.88
883.601	87.88
884.034	101.88
884.467	97.88
884.899	94.88
885.332	101.88
885.765	99.88
886.198	92.88
886.631	124.88
887.064	101.88
887.497	95.88
887.929	109.88
888.362	86.88
888.795	85.88
889.228	83.88
889.66	100.88
890.093	100.88
890.526	100.88
890.958	98.88
891.391	98.88
891.823	80.88
892.256	87.88
892.688	93.88
893.121	107.88
893.553	110.88
893.985	93.88
894.418	79.88
894.85	91.88
895.282	98.88
895.715	105.88
896.147	89.88
896.579	94.88
897.011	101.88
897.444	77.88
897.876	96.88
898.308	91.88
898.74	92.88
899.172	91.88
899.604	107.88
900.036	98.88
900.468	85.88
900.9	98.88
901.332	103.88
901.764	91.88
902.196	99.88
902.628	100.88
903.06	106.88
903.491	125.88
903.923	111.88
904.355	109.88
904.787	112.88
905.218	99.88
905.65	96.88
906.082	103.88
906.513	114.88
906.945	102.88
907.376	94.88
907.808	106.88
908.239	92.88
908.671	116.88
909.102	88.88
909.534	95.88
909.965	117.88
910.397	171.88
910.828	379.88
911.259	423.88
911.691	287.88
912.122	203.88
912.553	144.88
912.984	106.88
913.415	101.88
913.847	115.88
914.278	84.88
914.709	99.88
915.14	76.88
915.571	99.88
916.002	98.88
916.433	99.88
916.864	90.88
917.295	103.88
917.726	88.88
918.157	95.88
918.587	111.88
919.018	77.88
919.449	93.88
919.88	109.88
920.311	109.88
920.741	157.88
921.172	221.88
921.603	187.88
922.033	140.88
922.464	124.88
922.895	110.88
923.325	98.88
923.756	92.88
924.186	105.88
924.617	123.88
925.047	139.88
925.478	163.88
925.908	128.88
926.338	122.88
926.769	100.88
927.199	87.88
927.629	101.88
928.06	97.88
928.49	89.88
928.92	91.88
929.35	94.88
929.78	85.88
930.21	73.88
930.641	88.88
931.071	80.88
931.501	95.88
931.931	94.88
932.361	96.88
932.791	88.88
933.221	97.88
933.651	85.88
934.08	114.88
934.51	101.88
934.94	101.88
935.37	90.88
935.8	98.88
936.229	84.88
936.659	94.88
937.089	108.88
937.519	100.88
937.948	100.88
938.378	99.88
938.807	103.88
939.237	108.88
939.666	98.88
940.096	92.88
940.525	81.88
940.955	83.88
941.384	92.88
941.814	76.88
942.243	97.88
942.672	85.88
943.102	91.88
943.531	72.88
943.96	88.88
944.39	69.88
944.819	79.88
945.248	89.88
945.677	93.88
946.106	81.88
946.535	88.88
946.964	88.88
947.393	97.88
947.822	67.88
948.251	76.88
948.68	86.88
949.109	89.88
949.538	91.88
949.967	84.88
950.396	77.88
950.825	72.88
951.254	87.88
951.682	70.88
952.111	97.88
952.54	81.88
952.969	87.88
953.397	79.88
953.826	89.88
954.254	71.88
954.683	78.88
955.112	84.88
955.54	92.88
955.969	87.88
956.397	77.88
956.826	66.88
957.254	86.88
957.682	97.88
958.111	84.88
958.539	75.88
958.967	81.88
959.396	81.88
959.824	71.88
960.252	75.88
960.68	87.88
961.109	82.88
961.537	86.88
961.965	73.88
962.393	94.88
962.821	77.88
963.249	69.88
963.677	74.88
964.105	108.88
964.533	131.88
964.961	117.88
965.389	111.88
965.817	88.88
966.245	87.88
966.672	83.88
967.1	84.88
967.528	68.88
967.956	90.88
968.383	89.88
968.811	97.88
969.239	77.88
969.666	91.88
970.094	84.88
970.522	74.88
970.949	80.88
971.377	86.88
971.804	72.88
972.232	84.88
972.659	87.88
973.087	71.88
973.514	88.88
973.941	97.88
974.369	67.88
974.796	92.88
975.223	75.88
975.651	85.88
976.078	85.88
976.505	72.88
976.932	82.88
977.359	96.88
977.786	91.88
978.214	87.88
978.641	77.88
979.068	75.88
979.495	61.88
979.922	69.88
980.349	79.88
980.776	89.88
981.202	79.88
981.629	92.88
982.056	71.88
982.483	77.88
982.91	67.88
983.337	88.88
983.763	82.88
984.19	92.88
984.617	92.88
985.043	77.88
985.47	91.88
985.897	75.88
986.323	72.88
986.75	81.88
987.176	71.88
987.603	74.88
988.029	81.88
988.456	70.88
988.882	80.88
989.308	87.88
989.735	104.88
990.161	80.88
990.587	76.88
991.014	67.88
991.44	85.88
991.866	82.88
992.292	99.88
992.719	71.88
993.145	78.88
993.571	68.88
993.997	82.88
994.423	69.88
994.849	77.88
995.275	81.88
995.701	71.88
996.127	93.88
996.553	83.88
996.979	78.88
997.405	88.88
997.83	77.88
998.256	100.88
998.682	73.88
999.108	103.88
999.534	78.88
999.959	77.88
1000.385	62.88
1000.811	85.88
1001.236	76.88
1001.662	90.88
1002.087	91.88
1002.513	67.88
1002.938	92.88
1003.364	92.88
1003.789	85.88
1004.215	83.88
1004.64	74.88
1005.066	77.88
1005.491	88.88
1005.916	83.88
1006.342	86.88
1006.767	95.88
1007.192	73.88
1007.617	75.88
1008.042	102.88
1008.468	65.88
1008.893	73.88
1009.318	75.88
1009.743	92.88
1010.168	95.88
1010.593	85.88
1011.018	104.88
1011.443	84.88
1011.868	87.88
1012.293	84.88
1012.718	62.88
1013.143	75.88
1013.567	89.88
1013.992	81.88
1014.417	94.88
1014.842	85.88
1015.267	85.88
1015.691	83.88
1016.116	65.88
1016.541	57.88
1016.965	86.88
1017.39	87.88
1017.814	79.88
1018.239	87.88
1018.663	79.88
1019.088	58.88
1019.512	86.88
1019.937	73.88
1020.361	79.88
1020.785	55.88
1021.21	67.88
1021.634	88.88
1022.058	87.88
1022.483	93.88
1022.907	89.88
1023.331	95.88
1023.755	87.88
1024.179	79.88
1024.604	61.88
1025.028	70.88
1025.452	87.88
1025.876	91.88
1026.3	83.88
1026.724	91.88
1027.148	79.88
1027.572	83.88
1027.996	69.88
1028.42	94.88
1028.843	86.88
1029.267	76.88
1029.691	83.88
1030.115	80.88
1030.539	81.88
1030.962	99.88
1031.386	92.88
1031.81	89.88
1032.233	91.88
1032.657	83.88
1033.08	75.88
1033.504	79.88
1033.927	82.88
1034.351	100.88
1034.774	88.88
1035.198	77.88
1035.621	80.88
1036.045	87.88
1036.468	59.88
1036.891	67.88
1037.315	73.88
1037.738	77.88
1038.161	67.88
1038.584	80.88
1039.008	78.88
1039.431	81.88
1039.854	72.88
1040.277	78.88
1040.7	70.88
1041.123	78.88
1041.546	65.88
1041.969	81.88
1042.392	72.88
1042.815	76.88
1043.238	67.88
1043.661	80.88
1044.084	57.88
1044.507	74.88
1044.93	79.88
1045.352	66.88
1045.775	83.88
1046.198	83.88
1046.621	85.88
1047.043	77.88
1047.466	88.88
1047.889	90.88
1048.311	72.88
1048.734	81.88
1049.156	87.88
1049.579	95.88
1050.001	95.88
1050.424	84.88
1050.846	95.88
1051.269	76.88
1051.691	79.88
1052.113	73.88
1052.536	86.88
1052.958	79.88
1053.38	78.88
1053.802	69.88
1054.225	68.88
1054.647	90.88
1055.069	91.88
1055.491	83.88
1055.913	70.88
1056.335	77.88
1056.757	102.88
1057.179	81.88
1057.601	84.88
1058.023	81.88
1058.445	80.88
1058.867	84.88
1059.289	74.88
1059.711	69.88
1060.133	88.88
1060.555	79.88
1060.976	87.88
1061.398	79.88
1061.82	74.88
1062.241	86.88
1062.663	79.88
1063.085	84.88
1063.506	79.88
1063.928	72.88
1064.35	85.88
1064.771	85.88
1065.193	83.88
1065.614	77.88
1066.035	93.88
1066.457	80.88
1066.878	78.88
1067.3	95.88
1067.721	89.88
1068.142	76.88
1068.564	72.88
1068.985	98.88
1069.406	73.88
1069.827	83.88
1070.248	72.88
1070.67	68.88
1071.091	86.88
1071.512	102.88
1071.933	89.88
1072.354	76.88
1072.775	80.88
1073.196	93.88
1073.617	84.88
1074.038	72.88
1074.459	59.88
1074.88	70.88
1075.3	74.88
1075.721	103.88
1076.142	88.88
1076.563	103.88
1076.983	81.88
1077.404	96.88
1077.825	85.88
1078.246	68.88
1078.666	91.88
1079.087	80.88
1079.507	88.88
1079.928	80.88
1080.348	91.88
1080.769	93.88
1081.189	84.88
1081.61	92.88
1082.03	92.88
1082.451	80.88
1082.871	77.88
1083.291	81.88
1083.711	86.88
1084.132	75.88
1084.552	101.88
1084.972	71.88
1085.392	81.88
1085.813	88.88
1086.233	73.88
1086.653	81.88
1087.073	61.88
1087.493	84.88
1087.913	84.88
1088.333	93.88
1088.753	75.88
1089.173	95.88
1089.593	77.88
1090.013	84.88
1090.433	76.88
1090.852	83.88
1091.272	72.88
1091.692	83.88
1092.112	76.88
1092.531	81.88
1092.951	100.88
1093.371	88.88
1093.79	85.88
1094.21	82.88
1094.63	90.88
1095.049	100.88
1095.469	99.88
1095.888	75.88
1096.308	86.88
1096.727	93.88
1097.146	90.88
1097.566	85.88
1097.985	81.88
1098.405	77.88
1098.824	74.88
1099.243	77.88
1099.662	83.88
1100.082	85.88
1100.501	84.88
1100.92	87.88
1101.339	70.88
1101.758	89.88
